   1.0000000e+02   0.0000000e+00
   1.3037720e+02   0.0000000e+00
   1.3085930e+02   2.9943790e+01
   1.3134140e+02   4.0095520e+01
   1.3182350e+02   3.2205990e+01
   1.3230560e+02   1.0157960e+01
   1.3278770e+02   7.4509280e+00
   1.3326990e+02   1.5932010e+01
   1.3375200e+02   1.6734500e+01
   1.3423410e+02   4.7994380e+00
   1.3471620e+02   2.3696290e+01
   1.3519830e+02   6.8358890e+01
   1.3568040e+02   1.1337610e+02
   1.3616260e+02   1.5505810e+02
   1.3664470e+02   1.9905530e+02
   1.3712680e+02   2.5757540e+02
   1.3760890e+02   3.3209120e+02
   1.3809100e+02   4.1220920e+02
   1.3857310e+02   4.8680090e+02
   1.3905530e+02   5.5148770e+02
   1.3953740e+02   6.3634300e+02
   1.4001950e+02   7.4732230e+02
   1.4050160e+02   8.7864310e+02
   1.4098370e+02   1.0005360e+03
   1.4146580e+02   1.1037830e+03
   1.4194800e+02   1.2139040e+03
   1.4243010e+02   1.3493480e+03
   1.4291220e+02   1.5232430e+03
   1.4339430e+02   1.6943390e+03
   1.4387640e+02   1.8620920e+03
   1.4435850e+02   2.0247280e+03
   1.4484070e+02   2.1748920e+03
   1.4532280e+02   2.3114700e+03
   1.4580490e+02   2.4350050e+03
   1.4628700e+02   2.5440330e+03
   1.4676910e+02   2.6284190e+03
   1.4725120e+02   2.7093720e+03
   1.4773340e+02   2.7865540e+03
   1.4821550e+02   2.8571610e+03
   1.4869760e+02   2.9404490e+03
   1.4917970e+02   3.0573200e+03
   1.4966180e+02   3.1810430e+03
   1.5014390e+02   3.2753660e+03
   1.5062610e+02   3.3364330e+03
   1.5110820e+02   3.3703450e+03
   1.5159030e+02   3.3722310e+03
   1.5207240e+02   3.3215820e+03
   1.5255450e+02   3.2852870e+03
   1.5303660e+02   3.2546600e+03
   1.5351880e+02   3.2421860e+03
   1.5400090e+02   3.2724510e+03
   1.5448300e+02   3.3692220e+03
   1.5496510e+02   3.4953570e+03
   1.5544720e+02   3.6350480e+03
   1.5592930e+02   3.7790740e+03
   1.5641150e+02   3.9462590e+03
   1.5689360e+02   4.1500430e+03
   1.5737570e+02   4.3823270e+03
   1.5785780e+02   4.6186990e+03
   1.5833990e+02   4.8744960e+03
   1.5882210e+02   5.1188390e+03
   1.5930420e+02   5.3342190e+03
   1.5978630e+02   5.5193260e+03
   1.6026840e+02   5.6715860e+03
   1.6075050e+02   5.8050100e+03
   1.6123260e+02   5.9148990e+03
   1.6171480e+02   5.9539800e+03
   1.6219690e+02   5.8796670e+03
   1.6267900e+02   5.7334140e+03
   1.6316110e+02   5.5567650e+03
   1.6364320e+02   5.3374620e+03
   1.6412530e+02   5.1105740e+03
   1.6460750e+02   4.8821360e+03
   1.6508960e+02   4.6519290e+03
   1.6557170e+02   4.4553960e+03
   1.6605380e+02   4.2996320e+03
   1.6653590e+02   4.1925010e+03
   1.6701800e+02   4.1438660e+03
   1.6750020e+02   4.1770810e+03
   1.6798230e+02   4.2573410e+03
   1.6846440e+02   4.3684490e+03
   1.6894650e+02   4.5135660e+03
   1.6942860e+02   4.6593350e+03
   1.6991070e+02   4.7985550e+03
   1.7039290e+02   4.9206120e+03
   1.7087500e+02   5.0066740e+03
   1.7135710e+02   5.0245540e+03
   1.7183920e+02   5.0101860e+03
   1.7232130e+02   4.9957940e+03
   1.7280340e+02   4.9805210e+03
   1.7328560e+02   4.9818330e+03
   1.7376770e+02   5.0122850e+03
   1.7424980e+02   5.0722150e+03
   1.7473190e+02   5.1616730e+03
   1.7521400e+02   5.2888280e+03
   1.7569610e+02   5.4434130e+03
   1.7617830e+02   5.6104330e+03
   1.7666040e+02   5.7861170e+03
   1.7714250e+02   5.9746270e+03
   1.7762460e+02   6.1818970e+03
   1.7810670e+02   6.4028560e+03
   1.7858880e+02   6.6378300e+03
   1.7907100e+02   6.8777570e+03
   1.7955310e+02   7.1251610e+03
   1.8003520e+02   7.3774050e+03
   1.8051730e+02   7.6358890e+03
   1.8099940e+02   7.8845960e+03
   1.8148150e+02   8.0891760e+03
   1.8196370e+02   8.2517590e+03
   1.8244580e+02   8.3930950e+03
   1.8292790e+02   8.5482410e+03
   1.8341000e+02   8.6993630e+03
   1.8389210e+02   8.7893720e+03
   1.8437420e+02   8.8088240e+03
   1.8485640e+02   8.7580010e+03
   1.8533850e+02   8.6241460e+03
   1.8582060e+02   8.4039040e+03
   1.8630270e+02   8.1336840e+03
   1.8678480e+02   7.8457620e+03
   1.8726690e+02   7.5386510e+03
   1.8774910e+02   7.1919800e+03
   1.8823120e+02   6.7757600e+03
   1.8871330e+02   6.3155080e+03
   1.8919540e+02   5.8740410e+03
   1.8967750e+02   5.4508770e+03
   1.9015960e+02   5.0620620e+03
   1.9064180e+02   4.7267860e+03
   1.9112390e+02   4.4460600e+03
   1.9160600e+02   4.1924050e+03
   1.9208810e+02   3.9492000e+03
   1.9257020e+02   3.7198550e+03
   1.9305240e+02   3.5392290e+03
   1.9353450e+02   3.4125340e+03
   1.9401660e+02   3.3216540e+03
   1.9449870e+02   3.2423050e+03
   1.9498080e+02   3.1739330e+03
   1.9546290e+02   3.1251840e+03
   1.9594510e+02   3.1084190e+03
   1.9642720e+02   3.1226340e+03
   1.9690930e+02   3.1235050e+03
   1.9739140e+02   3.1011970e+03
   1.9787350e+02   3.0787900e+03
   1.9835560e+02   3.1044440e+03
   1.9883780e+02   3.1834890e+03
   1.9931990e+02   3.2753040e+03
   1.9980200e+02   3.3486380e+03
   2.0028410e+02   3.3985720e+03
   2.0076620e+02   3.4972030e+03
   2.0124830e+02   3.6585000e+03
   2.0173050e+02   3.8617090e+03
   2.0221260e+02   4.0536550e+03
   2.0269470e+02   4.2280560e+03
   2.0317680e+02   4.4146450e+03
   2.0365890e+02   4.6384660e+03
   2.0414100e+02   4.9040570e+03
   2.0462320e+02   5.1619240e+03
   2.0510530e+02   5.4117020e+03
   2.0558740e+02   5.6491670e+03
   2.0606950e+02   5.8627790e+03
   2.0655160e+02   6.0555410e+03
   2.0703370e+02   6.2165370e+03
   2.0751590e+02   6.3556030e+03
   2.0799800e+02   6.4899320e+03
   2.0848010e+02   6.5093190e+03
   2.0896220e+02   6.3935620e+03
   2.0944430e+02   6.1525710e+03
   2.0992640e+02   5.8248820e+03
   2.1040860e+02   5.3914440e+03
   2.1089070e+02   4.9074200e+03
   2.1137280e+02   4.4094430e+03
   2.1185490e+02   3.8790010e+03
   2.1233700e+02   3.3818310e+03
   2.1281910e+02   2.9169770e+03
   2.1330130e+02   2.4907160e+03
   2.1378340e+02   2.1242220e+03
   2.1426550e+02   1.8264860e+03
   2.1474760e+02   1.5730710e+03
   2.1522970e+02   1.3478970e+03
   2.1571180e+02   1.1501590e+03
   2.1619400e+02   9.7703000e+02
   2.1667610e+02   8.2949560e+02
   2.1715820e+02   7.0655970e+02
   2.1764030e+02   6.0470920e+02
   2.1812240e+02   5.3281350e+02
   2.1860450e+02   4.7171960e+02
   2.1908670e+02   4.0110620e+02
   2.1956880e+02   3.1183890e+02
   2.2005090e+02   2.3619040e+02
   2.2053300e+02   1.8463660e+02
   2.2101510e+02   1.5695290e+02
   2.2149720e+02   1.3070860e+02
   2.2197940e+02   1.0777510e+02
   2.2246150e+02   8.3928470e+01
   2.2294360e+02   5.2546390e+01
   2.2342570e+02   5.8494870e+00
   2.2390780e+02   3.2505000e+01
   2.2438990e+02   5.4624270e+01
   2.2487210e+02   5.9316410e+01
   2.2535420e+02   6.8607300e+01
   2.2583630e+02   8.7541500e+01
   2.2631840e+02   1.0640720e+02
   2.2680050e+02   1.1208060e+02
   2.2728270e+02   9.4229490e+01
   2.2776480e+02   8.3043330e+01
   2.2824690e+02   8.8597410e+01
   2.2872900e+02   1.1405510e+02
   2.2921110e+02   1.3123560e+02
   2.2969320e+02   1.3727490e+02
   2.3017540e+02   1.3715200e+02
   2.3065750e+02   1.3719320e+02
   2.3113960e+02   1.3763210e+02
   2.3162170e+02   1.3781100e+02
   2.3210380e+02   1.3766590e+02
   2.3258590e+02   1.3731340e+02
   2.3306810e+02   1.3625050e+02
   2.3355020e+02   1.3582100e+02
   2.3403230e+02   1.3374130e+02
   2.3451440e+02   1.2650840e+02
   2.3499650e+02   1.1282780e+02
   2.3547860e+02   9.6203610e+01
   2.3596080e+02   7.6922490e+01
   2.3644290e+02   5.4348020e+01
   2.3692500e+02   3.3216060e+01
   2.3740710e+02   1.3940060e+01
   2.3788920e+02   3.9849850e+00
   2.3837130e+02   2.0282470e+01
   2.3885350e+02   2.9578740e+01
   2.3933560e+02   4.6383540e+01
   2.3981770e+02   7.7368770e+01
   2.4029980e+02   1.2801780e+02
   2.4078190e+02   1.7173240e+02
   2.4126400e+02   2.0570210e+02
   2.4174620e+02   2.3512520e+02
   2.4222830e+02   2.6863430e+02
   2.4271040e+02   3.0513380e+02
   2.4319250e+02   3.4760890e+02
   2.4367460e+02   3.9790500e+02
   2.4415670e+02   4.5861000e+02
   2.4463890e+02   5.1891000e+02
   2.4512100e+02   5.7682620e+02
   2.4560310e+02   6.3534520e+02
   2.4608520e+02   6.9843360e+02
   2.4656730e+02   7.6286560e+02
   2.4704940e+02   8.3759280e+02
   2.4753160e+02   9.2977050e+02
   2.4801370e+02   1.0500470e+03
   2.4849580e+02   1.1517690e+03
   2.4897790e+02   1.2300830e+03
   2.4946000e+02   1.2919920e+03
   2.4994210e+02   1.3507460e+03
   2.5042430e+02   1.4166740e+03
   2.5090640e+02   1.4619140e+03
   2.5138850e+02   1.4768000e+03
   2.5187060e+02   1.4599480e+03
   2.5235270e+02   1.4150330e+03
   2.5283480e+02   1.3356560e+03
   2.5331700e+02   1.2325450e+03
   2.5379910e+02   1.1226220e+03
   2.5428120e+02   9.9777820e+02
   2.5476330e+02   8.8377420e+02
   2.5524540e+02   7.8829160e+02
   2.5572750e+02   7.1047900e+02
   2.5620970e+02   6.5892660e+02
   2.5669180e+02   6.4093180e+02
   2.5717390e+02   6.4472310e+02
   2.5765600e+02   6.4805590e+02
   2.5813810e+02   6.4680270e+02
   2.5862020e+02   6.5370040e+02
   2.5910240e+02   6.7429200e+02
   2.5958450e+02   7.1041210e+02
   2.6006660e+02   7.5160120e+02
   2.6054870e+02   7.9739700e+02
   2.6103080e+02   8.4856510e+02
   2.6151290e+02   9.1019840e+02
   2.6199510e+02   9.8602750e+02
   2.6247720e+02   1.0621380e+03
   2.6295930e+02   1.1311160e+03
   2.6344140e+02   1.1908280e+03
   2.6392350e+02   1.2557600e+03
   2.6440560e+02   1.3255040e+03
   2.6488780e+02   1.4016850e+03
   2.6536990e+02   1.4918310e+03
   2.6585200e+02   1.6035260e+03
   2.6633410e+02   1.7097320e+03
   2.6681620e+02   1.8012360e+03
   2.6729830e+02   1.8760720e+03
   2.6778050e+02   1.9449790e+03
   2.6826260e+02   2.0106370e+03
   2.6874470e+02   2.0666360e+03
   2.6922680e+02   2.0992520e+03
   2.6970890e+02   2.1035390e+03
   2.7019100e+02   2.1020960e+03
   2.7067320e+02   2.1027820e+03
   2.7115530e+02   2.1058330e+03
   2.7163740e+02   2.1051550e+03
   2.7211950e+02   2.0931980e+03
   2.7260160e+02   2.0886270e+03
   2.7308370e+02   2.1226320e+03
   2.7356590e+02   2.1987370e+03
   2.7404800e+02   2.2949870e+03
   2.7453010e+02   2.4015340e+03
   2.7501220e+02   2.5173420e+03
   2.7549430e+02   2.6663310e+03
   2.7597640e+02   2.8534320e+03
   2.7645860e+02   3.0644400e+03
   2.7694070e+02   3.2779720e+03
   2.7742280e+02   3.4895360e+03
   2.7790490e+02   3.7181550e+03
   2.7838700e+02   3.9673370e+03
   2.7886910e+02   4.2372490e+03
   2.7935130e+02   4.5274590e+03
   2.7983340e+02   4.8327600e+03
   2.8031550e+02   5.1717670e+03
   2.8079760e+02   5.5818570e+03
   2.8127980e+02   6.0617940e+03
   2.8176190e+02   6.5523230e+03
   2.8224400e+02   7.0228190e+03
   2.8272610e+02   7.4820920e+03
   2.8320820e+02   7.9958670e+03
   2.8369030e+02   8.5708330e+03
   2.8417250e+02   9.1728650e+03
   2.8465460e+02   9.7670020e+03
   2.8513670e+02   1.0349920e+04
   2.8561880e+02   1.0933780e+04
   2.8610090e+02   1.1527620e+04
   2.8658300e+02   1.2123770e+04
   2.8706520e+02   1.2712430e+04
   2.8754730e+02   1.3296980e+04
   2.8802940e+02   1.3826740e+04
   2.8851150e+02   1.4279790e+04
   2.8899360e+02   1.4646250e+04
   2.8947570e+02   1.4836640e+04
   2.8995790e+02   1.4836370e+04
   2.9044000e+02   1.4637640e+04
   2.9092210e+02   1.4198580e+04
   2.9140420e+02   1.3513260e+04
   2.9188630e+02   1.2660930e+04
   2.9236840e+02   1.1648940e+04
   2.9285060e+02   1.0515740e+04
   2.9333270e+02   9.4095210e+03
   2.9381480e+02   8.3470500e+03
   2.9429690e+02   7.3504500e+03
   2.9477900e+02   6.4312580e+03
   2.9526110e+02   5.5860530e+03
   2.9574330e+02   4.8439350e+03
   2.9622540e+02   4.2387990e+03
   2.9670750e+02   3.7457280e+03
   2.9718960e+02   3.3182930e+03
   2.9767170e+02   2.9423670e+03
   2.9815380e+02   2.6123540e+03
   2.9863600e+02   2.3312880e+03
   2.9911810e+02   2.0952780e+03
   2.9960020e+02   1.8891330e+03
   3.0008230e+02   1.7005420e+03
   3.0056440e+02   1.5313910e+03
   3.0104650e+02   1.3842750e+03
   3.0152870e+02   1.2650660e+03
   3.0201080e+02   1.1615670e+03
   3.0249290e+02   1.0613570e+03
   3.0297500e+02   9.6529690e+02
   3.0345710e+02   8.8348780e+02
   3.0393920e+02   8.2657570e+02
   3.0442140e+02   7.8584340e+02
   3.0490350e+02   7.4816700e+02
   3.0538560e+02   7.0954370e+02
   3.0586770e+02   6.7626680e+02
   3.0634980e+02   6.5933410e+02
   3.0683190e+02   6.5439480e+02
   3.0731410e+02   6.4569340e+02
   3.0779620e+02   6.1651440e+02
   3.0827830e+02   5.8274660e+02
   3.0876040e+02   5.6060210e+02
   3.0924250e+02   5.5830180e+02
   3.0972460e+02   5.5831520e+02
   3.1020680e+02   5.4611040e+02
   3.1068890e+02   5.2724760e+02
   3.1117100e+02   5.1565390e+02
   3.1165310e+02   5.2354680e+02
   3.1213520e+02   5.3784690e+02
   3.1261730e+02   5.4754140e+02
   3.1309950e+02   5.4737770e+02
   3.1358160e+02   5.5140060e+02
   3.1406370e+02   5.6807470e+02
   3.1454580e+02   5.9330730e+02
   3.1502790e+02   6.1919560e+02
   3.1551000e+02   6.3849460e+02
   3.1599220e+02   6.6128630e+02
   3.1647430e+02   6.9268600e+02
   3.1695640e+02   7.3350510e+02
   3.1743850e+02   7.8227370e+02
   3.1792060e+02   8.3989330e+02
   3.1840270e+02   9.0448340e+02
   3.1888490e+02   9.7346250e+02
   3.1936700e+02   1.0404220e+03
   3.1984910e+02   1.1170780e+03
   3.2033120e+02   1.2097020e+03
   3.2081330e+02   1.3212500e+03
   3.2129540e+02   1.4365470e+03
   3.2177760e+02   1.5539210e+03
   3.2225970e+02   1.6737840e+03
   3.2274180e+02   1.7965440e+03
   3.2322390e+02   1.9166370e+03
   3.2370600e+02   2.0450870e+03
   3.2418810e+02   2.1873600e+03
   3.2467030e+02   2.3449390e+03
   3.2515240e+02   2.5011850e+03
   3.2563450e+02   2.6569410e+03
   3.2611660e+02   2.8081120e+03
   3.2659870e+02   2.9533970e+03
   3.2708080e+02   3.1377160e+03
   3.2756300e+02   3.2636740e+03
   3.2804510e+02   3.3280530e+03
   3.2852720e+02   3.3297770e+03
   3.2900930e+02   3.2427720e+03
   3.2949140e+02   3.0341060e+03
   3.2997350e+02   2.7695490e+03
   3.3045570e+02   2.4869600e+03
   3.3093780e+02   2.1559230e+03
   3.3141990e+02   1.8589170e+03
   3.3190200e+02   1.6024120e+03
   3.3238410e+02   1.3836330e+03
   3.3286620e+02   1.1882750e+03
   3.3334840e+02   1.0158670e+03
   3.3383050e+02   8.7050820e+02
   3.3431260e+02   7.5658940e+02
   3.3479470e+02   6.8467110e+02
   3.3527680e+02   6.1439790e+02
   3.3575890e+02   5.4054200e+02
   3.3624110e+02   4.6920360e+02
   3.3672320e+02   4.1437990e+02
   3.3720530e+02   3.7873850e+02
   3.3768740e+02   3.5305870e+02
   3.3816950e+02   3.3396300e+02
   3.3865160e+02   3.2204860e+02
   3.3913380e+02   3.1292540e+02
   3.3961590e+02   3.0653220e+02
   3.4009800e+02   3.0307810e+02
   3.4058010e+02   3.0497710e+02
   3.4106220e+02   3.1318600e+02
   3.4154430e+02   3.1794480e+02
   3.4202650e+02   3.1366880e+02
   3.4250860e+02   3.0152030e+02
   3.4299070e+02   2.9147470e+02
   3.4347280e+02   2.8348270e+02
   3.4395490e+02   2.7813890e+02
   3.4443700e+02   2.7628140e+02
   3.4491920e+02   2.7786500e+02
   3.4540130e+02   2.8282410e+02
   3.4588340e+02   2.9399910e+02
   3.4636550e+02   3.0771700e+02
   3.4684760e+02   3.1395430e+02
   3.4732970e+02   3.1263600e+02
   3.4781190e+02   3.0629320e+02
   3.4829400e+02   2.9659110e+02
   3.4877610e+02   2.8361060e+02
   3.4925820e+02   2.6810780e+02
   3.4974030e+02   2.5076990e+02
   3.5022250e+02   2.3012570e+02
   3.5070460e+02   2.0048790e+02
   3.5118670e+02   1.6309830e+02
   3.5166880e+02   1.2970730e+02
   3.5215090e+02   1.1145240e+02
   3.5263310e+02   1.0181090e+02
   3.5311520e+02   9.0990840e+01
   3.5359730e+02   7.6222530e+01
   3.5407940e+02   6.0873660e+01
   3.5456150e+02   4.6600460e+01
   3.5504360e+02   3.3925540e+01
   3.5552580e+02   2.4448970e+01
   3.5600790e+02   2.2168820e+01
   3.5649000e+02   2.1740360e+01
   3.5697210e+02   1.7916990e+01
   3.5745420e+02   8.6033940e+00
   3.5793630e+02   2.7648900e-01
   3.5841850e+02   1.6645510e+00
   3.5890060e+02   3.4924300e-01
   3.5938270e+02   1.1928710e+00
   3.5986480e+02   9.6833500e+00
   3.6034690e+02   1.8204350e+01
   3.6082900e+02   2.2114750e+01
   3.6131120e+02   2.0296140e+01
   3.6179330e+02   1.9337400e+01
   3.6227540e+02   2.2657590e+01
   3.6275750e+02   2.7430540e+01
   3.6323960e+02   3.0599120e+01
   3.6372170e+02   2.9687500e+01
   3.6420390e+02   2.8847050e+01
   3.6468600e+02   2.9796750e+01
   3.6516810e+02   3.2591190e+01
   3.6565020e+02   3.3414430e+01
   3.6613230e+02   2.9946660e+01
   3.6661440e+02   2.5530400e+01
   3.6709660e+02   2.2413700e+01
   3.6757870e+02   1.6794800e+01
   3.6806080e+02   1.7406130e+01
   3.6854290e+02   2.9140870e+01
   3.6902500e+02   4.8287600e+01
   3.6950710e+02   5.8701170e+01
   3.6998930e+02   5.8738400e+01
   3.7047140e+02   5.3316280e+01
   3.7095350e+02   4.3624270e+01
   3.7143560e+02   2.5736080e+01
   3.7191770e+02   1.3258060e+01
   3.7239980e+02   7.1394040e+00
   3.7288200e+02   5.5334470e+00
   3.7336410e+02   5.2509770e+00
   3.7384620e+02   6.6551510e+00
   3.7432830e+02   8.4318850e+00
   3.7481040e+02   1.2120120e+01
   3.7529250e+02   1.9188110e+01
   3.7577470e+02   1.7629520e+01
   3.7625680e+02   4.2204590e+00
   3.7673890e+02   1.3310670e+01
   3.7722100e+02   2.4453250e+01
   3.7770310e+02   2.8831790e+01
   3.7818520e+02   2.9284910e+01
   3.7866740e+02   2.4437620e+01
   3.7914950e+02   1.6304440e+01
   3.7963160e+02   1.4351680e+01
   3.8011370e+02   1.9062010e+01
   3.8059580e+02   2.6911500e+01
   3.8107790e+02   3.6230220e+01
   3.8156010e+02   4.6474490e+01
   3.8204220e+02   5.3805790e+01
   3.8252430e+02   5.6299800e+01
   3.8300640e+02   5.7138310e+01
   3.8348850e+02   6.1533200e+01
   3.8397060e+02   6.9258670e+01
   3.8445280e+02   7.8198730e+01
   3.8493490e+02   8.4822510e+01
   3.8541700e+02   9.2328610e+01
   3.8589910e+02   1.0787320e+02
   3.8638120e+02   1.3524070e+02
   3.8686330e+02   1.6234240e+02
   3.8734550e+02   1.7606600e+02
   3.8782760e+02   1.8079800e+02
   3.8830970e+02   1.8682120e+02
   3.8879180e+02   1.9376290e+02
   3.8927390e+02   2.0756410e+02
   3.8975600e+02   2.3516980e+02
   3.9023820e+02   2.7803140e+02
   3.9072030e+02   3.2351750e+02
   3.9120240e+02   3.5894580e+02
   3.9168450e+02   3.9502500e+02
   3.9216660e+02   4.4468740e+02
   3.9264870e+02   5.3690970e+02
   3.9313090e+02   6.2009940e+02
   3.9361300e+02   6.6823950e+02
   3.9409510e+02   6.8418120e+02
   3.9457720e+02   7.0115550e+02
   3.9505930e+02   7.2100420e+02
   3.9554140e+02   7.4875900e+02
   3.9602360e+02   7.8742770e+02
   3.9650570e+02   8.4685940e+02
   3.9698780e+02   9.0626610e+02
   3.9746990e+02   9.7167910e+02
   3.9795200e+02   1.0365290e+03
   3.9843410e+02   1.0795600e+03
   3.9891630e+02   1.0850770e+03
   3.9939840e+02   1.0849490e+03
   3.9988050e+02   1.0905600e+03
   4.0036260e+02   1.1050160e+03
   4.0084470e+02   1.1157500e+03
   4.0132680e+02   1.1205330e+03
   4.0180900e+02   1.1232300e+03
   4.0229110e+02   1.1271570e+03
   4.0277320e+02   1.1268350e+03
   4.0325530e+02   1.1423110e+03
   4.0373740e+02   1.1824910e+03
   4.0421950e+02   1.2459080e+03
   4.0470170e+02   1.3055900e+03
   4.0518380e+02   1.3604660e+03
   4.0566590e+02   1.4151990e+03
   4.0614800e+02   1.4830590e+03
   4.0663010e+02   1.5650970e+03
   4.0711220e+02   1.6152560e+03
   4.0759440e+02   1.6244880e+03
   4.0807650e+02   1.5977690e+03
   4.0855860e+02   1.5399530e+03
   4.0904070e+02   1.4513020e+03
   4.0952280e+02   1.3535520e+03
   4.1000490e+02   1.2503040e+03
   4.1048710e+02   1.1497040e+03
   4.1096920e+02   1.0736160e+03
   4.1145130e+02   1.0249610e+03
   4.1193340e+02   9.9767440e+02
   4.1241550e+02   9.8793810e+02
   4.1289760e+02   9.9391470e+02
   4.1337980e+02   1.0102190e+03
   4.1386190e+02   1.0409420e+03
   4.1434400e+02   1.0771590e+03
   4.1482610e+02   1.1189510e+03
   4.1530820e+02   1.1658870e+03
   4.1579030e+02   1.1882560e+03
   4.1627250e+02   1.1697990e+03
   4.1675460e+02   1.1156250e+03
   4.1723670e+02   1.0293950e+03
   4.1771880e+02   8.8618510e+02
   4.1820090e+02   7.4079490e+02
   4.1868300e+02   6.1468870e+02
   4.1916520e+02   5.0672730e+02
   4.1964730e+02   4.1614900e+02
   4.2012940e+02   3.4646120e+02
   4.2061150e+02   2.8979210e+02
   4.2109370e+02   2.4236000e+02
   4.2157580e+02   2.0927280e+02
   4.2205790e+02   1.7603120e+02
   4.2254000e+02   1.3624540e+02
   4.2302210e+02   9.5802490e+01
   4.2350420e+02   6.4025510e+01
   4.2398640e+02   4.5233760e+01
   4.2446850e+02   3.1522090e+01
   4.2495060e+02   2.2884160e+01
   4.2543270e+02   2.0243900e+01
   4.2591480e+02   1.2510500e+01
   4.2639690e+02   4.9444580e+00
   4.2687910e+02   2.4208250e+01
   4.2736120e+02   3.7190800e+01
   4.2784330e+02   4.1523070e+01
   4.2832540e+02   4.3774290e+01
   4.2880750e+02   4.3514530e+01
   4.2928960e+02   4.1448120e+01
   4.2977180e+02   4.2679200e+01
   4.3025390e+02   4.8209230e+01
   4.3073600e+02   5.4426030e+01
   4.3121810e+02   6.1048340e+01
   4.3170020e+02   6.7739500e+01
   4.3218230e+02   6.6287720e+01
   4.3266450e+02   5.4651370e+01
   4.3314660e+02   4.0932500e+01
   4.3362870e+02   3.6467650e+01
   4.3411080e+02   3.8817990e+01
   4.3459290e+02   3.9455200e+01
   4.3507500e+02   3.6441650e+01
   4.3555720e+02   3.0047850e+01
   4.3603930e+02   1.8797120e+01
   4.3652140e+02   3.1184080e+00
   4.3700350e+02   1.1774170e+01
   4.3748560e+02   2.0709720e+01
   4.3796770e+02   2.7252440e+01
   4.3844990e+02   3.5235110e+01
   4.3893200e+02   4.3000730e+01
   4.3941410e+02   5.6808110e+01
   4.3989620e+02   8.2106200e+01
   4.4037830e+02   1.1670070e+02
   4.4086040e+02   1.5608410e+02
   4.4134260e+02   1.9763480e+02
   4.4182470e+02   2.4347710e+02
   4.4230680e+02   2.9549720e+02
   4.4278890e+02   3.5485720e+02
   4.4327100e+02   4.1539430e+02
   4.4375310e+02   4.7266280e+02
   4.4423530e+02   5.3120850e+02
   4.4471740e+02   5.9715390e+02
   4.4519950e+02   6.6980760e+02
   4.4568160e+02   7.5064010e+02
   4.4616370e+02   8.4232600e+02
   4.4664580e+02   9.4320070e+02
   4.4712800e+02   1.0462280e+03
   4.4761010e+02   1.1562760e+03
   4.4809220e+02   1.2635360e+03
   4.4857430e+02   1.3587370e+03
   4.4905640e+02   1.4309440e+03
   4.4953850e+02   1.5250210e+03
   4.5002070e+02   1.6504880e+03
   4.5050280e+02   1.7902310e+03
   4.5098490e+02   1.9095910e+03
   4.5146700e+02   2.0031870e+03
   4.5194910e+02   2.0982010e+03
   4.5243120e+02   2.2075370e+03
   4.5291340e+02   2.3281400e+03
   4.5339550e+02   2.4390560e+03
   4.5387760e+02   2.5390480e+03
   4.5435970e+02   2.6354600e+03
   4.5484180e+02   2.7515350e+03
   4.5532390e+02   2.8743170e+03
   4.5580610e+02   2.9443980e+03
   4.5628820e+02   2.9447330e+03
   4.5677030e+02   2.8935700e+03
   4.5725240e+02   2.8054520e+03
   4.5773450e+02   2.6854810e+03
   4.5821660e+02   2.5518040e+03
   4.5869880e+02   2.3972100e+03
   4.5918090e+02   2.2446280e+03
   4.5966300e+02   2.1120120e+03
   4.6014510e+02   1.9956990e+03
   4.6062720e+02   1.9313060e+03
   4.6110930e+02   1.9773020e+03
   4.6159150e+02   2.0772940e+03
   4.6207360e+02   2.1604660e+03
   4.6255570e+02   2.1513400e+03
   4.6303780e+02   2.1724420e+03
   4.6351990e+02   2.2690770e+03
   4.6400200e+02   2.4366860e+03
   4.6448420e+02   2.6409390e+03
   4.6496630e+02   2.8777810e+03
   4.6544840e+02   3.1459780e+03
   4.6593050e+02   3.4468500e+03
   4.6641260e+02   3.7954670e+03
   4.6689470e+02   4.1559250e+03
   4.6737690e+02   4.5217520e+03
   4.6785900e+02   4.9005470e+03
   4.6834110e+02   5.3105920e+03
   4.6882320e+02   5.7537970e+03
   4.6930530e+02   6.2226350e+03
   4.6978740e+02   6.7238520e+03
   4.7026960e+02   7.2555930e+03
   4.7075170e+02   7.7827200e+03
   4.7123380e+02   8.3006020e+03
   4.7171590e+02   8.8234990e+03
   4.7219800e+02   9.3561840e+03
   4.7268010e+02   9.9009680e+03
   4.7316230e+02   1.0453730e+04
   4.7364440e+02   1.1015120e+04
   4.7412650e+02   1.1589950e+04
   4.7460860e+02   1.2198850e+04
   4.7509070e+02   1.2835360e+04
   4.7557280e+02   1.3457530e+04
   4.7605500e+02   1.4089170e+04
   4.7653710e+02   1.4678470e+04
   4.7701920e+02   1.5170310e+04
   4.7750130e+02   1.5567430e+04
   4.7798340e+02   1.5760180e+04
   4.7846550e+02   1.5666160e+04
   4.7894770e+02   1.5314660e+04
   4.7942980e+02   1.4742690e+04
   4.7991190e+02   1.3892690e+04
   4.8039400e+02   1.2903900e+04
   4.8087610e+02   1.1774590e+04
   4.8135820e+02   1.0557120e+04
   4.8184040e+02   9.4158320e+03
   4.8232250e+02   8.3848680e+03
   4.8280460e+02   7.4592320e+03
   4.8328670e+02   6.6265000e+03
   4.8376880e+02   5.8818710e+03
   4.8425090e+02   5.2438360e+03
   4.8473310e+02   4.7363630e+03
   4.8521520e+02   4.3280850e+03
   4.8569730e+02   3.9827040e+03
   4.8617940e+02   3.7039490e+03
   4.8666150e+02   3.4827230e+03
   4.8714360e+02   3.3224110e+03
   4.8762580e+02   3.2174690e+03
   4.8810790e+02   3.1408120e+03
   4.8859000e+02   3.0884920e+03
   4.8907210e+02   3.0770930e+03
   4.8955420e+02   3.1144200e+03
   4.9003630e+02   3.2008630e+03
   4.9051850e+02   3.3388470e+03
   4.9100060e+02   3.5298120e+03
   4.9148270e+02   3.7636950e+03
   4.9196480e+02   4.0138530e+03
   4.9244700e+02   4.2886940e+03
   4.9292910e+02   4.6328120e+03
   4.9341120e+02   5.0619660e+03
   4.9389330e+02   5.5588320e+03
   4.9437540e+02   6.0873990e+03
   4.9485750e+02   6.6536320e+03
   4.9533970e+02   7.2636570e+03
   4.9582180e+02   7.9335430e+03
   4.9630390e+02   8.6554480e+03
   4.9678600e+02   9.4110310e+03
   4.9726810e+02   1.0206500e+04
   4.9775020e+02   1.1038420e+04
   4.9823240e+02   1.1939300e+04
   4.9871450e+02   1.2872400e+04
   4.9919660e+02   1.3804500e+04
   4.9967870e+02   1.4699000e+04
   5.0016080e+02   1.5604790e+04
   5.0064290e+02   1.6541140e+04
   5.0112510e+02   1.7506660e+04
   5.0160720e+02   1.8470290e+04
   5.0208930e+02   1.9423260e+04
   5.0257140e+02   2.0391150e+04
   5.0305350e+02   2.1392400e+04
   5.0353560e+02   2.2448310e+04
   5.0401780e+02   2.3495790e+04
   5.0449990e+02   2.4604300e+04
   5.0498200e+02   2.5631680e+04
   5.0546410e+02   2.6419560e+04
   5.0594620e+02   2.6993540e+04
   5.0642830e+02   2.7192490e+04
   5.0691050e+02   2.6966280e+04
   5.0739260e+02   2.6326430e+04
   5.0787470e+02   2.5267160e+04
   5.0835680e+02   2.3772280e+04
   5.0883890e+02   2.2056150e+04
   5.0932100e+02   2.0125840e+04
   5.0980320e+02   1.8073720e+04
   5.1028530e+02   1.6111420e+04
   5.1076740e+02   1.4250960e+04
   5.1124950e+02   1.2542930e+04
   5.1173160e+02   1.1043000e+04
   5.1221370e+02   9.7284380e+03
   5.1269590e+02   8.5748980e+03
   5.1317800e+02   7.5765960e+03
   5.1366010e+02   6.7161900e+03
   5.1414220e+02   6.0115080e+03
   5.1462430e+02   5.4493990e+03
   5.1510640e+02   4.9434970e+03
   5.1558860e+02   4.4641650e+03
   5.1607070e+02   4.0259750e+03
   5.1655280e+02   3.6436140e+03
   5.1703490e+02   3.3243190e+03
   5.1751700e+02   3.0418310e+03
   5.1799910e+02   2.8110280e+03
   5.1848130e+02   2.6111110e+03
   5.1896340e+02   2.4176720e+03
   5.1944550e+02   2.2233290e+03
   5.1992760e+02   2.0482160e+03
   5.2040970e+02   1.8960940e+03
   5.2089180e+02   1.7680660e+03
   5.2137400e+02   1.6568200e+03
   5.2185610e+02   1.5657610e+03
   5.2233820e+02   1.4802190e+03
   5.2282030e+02   1.3884200e+03
   5.2330240e+02   1.2920310e+03
   5.2378450e+02   1.2074790e+03
   5.2426670e+02   1.1362810e+03
   5.2474880e+02   1.0729350e+03
   5.2523090e+02   1.0091640e+03
   5.2571300e+02   9.4554220e+02
   5.2619510e+02   8.8521020e+02
   5.2667720e+02   8.2676390e+02
   5.2715940e+02   7.7353320e+02
   5.2764150e+02   7.3147020e+02
   5.2812360e+02   6.9926560e+02
   5.2860570e+02   6.7017290e+02
   5.2908780e+02   6.4847390e+02
   5.2956990e+02   6.2342290e+02
   5.3005210e+02   5.8392020e+02
   5.3053420e+02   5.2321310e+02
   5.3101630e+02   4.7091530e+02
   5.3149840e+02   4.4049630e+02
   5.3198050e+02   4.2104760e+02
   5.3246260e+02   4.0077780e+02
   5.3294480e+02   3.7889770e+02
   5.3342690e+02   3.5516360e+02
   5.3390900e+02   3.2826290e+02
   5.3439110e+02   3.0021090e+02
   5.3487320e+02   2.7730710e+02
   5.3535530e+02   2.6000900e+02
   5.3583750e+02   2.4531590e+02
   5.3631960e+02   2.3417750e+02
   5.3680170e+02   2.2659790e+02
   5.3728380e+02   2.0827150e+02
   5.3776590e+02   1.7665010e+02
   5.3824800e+02   1.4460420e+02
   5.3873020e+02   1.2498540e+02
   5.3921230e+02   1.1631490e+02
   5.3969440e+02   1.1095000e+02
   5.4017650e+02   1.0990060e+02
   5.4065860e+02   1.0893240e+02
   5.4114070e+02   9.9148930e+01
   5.4162290e+02   8.2184810e+01
   5.4210500e+02   6.7016600e+01
   5.4258710e+02   5.8477050e+01
   5.4306920e+02   5.4350100e+01
   5.4355130e+02   5.5301510e+01
   5.4403340e+02   6.1380130e+01
   5.4451560e+02   6.3290280e+01
   5.4499770e+02   5.5115480e+01
   5.4547980e+02   4.1756590e+01
   5.4596190e+02   2.7031980e+01
   5.4644400e+02   7.4111330e+00
   5.4692610e+02   6.1779790e+00
   5.4740830e+02   9.7504880e+00
   5.4789040e+02   7.7492680e+00
   5.4837250e+02   6.9323730e+00
   5.4885460e+02   5.1723630e+00
   5.4933670e+02   8.1696780e+00
   5.4981880e+02   2.1473140e+01
   5.5030100e+02   4.3361330e+01
   5.5078310e+02   5.0238040e+01
   5.5126520e+02   3.8412350e+01
   5.5174730e+02   2.2729980e+01
   5.5222940e+02   1.1362550e+01
   5.5271150e+02   4.4863280e+00
   5.5319370e+02   8.0349120e+00
   5.5367580e+02   2.5161130e+01
   5.5415790e+02   4.1938720e+01
   5.5464000e+02   3.5737550e+01
   5.5512210e+02   1.4729980e+01
   5.5560420e+02   3.1335450e+00
   5.5608640e+02   2.0989010e+01
   5.5656850e+02   4.0288570e+01
   5.5705060e+02   2.4571040e+01
   5.5753270e+02   1.5387210e+01
   5.5801480e+02   3.9182860e+01
   5.5849690e+02   9.1547850e+00
   5.5897910e+02   2.9630860e+01
   5.5946120e+02   5.0136470e+01
   5.5994330e+02   4.7257570e+01
   5.6042540e+02   3.7764400e+01
   5.6090750e+02   1.6257080e+01
   5.6138960e+02   5.8562010e+00
   5.6187180e+02   1.8214110e+01
   5.6235390e+02   9.4221190e+00
   5.6283600e+02   1.0905270e+01
   5.6331810e+02   2.9740230e+01
   5.6380020e+02   5.7916020e+01
   5.6428230e+02   7.4438480e+01
   5.6476450e+02   7.5504150e+01
   5.6524660e+02   8.1629880e+01
   5.6572870e+02   1.0261380e+02
   5.6621080e+02   1.3534570e+02
   5.6669290e+02   1.6475050e+02
   5.6717500e+02   1.9051030e+02
   5.6765720e+02   2.1509330e+02
   5.6813930e+02   2.3818290e+02
   5.6862140e+02   2.6159030e+02
   5.6910350e+02   2.8800100e+02
   5.6958560e+02   3.1790380e+02
   5.7006770e+02   3.5149190e+02
   5.7054990e+02   3.9420510e+02
   5.7103200e+02   4.3997530e+02
   5.7151410e+02   4.7948490e+02
   5.7199620e+02   5.0446880e+02
   5.7247830e+02   5.2737960e+02
   5.7296040e+02   5.5067990e+02
   5.7344260e+02   5.7507500e+02
   5.7392470e+02   6.0440870e+02
   5.7440680e+02   6.4694630e+02
   5.7488890e+02   6.8726200e+02
   5.7537100e+02   7.1852780e+02
   5.7585310e+02   7.3823850e+02
   5.7633530e+02   7.6089330e+02
   5.7681740e+02   7.8928880e+02
   5.7729950e+02   8.1617600e+02
   5.7778160e+02   8.3693480e+02
   5.7826370e+02   8.5211550e+02
   5.7874580e+02   8.5387990e+02
   5.7922800e+02   8.4133130e+02
   5.7971010e+02   8.1444970e+02
   5.8019220e+02   7.6941890e+02
   5.8067430e+02   7.0831100e+02
   5.8115640e+02   6.4284200e+02
   5.8163850e+02   5.7477590e+02
   5.8212070e+02   5.0724930e+02
   5.8260280e+02   4.4396130e+02
   5.8308490e+02   3.8566920e+02
   5.8356700e+02   3.3377750e+02
   5.8404910e+02   2.9098160e+02
   5.8453130e+02   2.5389690e+02
   5.8501340e+02   2.2012990e+02
   5.8549550e+02   1.8960840e+02
   5.8597760e+02   1.6172560e+02
   5.8645970e+02   1.3815330e+02
   5.8694180e+02   1.1655650e+02
   5.8742400e+02   9.4222530e+01
   5.8790610e+02   6.3605830e+01
   5.8838820e+02   4.3914790e+01
   5.8887030e+02   4.1630620e+01
   5.8935240e+02   5.0378540e+01
   5.8983450e+02   5.1675780e+01
   5.9031670e+02   4.4610350e+01
   5.9079880e+02   3.3277710e+01
   5.9128090e+02   1.7348880e+01
   5.9176300e+02   1.5760500e+00
   5.9224510e+02   1.4543700e+01
   5.9272720e+02   2.1496700e+01
   5.9320940e+02   2.3994870e+01
   5.9369150e+02   2.9417850e+01
   5.9417360e+02   3.0083250e+01
   5.9465570e+02   2.9154050e+00
   5.9513780e+02   6.4958010e+01
   5.9561990e+02   1.1921580e+02
   5.9610210e+02   1.0792150e+02
   5.9658420e+02   6.0027220e+01
   5.9706630e+02   1.6642940e+01
   5.9754850e+02   1.3458130e+01
   5.9803060e+02   3.1031490e+01
   5.9851270e+02   3.0828740e+01
   5.9899480e+02   1.6682130e+01
   5.9947690e+02   5.0648190e+00
   5.9995900e+02   2.8327640e+00
   6.0044120e+02   8.3389890e+00
   6.0092330e+02   1.1005620e+01
   6.0140540e+02   1.0501710e+01
   6.0188750e+02   1.3597170e+01
   6.0236960e+02   2.2645390e+01
   6.0285170e+02   2.9467040e+01
   6.0333390e+02   2.4208250e+01
   6.0381600e+02   8.1225590e+00
   6.0429810e+02   7.1460000e-01
   6.0478020e+02   8.8708500e-01
   6.0526230e+02   5.7719730e+00
   6.0574440e+02   3.2133790e+00
   6.0622660e+02   3.5253910e+00
   6.0670870e+02   5.4351810e+00
   6.0719080e+02   2.4498290e+00
   6.0767290e+02   1.4112670e+01
   6.0815500e+02   2.8330080e+01
   6.0863710e+02   4.3286990e+01
   6.0911930e+02   5.2676640e+01
   6.0960140e+02   4.5996220e+01
   6.1008350e+02   3.9452270e+01
   6.1056560e+02   4.2301270e+01
   6.1104770e+02   5.6749630e+01
   6.1152980e+02   6.4712160e+01
   6.1201200e+02   5.8377690e+01
   6.1249410e+02   5.3208010e+01
   6.1297620e+02   6.1449580e+01
   6.1345830e+02   8.9360840e+01
   6.1394040e+02   1.0306290e+02
   6.1442250e+02   9.6126830e+01
   6.1490470e+02   8.4346190e+01
   6.1538680e+02   9.0211060e+01
   6.1586890e+02   1.1157810e+02
   6.1635100e+02   1.2925220e+02
   6.1683310e+02   1.3373170e+02
   6.1731520e+02   1.3420810e+02
   6.1779740e+02   1.4866240e+02
   6.1827950e+02   1.7385530e+02
   6.1876160e+02   1.9701890e+02
   6.1924370e+02   2.0546010e+02
   6.1972580e+02   2.1182900e+02
   6.2020790e+02   2.2577400e+02
   6.2069010e+02   2.4765490e+02
   6.2117220e+02   2.7262490e+02
   6.2165430e+02   3.0625560e+02
   6.2213640e+02   3.3814750e+02
   6.2261850e+02   3.6040470e+02
   6.2310060e+02   3.6170950e+02
   6.2358280e+02   3.7224730e+02
   6.2406490e+02   3.9905540e+02
   6.2454700e+02   4.3030030e+02
   6.2502910e+02   4.4891580e+02
   6.2551120e+02   4.5041890e+02
   6.2599330e+02   4.6535990e+02
   6.2647550e+02   5.0325510e+02
   6.2695760e+02   5.5171700e+02
   6.2743970e+02   5.8503300e+02
   6.2792180e+02   6.0522850e+02
   6.2840390e+02   6.2442870e+02
   6.2888600e+02   6.4961900e+02
   6.2936820e+02   6.7537570e+02
   6.2985030e+02   6.9194530e+02
   6.3033240e+02   7.0149080e+02
   6.3081450e+02   7.1754850e+02
   6.3129660e+02   7.6357470e+02
   6.3177870e+02   8.0740990e+02
   6.3226090e+02   8.2243870e+02
   6.3274300e+02   7.9648020e+02
   6.3322510e+02   7.7774340e+02
   6.3370720e+02   7.8295140e+02
   6.3418930e+02   7.9353310e+02
   6.3467140e+02   7.9466780e+02
   6.3515360e+02   7.8214660e+02
   6.3563570e+02   7.7087570e+02
   6.3611780e+02   7.6126480e+02
   6.3659990e+02   7.5403300e+02
   6.3708200e+02   7.5021590e+02
   6.3756410e+02   7.4862830e+02
   6.3804630e+02   7.4927650e+02
   6.3852840e+02   7.5222970e+02
   6.3901050e+02   7.5781520e+02
   6.3949260e+02   7.6766890e+02
   6.3997470e+02   7.8072410e+02
   6.4045680e+02   7.9340040e+02
   6.4093900e+02   7.9942810e+02
   6.4142110e+02   8.0672970e+02
   6.4190320e+02   8.2524630e+02
   6.4238530e+02   8.5557640e+02
   6.4286740e+02   8.8383790e+02
   6.4334950e+02   9.0418800e+02
   6.4383170e+02   9.2097970e+02
   6.4431380e+02   9.3827280e+02
   6.4479590e+02   9.6464280e+02
   6.4527800e+02   9.7412730e+02
   6.4576010e+02   9.5914170e+02
   6.4624220e+02   9.3309620e+02
   6.4672440e+02   9.1408350e+02
   6.4720650e+02   9.0660420e+02
   6.4768860e+02   8.8436130e+02
   6.4817070e+02   8.3974710e+02
   6.4865280e+02   7.8275050e+02
   6.4913490e+02   7.3054100e+02
   6.4961710e+02   6.8251860e+02
   6.5009920e+02   6.3633890e+02
   6.5058130e+02   5.8978080e+02
   6.5106340e+02   5.4427880e+02
   6.5154550e+02   5.0080490e+02
   6.5202760e+02   4.5931050e+02
   6.5250980e+02   4.2160930e+02
   6.5299190e+02   3.8252400e+02
   6.5347400e+02   3.4935140e+02
   6.5395610e+02   3.3134840e+02
   6.5443820e+02   3.3356840e+02
   6.5492030e+02   3.2432260e+02
   6.5540250e+02   2.8664100e+02
   6.5588460e+02   2.4550720e+02
   6.5636670e+02   2.1925780e+02
   6.5684880e+02   2.1467970e+02
   6.5733090e+02   2.0756350e+02
   6.5781300e+02   1.9562700e+02
   6.5829520e+02   1.8267940e+02
   6.5877730e+02   1.7472580e+02
   6.5925940e+02   1.7113500e+02
   6.5974150e+02   1.6685420e+02
   6.6022360e+02   1.6031020e+02
   6.6070570e+02   1.5318760e+02
   6.6118790e+02   1.4917520e+02
   6.6167000e+02   1.4604470e+02
   6.6215210e+02   1.3918400e+02
   6.6263420e+02   1.2041040e+02
   6.6311630e+02   1.0359910e+02
   6.6359840e+02   9.9355350e+01
   6.6408060e+02   1.0576670e+02
   6.6456270e+02   1.0836170e+02
   6.6504480e+02   1.0078710e+02
   6.6552690e+02   9.2357060e+01
   6.6600900e+02   8.7185060e+01
   6.6649110e+02   8.5736210e+01
   6.6697330e+02   8.2030270e+01
   6.6745540e+02   7.4583130e+01
   6.6793750e+02   6.7179200e+01
   6.6841960e+02   6.3989260e+01
   6.6890170e+02   6.4912110e+01
   6.6938390e+02   6.2981200e+01
   6.6986600e+02   5.7150390e+01
   6.7034810e+02   5.0556150e+01
   6.7083020e+02   4.7525020e+01
   6.7131230e+02   4.6443360e+01
   6.7179440e+02   4.3623900e+01
   6.7227660e+02   3.6533940e+01
   6.7275870e+02   2.9737670e+01
   6.7324080e+02   2.5375000e+01
   6.7372290e+02   2.3517820e+01
   6.7420500e+02   2.4207030e+01
   6.7468710e+02   3.1505980e+01
   6.7516930e+02   3.7004640e+01
   6.7565140e+02   3.8193240e+01
   6.7613350e+02   3.5660030e+01
   6.7661560e+02   3.1639530e+01
   6.7709770e+02   2.4201050e+01
   6.7757980e+02   1.9918820e+01
   6.7806200e+02   2.5048220e+01
   6.7854410e+02   3.7496950e+01
   6.7902620e+02   3.1653320e+01
   6.7950830e+02   6.0609130e+00
   6.7999040e+02   1.4622680e+01
   6.8047250e+02   3.6295170e+00
   6.8095470e+02   2.3547000e+01
   6.8143680e+02   4.0251460e+01
   6.8191890e+02   4.2880250e+01
   6.8240100e+02   3.8885250e+01
   6.8288310e+02   2.8265500e+01
   6.8336520e+02   1.5918580e+01
   6.8384740e+02   7.0493160e+00
   6.8432950e+02   6.0489500e+00
   6.8481160e+02   3.4035640e+00
   6.8529370e+02   5.7078860e+00
   6.8577580e+02   1.5669680e+01
   6.8625790e+02   1.8324100e+01
   6.8674010e+02   1.0117310e+01
   6.8722220e+02   4.5025630e+00
   6.8770430e+02   4.5317380e+00
   6.8818640e+02   7.9304200e+00
   6.8866850e+02   9.1516110e+00
   6.8915060e+02   8.3533940e+00
   6.8963280e+02   8.1262210e+00
   6.9011490e+02   1.1461300e+01
   6.9059700e+02   1.4843750e+01
   6.9107910e+02   1.0637700e+01
   6.9156120e+02   6.9494600e-01
   6.9204330e+02   5.4514160e+00
   6.9252550e+02   3.0224600e-01
   6.9300760e+02   8.9444580e+00
   6.9348970e+02   1.6797000e+01
   6.9397180e+02   2.4024170e+01
   6.9445390e+02   2.3397830e+01
   6.9493600e+02   2.6472170e+00
   6.9541820e+02   1.5634770e+01
   6.9590030e+02   1.7791380e+01
   6.9638240e+02   1.8843990e+00
   6.9686450e+02   1.3625240e+01
   6.9734660e+02   1.6500240e+01
   6.9782870e+02   1.3901490e+01
   6.9831090e+02   6.3641360e+00
   6.9879300e+02   4.4393310e+00
   6.9927510e+02   9.0345460e+00
   6.9975720e+02   4.8573000e+00
   7.0023930e+02   2.5883790e+00
   7.0072140e+02   9.3181150e+00
   7.0120360e+02   1.5033940e+01
   7.0168570e+02   1.9270510e+01
   7.0216780e+02   2.3240600e+01
   7.0264990e+02   2.4098020e+01
   7.0313200e+02   1.9379880e+01
   7.0361410e+02   1.0774410e+01
   7.0409630e+02   2.3386230e+00
   7.0457840e+02   7.6143800e+00
   7.0506050e+02   1.4682130e+01
   7.0554260e+02   1.8473140e+01
   7.0602470e+02   1.8617550e+01
   7.0650680e+02   1.0125490e+01
   7.0698900e+02   9.0286870e+00
   7.0747110e+02   2.0201660e+01
   7.0795320e+02   8.0114750e+00
   7.0843530e+02   1.8026980e+01
   7.0891740e+02   3.3626950e+01
   7.0939950e+02   3.9465090e+01
   7.0988170e+02   4.1214840e+01
   7.1036380e+02   3.8301270e+01
   7.1084590e+02   3.5857300e+01
   7.1132800e+02   3.8864140e+01
   7.1181010e+02   4.8365600e+01
   7.1229220e+02   5.8775880e+01
   7.1277440e+02   7.0950930e+01
   7.1325650e+02   8.1762700e+01
   7.1373860e+02   8.9081420e+01
   7.1422070e+02   9.0961180e+01
   7.1470280e+02   9.4616460e+01
   7.1518490e+02   1.0100670e+02
   7.1566710e+02   1.0758230e+02
   7.1614920e+02   1.1365190e+02
   7.1663130e+02   1.1859890e+02
   7.1711340e+02   1.1302360e+02
   7.1759550e+02   9.1734130e+01
   7.1807760e+02   7.1234860e+01
   7.1855980e+02   7.5947750e+01
   7.1904190e+02   9.5784550e+01
   7.1952400e+02   1.1121750e+02
   7.2000610e+02   1.1451010e+02
   7.2048820e+02   1.1297440e+02
   7.2097030e+02   1.0910880e+02
   7.2145250e+02   1.0294430e+02
   7.2193460e+02   9.4563960e+01
   7.2241670e+02   8.4233400e+01
   7.2289880e+02   7.0710570e+01
   7.2338090e+02   4.9863040e+01
   7.2386300e+02   2.6011110e+01
   7.2434520e+02   1.7602540e+01
   7.2482730e+02   2.6014400e+01
   7.2530940e+02   4.0139400e+01
   7.2579150e+02   5.8660280e+01
   7.2627360e+02   7.7732420e+01
   7.2675570e+02   8.5710690e+01
   7.2723790e+02   8.3746580e+01
   7.2772000e+02   8.0932740e+01
   7.2820210e+02   8.4767580e+01
   7.2868420e+02   8.9094360e+01
   7.2916630e+02   8.9323850e+01
   7.2964840e+02   8.5011110e+01
   7.3013060e+02   7.7101560e+01
   7.3061270e+02   5.9324220e+01
   7.3109480e+02   4.3509520e+01
   7.3157690e+02   3.5956050e+01
   7.3205900e+02   3.7915890e+01
   7.3254110e+02   4.3467900e+01
   7.3302330e+02   5.3289180e+01
   7.3350540e+02   6.4987300e+01
   7.3398750e+02   8.0116820e+01
   7.3446960e+02   9.6823850e+01
   7.3495170e+02   9.7698000e+01
   7.3543380e+02   7.8340820e+01
   7.3591600e+02   5.8643070e+01
   7.3639810e+02   5.9871090e+01
   7.3688020e+02   7.3231450e+01
   7.3736230e+02   8.5846190e+01
   7.3784440e+02   9.4084720e+01
   7.3832660e+02   1.0152270e+02
   7.3880870e+02   1.0752640e+02
   7.3929080e+02   1.1313500e+02
   7.3977290e+02   1.2061550e+02
   7.4025510e+02   1.2805570e+02
   7.4073720e+02   1.4123800e+02
   7.4121930e+02   1.6292480e+02
   7.4170140e+02   1.8876540e+02
   7.4218350e+02   2.1043870e+02
   7.4266560e+02   2.2775100e+02
   7.4314780e+02   2.4103170e+02
   7.4362990e+02   2.4699240e+02
   7.4411200e+02   2.5398730e+02
   7.4459410e+02   2.7794090e+02
   7.4507620e+02   3.1429860e+02
   7.4555830e+02   3.4993750e+02
   7.4604050e+02   3.7404860e+02
   7.4652260e+02   3.9923290e+02
   7.4700470e+02   4.2943260e+02
   7.4748680e+02   4.6564160e+02
   7.4796890e+02   5.1224980e+02
   7.4845100e+02   5.7030540e+02
   7.4893320e+02   6.3765160e+02
   7.4941530e+02   7.1459550e+02
   7.4989740e+02   8.0033860e+02
   7.5037950e+02   8.9369020e+02
   7.5086160e+02   9.9436770e+02
   7.5134380e+02   1.0988100e+03
   7.5182590e+02   1.2033210e+03
   7.5230800e+02   1.3101870e+03
   7.5279010e+02   1.4276570e+03
   7.5327220e+02   1.5544360e+03
   7.5375430e+02   1.6890980e+03
   7.5423650e+02   1.8359340e+03
   7.5471860e+02   1.9861620e+03
   7.5520070e+02   2.1311070e+03
   7.5568280e+02   2.2702800e+03
   7.5616490e+02   2.4114210e+03
   7.5664700e+02   2.5561260e+03
   7.5712920e+02   2.7043120e+03
   7.5761130e+02   2.8573760e+03
   7.5809340e+02   3.0168680e+03
   7.5857550e+02   3.1728860e+03
   7.5905760e+02   3.3265350e+03
   7.5953970e+02   3.4780110e+03
   7.6002190e+02   3.6375140e+03
   7.6050400e+02   3.7967730e+03
   7.6098610e+02   3.9271410e+03
   7.6146820e+02   4.0243980e+03
   7.6195030e+02   4.0858850e+03
   7.6243240e+02   4.1228240e+03
   7.6291460e+02   4.1168190e+03
   7.6339670e+02   4.0456170e+03
   7.6387880e+02   3.8849790e+03
   7.6436090e+02   3.6895140e+03
   7.6484300e+02   3.4514850e+03
   7.6532510e+02   3.1926860e+03
   7.6580730e+02   2.9314850e+03
   7.6628940e+02   2.6634770e+03
   7.6677150e+02   2.4098280e+03
   7.6725360e+02   2.1727920e+03
   7.6773570e+02   1.9563140e+03
   7.6821780e+02   1.7675150e+03
   7.6870000e+02   1.6045990e+03
   7.6918210e+02   1.4644820e+03
   7.6966420e+02   1.3472990e+03
   7.7014630e+02   1.2480550e+03
   7.7062840e+02   1.1666170e+03
   7.7111050e+02   1.0994760e+03
   7.7159270e+02   1.0398460e+03
   7.7207480e+02   9.8988260e+02
   7.7255690e+02   9.4227760e+02
   7.7303900e+02   8.9555420e+02
   7.7352110e+02   8.5013670e+02
   7.7400320e+02   8.0767140e+02
   7.7448540e+02   7.6826610e+02
   7.7496750e+02   7.3214380e+02
   7.7544960e+02   7.0228320e+02
   7.7593170e+02   6.7320140e+02
   7.7641380e+02   6.2560860e+02
   7.7689590e+02   5.6402370e+02
   7.7737810e+02   5.1073710e+02
   7.7786020e+02   4.8881710e+02
   7.7834230e+02   4.7113400e+02
   7.7882440e+02   4.3077120e+02
   7.7930650e+02   3.7333370e+02
   7.7978860e+02   3.2357400e+02
   7.8027080e+02   2.8967380e+02
   7.8075290e+02   2.6446120e+02
   7.8123500e+02   2.4680220e+02
   7.8171710e+02   2.3575900e+02
   7.8219920e+02   2.2271800e+02
   7.8268130e+02   2.0775710e+02
   7.8316350e+02   1.9083200e+02
   7.8364560e+02   1.6856180e+02
   7.8412770e+02   1.4488870e+02
   7.8460980e+02   1.3492260e+02
   7.8509190e+02   1.3734160e+02
   7.8557400e+02   1.3854710e+02
   7.8605620e+02   1.2427100e+02
   7.8653830e+02   1.0899120e+02
   7.8702040e+02   1.0678150e+02
   7.8750250e+02   1.1834420e+02
   7.8798460e+02   1.2736300e+02
   7.8846670e+02   1.2761400e+02
   7.8894890e+02   1.2667850e+02
   7.8943100e+02   1.2770850e+02
   7.8991310e+02   1.3084080e+02
   7.9039520e+02   1.3194190e+02
   7.9087730e+02   1.2968480e+02
   7.9135940e+02   1.3152730e+02
   7.9184160e+02   1.4864870e+02
   7.9232370e+02   1.7342720e+02
   7.9280580e+02   1.8147780e+02
   7.9328790e+02   1.7205740e+02
   7.9377000e+02   1.6805350e+02
   7.9425210e+02   1.8981880e+02
   7.9473430e+02   2.2069430e+02
   7.9521640e+02   2.4622710e+02
   7.9569850e+02   2.6270260e+02
   7.9618060e+02   2.8457540e+02
   7.9666270e+02   3.1685110e+02
   7.9714480e+02   3.5111300e+02
   7.9762700e+02   3.7933670e+02
   7.9810910e+02   3.9888400e+02
   7.9859120e+02   4.3425830e+02
   7.9907330e+02   4.8699460e+02
   7.9955540e+02   5.5067430e+02
   8.0003750e+02   6.1697270e+02
   8.0051970e+02   6.8938570e+02
   8.0100180e+02   7.7824190e+02
   8.0148390e+02   8.8619630e+02
   8.0196600e+02   9.9556590e+02
   8.0244810e+02   1.0801890e+03
   8.0293020e+02   1.1709150e+03
   8.0341240e+02   1.2962840e+03
   8.0389450e+02   1.4823070e+03
   8.0437660e+02   1.6539720e+03
   8.0485870e+02   1.8004400e+03
   8.0534080e+02   1.9466750e+03
   8.0582290e+02   2.1155620e+03
   8.0630510e+02   2.3070090e+03
   8.0678720e+02   2.5099990e+03
   8.0726930e+02   2.7271730e+03
   8.0775140e+02   2.9393770e+03
   8.0823350e+02   3.1224130e+03
   8.0871560e+02   3.2915730e+03
   8.0919780e+02   3.4698710e+03
   8.0967990e+02   3.6636180e+03
   8.1016200e+02   3.8610950e+03
   8.1064410e+02   4.0711310e+03
   8.1112620e+02   4.2757240e+03
   8.1160830e+02   4.4569700e+03
   8.1209050e+02   4.6212000e+03
   8.1257260e+02   4.7521790e+03
   8.1305470e+02   4.8503390e+03
   8.1353680e+02   4.9095920e+03
   8.1401890e+02   4.9275580e+03
   8.1450100e+02   4.9032660e+03
   8.1498320e+02   4.8210440e+03
   8.1546530e+02   4.6787730e+03
   8.1594740e+02   4.4802030e+03
   8.1642950e+02   4.2026280e+03
   8.1691160e+02   3.8788830e+03
   8.1739370e+02   3.5448450e+03
   8.1787590e+02   3.1997260e+03
   8.1835800e+02   2.8733910e+03
   8.1884010e+02   2.5771120e+03
   8.1932220e+02   2.3030900e+03
   8.1980430e+02   2.0386000e+03
   8.2028640e+02   1.7764770e+03
   8.2076860e+02   1.5593420e+03
   8.2125070e+02   1.3975720e+03
   8.2173280e+02   1.2672120e+03
   8.2221490e+02   1.1458020e+03
   8.2269700e+02   1.0335560e+03
   8.2317910e+02   9.2799290e+02
   8.2366130e+02   8.2751200e+02
   8.2414340e+02   7.3971120e+02
   8.2462550e+02   6.7420190e+02
   8.2510760e+02   6.2315720e+02
   8.2558970e+02   5.7894070e+02
   8.2607180e+02   5.4724440e+02
   8.2655400e+02   5.1089770e+02
   8.2703610e+02   4.6276000e+02
   8.2751820e+02   4.1770680e+02
   8.2800030e+02   3.9735910e+02
   8.2848240e+02   4.0169070e+02
   8.2896450e+02   3.9838570e+02
   8.2944670e+02   3.8237570e+02
   8.2992880e+02   3.5883470e+02
   8.3041090e+02   3.2580590e+02
   8.3089300e+02   2.9230520e+02
   8.3137510e+02   2.7369210e+02
   8.3185720e+02   2.8260860e+02
   8.3233940e+02   2.8718530e+02
   8.3282150e+02   2.7346460e+02
   8.3330360e+02   2.5134330e+02
   8.3378570e+02   2.3185640e+02
   8.3426780e+02   2.1607450e+02
   8.3474990e+02   2.0029300e+02
   8.3523210e+02   1.8422560e+02
   8.3571420e+02   1.6934200e+02
   8.3619630e+02   1.5952370e+02
   8.3667840e+02   1.5407500e+02
   8.3716050e+02   1.4992990e+02
   8.3764260e+02   1.4690090e+02
   8.3812480e+02   1.4398750e+02
   8.3860690e+02   1.4128830e+02
   8.3908900e+02   1.3727930e+02
   8.3957110e+02   1.3061330e+02
   8.4005320e+02   1.2074220e+02
   8.4053530e+02   1.0930420e+02
   8.4101750e+02   9.2440430e+01
   8.4149960e+02   7.7499760e+01
   8.4198170e+02   7.5087160e+01
   8.4246380e+02   8.5909910e+01
   8.4294590e+02   9.2816890e+01
   8.4342800e+02   9.4438960e+01
   8.4391020e+02   9.0766360e+01
   8.4439230e+02   7.7244140e+01
   8.4487440e+02   5.9858640e+01
   8.4535650e+02   4.9155760e+01
   8.4583860e+02   4.8912600e+01
   8.4632070e+02   4.8430180e+01
   8.4680290e+02   4.3953120e+01
   8.4728500e+02   3.6952150e+01
   8.4776710e+02   2.8090820e+01
   8.4824920e+02   1.3025880e+01
   8.4873130e+02   9.1452640e+00
   8.4921340e+02   2.0961430e+01
   8.4969560e+02   3.3214360e+01
   8.5017770e+02   2.6244380e+01
   8.5065980e+02   6.7263180e+00
   8.5114190e+02   4.6704100e-01
   8.5162400e+02   8.5947270e+00
   8.5210610e+02   1.9656490e+01
   8.5258830e+02   2.3855710e+01
   8.5307040e+02   2.3813230e+01
   8.5355250e+02   2.1548100e+01
   8.5403460e+02   1.6449710e+01
   8.5451670e+02   1.2081050e+01
   8.5499880e+02   9.2805180e+00
   8.5548100e+02   6.4582520e+00
   8.5596310e+02   2.3020020e+00
   8.5644520e+02   3.2468260e+00
   8.5692730e+02   7.2541500e+00
   8.5740940e+02   9.5849610e+00
   8.5789150e+02   1.1174800e+01
   8.5837370e+02   1.3450200e+01
   8.5885580e+02   1.5125730e+01
   8.5933790e+02   1.4454590e+01
   8.5982000e+02   1.1160400e+01
   8.6030210e+02   6.5793460e+00
   8.6078420e+02   9.2456100e-01
   8.6126640e+02   7.7412110e+00
   8.6174850e+02   1.2109620e+01
   8.6223060e+02   1.3758790e+01
   8.6271270e+02   1.3679200e+01
   8.6319480e+02   1.1548100e+01
   8.6367690e+02   7.8369140e+00
   8.6415910e+02   2.6491700e+00
   8.6464120e+02   3.5976560e+00
   8.6512330e+02   1.1292240e+01
   8.6560540e+02   2.0242920e+01
   8.6608750e+02   2.5722410e+01
   8.6656960e+02   2.2824710e+01
   8.6705180e+02   1.7306640e+01
   8.6753390e+02   1.0915040e+01
   8.6801600e+02   3.5866700e+00
   8.6849810e+02   3.8151860e+00
   8.6898020e+02   1.5793950e+01
   8.6946230e+02   2.7773930e+01
   8.6994450e+02   3.6130370e+01
   8.7042660e+02   3.9586550e+01
   8.7090870e+02   2.6501460e+01
   8.7139080e+02   1.7114260e+00
   8.7187290e+02   2.2742680e+01
   8.7235500e+02   1.5850100e+01
   8.7283720e+02   1.0254000e-02
   8.7331930e+02   1.2546630e+01
   8.7380140e+02   2.0264890e+01
   8.7428350e+02   1.9249510e+01
   8.7476560e+02   3.3930660e+00
   8.7524770e+02   1.9051030e+01
   8.7572990e+02   1.8274660e+01
   8.7621200e+02   6.3713380e+00
   8.7669410e+02   2.4770510e+00
   8.7717620e+02   6.7333980e+00
   8.7765830e+02   1.3468510e+01
   8.7814040e+02   2.3023440e+01
   8.7862260e+02   3.0784910e+01
   8.7910470e+02   2.9284180e+01
   8.7958690e+02   2.1030760e+01
   8.8006900e+02   1.2463870e+01
   8.8055110e+02   2.1513670e+00
   8.8103320e+02   3.5908200e+00
   8.8151530e+02   8.9282200e-01
   8.8199740e+02   6.8283690e+00
   8.8247960e+02   1.4018550e+01
   8.8296170e+02   2.1502930e+01
   8.8344380e+02   2.2830080e+01
   8.8392590e+02   1.4252930e+01
   8.8440800e+02   3.3737790e+00
   8.8489010e+02   3.4687500e+00
   8.8537230e+02   1.0577640e+01
   8.8585440e+02   1.5542720e+01
   8.8633650e+02   1.2312500e+01
   8.8681860e+02   1.1006590e+01
   8.8730070e+02   2.0802730e+01
   8.8778280e+02   3.3118160e+01
   8.8826500e+02   3.5095460e+01
   8.8874710e+02   2.0104980e+01
   8.8922920e+02   1.2635990e+01
   8.8971130e+02   1.6004150e+01
   8.9019340e+02   2.4359860e+01
   8.9067550e+02   3.4226560e+01
   8.9115770e+02   4.2887940e+01
   8.9163980e+02   3.9137700e+01
   8.9212190e+02   1.7765380e+01
   8.9260400e+02   4.3115200e-01
   8.9308610e+02   8.4077150e+00
   8.9356820e+02   2.4042480e+01
   8.9405040e+02   3.0362550e+01
   8.9453250e+02   2.0273440e+01
   8.9501460e+02   1.2497560e+01
   8.9549670e+02   6.4201660e+00
   8.9597880e+02   3.7780760e+00
   8.9646090e+02   8.6894530e+00
   8.9694310e+02   1.9238040e+01
   8.9742520e+02   2.0956540e+01
   8.9790730e+02   1.2959470e+01
   8.9838940e+02   8.5380860e+00
   8.9887150e+02   2.3879150e+01
   8.9935360e+02   4.2748290e+01
   8.9983580e+02   5.0573730e+01
   9.0031790e+02   4.4945310e+01
   9.0080000e+02   4.0913330e+01
   9.0128210e+02   4.1985350e+01
   9.0176420e+02   4.1989990e+01
   9.0224630e+02   3.6301760e+01
   9.0272850e+02   2.6644040e+01
   9.0321060e+02   2.8859130e+01
   9.0369270e+02   4.2316650e+01
   9.0417480e+02   5.0809570e+01
   9.0465690e+02   3.6502690e+01
   9.0513900e+02   1.8375240e+01
   9.0562120e+02   1.6821530e+01
   9.0610330e+02   2.8851320e+01
   9.0658540e+02   3.9766110e+01
   9.0706750e+02   4.4812260e+01
   9.0754960e+02   4.9070800e+01
   9.0803170e+02   5.3910890e+01
   9.0851390e+02   5.8719480e+01
   9.0899600e+02   6.1033940e+01
   9.0947810e+02   6.0853270e+01
   9.0996020e+02   6.2822270e+01
   9.1044230e+02   7.2069820e+01
   9.1092440e+02   7.8531980e+01
   9.1140660e+02   6.2836430e+01
   9.1188870e+02   3.6850340e+01
   9.1237080e+02   2.2262940e+01
   9.1285290e+02   3.9933350e+01
   9.1333500e+02   5.2462400e+01
   9.1381710e+02   5.0268070e+01
   9.1429930e+02   4.1799560e+01
   9.1478140e+02   3.7631590e+01
   9.1526350e+02   3.7976070e+01
   9.1574560e+02   4.1298580e+01
   9.1622770e+02   4.8389400e+01
   9.1670980e+02   5.3809080e+01
   9.1719200e+02   5.1147710e+01
   9.1767410e+02   4.3042480e+01
   9.1815620e+02   3.1936040e+01
   9.1863830e+02   1.6377690e+01
   9.1912040e+02   5.2060550e+00
   9.1960250e+02   1.3652340e+00
   9.2008470e+02   2.9287110e+00
   9.2056680e+02   1.0646480e+01
   9.2104890e+02   2.6691890e+01
   9.2153100e+02   3.1719480e+01
   9.2201310e+02   2.4502690e+01
   9.2249520e+02   1.6278080e+01
   9.2297740e+02   1.7580320e+01
   9.2345950e+02   2.2506840e+01
   9.2394160e+02   2.2745610e+01
   9.2442370e+02   1.8484860e+01
   9.2490580e+02   1.3573240e+01
   9.2538790e+02   5.9641110e+00
   9.2587010e+02   1.9890140e+00
   9.2635220e+02   5.1433110e+00
   9.2683430e+02   1.3402100e+01
   9.2731640e+02   1.6779300e+01
   9.2779850e+02   1.5637210e+01
   9.2828060e+02   8.9287110e+00
   9.2876280e+02   6.8151860e+00
   9.2924490e+02   2.2799070e+01
   9.2972700e+02   2.7540770e+01
   9.3020910e+02   2.4062010e+01
   9.3069120e+02   2.0831300e+01
   9.3117330e+02   2.4152100e+01
   9.3165550e+02   2.5463620e+01
   9.3213760e+02   1.9410640e+01
   9.3261970e+02   8.9399410e+00
   9.3310180e+02   3.0439450e+00
   9.3358390e+02   3.1936040e+00
   9.3406600e+02   1.7573240e+00
   9.3454820e+02   1.6211910e+01
   9.3503030e+02   2.9842530e+01
   9.3551240e+02   2.5431880e+01
   9.3599450e+02   1.1375730e+01
   9.3647660e+02   2.8886720e+00
   9.3695870e+02   5.5324710e+00
   9.3744090e+02   8.0202640e+00
   9.3792300e+02   2.9770510e+00
   9.3840510e+02   1.1113280e+00
   9.3888720e+02   4.1914060e+00
   9.3936930e+02   2.2706050e+01
   9.3985140e+02   3.2076900e+01
   9.4033360e+02   3.1420650e+01
   9.4081570e+02   2.5480960e+01
   9.4129780e+02   1.3081300e+01
   9.4177990e+02   2.5634800e-01
   9.4226200e+02   3.3166500e+00
   9.4274410e+02   2.9245610e+00
   9.4322630e+02   1.0573490e+01
   9.4370840e+02   1.8218260e+01
   9.4419050e+02   2.3654300e+01
   9.4467260e+02   2.5334960e+01
   9.4515470e+02   2.4377200e+01
   9.4563680e+02   2.6685550e+01
   9.4611900e+02   3.2532230e+01
   9.4660110e+02   3.5946780e+01
   9.4708320e+02   3.0282960e+01
   9.4756530e+02   2.5259030e+01
   9.4804740e+02   3.8196530e+01
   9.4852950e+02   6.1399900e+01
   9.4901170e+02   7.7139160e+01
   9.4949380e+02   7.4040530e+01
   9.4997590e+02   6.9009520e+01
   9.5045800e+02   6.2063720e+01
   9.5094010e+02   5.7544920e+01
   9.5142220e+02   6.2683840e+01
   9.5190440e+02   7.7416020e+01
   9.5238650e+02   8.4152100e+01
   9.5286860e+02   7.8828860e+01
   9.5335070e+02   7.0597170e+01
   9.5383280e+02   6.7569090e+01
   9.5431490e+02   6.8826900e+01
   9.5479710e+02   7.3227780e+01
   9.5527920e+02   8.0747310e+01
   9.5576130e+02   8.8798580e+01
   9.5624340e+02   1.0024560e+02
   9.5672550e+02   1.0880760e+02
   9.5720760e+02   1.0616480e+02
   9.5768980e+02   9.3028810e+01
   9.5817190e+02   9.9167970e+01
   9.5865400e+02   1.2439820e+02
   9.5913610e+02   1.5199510e+02
   9.5961820e+02   1.7236940e+02
   9.6010030e+02   1.8860230e+02
   9.6058250e+02   2.0290870e+02
   9.6106460e+02   2.1565550e+02
   9.6154670e+02   2.2797000e+02
   9.6202880e+02   2.4016360e+02
   9.6251090e+02   2.5125590e+02
   9.6299300e+02   2.5879570e+02
   9.6347520e+02   2.6647240e+02
   9.6395730e+02   2.8156690e+02
   9.6443940e+02   3.0417770e+02
   9.6492150e+02   3.3801200e+02
   9.6540360e+02   3.8877370e+02
   9.6588570e+02   4.4233330e+02
   9.6636790e+02   4.8434590e+02
   9.6685000e+02   5.2349610e+02
   9.6733210e+02   5.7231030e+02
   9.6781420e+02   6.4299240e+02
   9.6829630e+02   7.0169870e+02
   9.6877840e+02   7.4152000e+02
   9.6926060e+02   7.8208330e+02
   9.6974270e+02   8.4698000e+02
   9.7022480e+02   9.2878320e+02
   9.7070690e+02   1.0009270e+03
   9.7118900e+02   1.0611040e+03
   9.7167110e+02   1.1184450e+03
   9.7215330e+02   1.1731440e+03
   9.7263540e+02   1.2310390e+03
   9.7311750e+02   1.3005640e+03
   9.7359960e+02   1.3809970e+03
   9.7408170e+02   1.4424890e+03
   9.7456380e+02   1.4816930e+03
   9.7504600e+02   1.5137660e+03
   9.7552810e+02   1.5462510e+03
   9.7601020e+02   1.5748910e+03
   9.7649230e+02   1.5939270e+03
   9.7697440e+02   1.6015610e+03
   9.7745650e+02   1.5934850e+03
   9.7793870e+02   1.5717170e+03
   9.7842080e+02   1.5301360e+03
   9.7890290e+02   1.4589820e+03
   9.7938500e+02   1.3696090e+03
   9.7986710e+02   1.2735390e+03
   9.8034920e+02   1.1686570e+03
   9.8083140e+02   1.0729000e+03
   9.8131350e+02   9.8928960e+02
   9.8179560e+02   9.0885620e+02
   9.8227770e+02   8.1467920e+02
   9.8275980e+02   7.1927540e+02
   9.8324190e+02   6.4240140e+02
   9.8372410e+02   5.8892190e+02
   9.8420620e+02   5.3751760e+02
   9.8468830e+02   4.8190700e+02
   9.8517040e+02   4.2646680e+02
   9.8565250e+02   3.6891310e+02
   9.8613460e+02   3.1137010e+02
   9.8661680e+02   2.8021240e+02
   9.8709890e+02   2.7425630e+02
   9.8758100e+02   2.7028340e+02
   9.8806310e+02   2.5649560e+02
   9.8854520e+02   2.3766060e+02
   9.8902730e+02   2.1178390e+02
   9.8950950e+02   1.8447170e+02
   9.8999160e+02   1.7087770e+02
   9.9047370e+02   1.8894560e+02
   9.9095580e+02   1.9645970e+02
   9.9143790e+02   1.8388670e+02
   9.9192000e+02   1.6472730e+02
   9.9240220e+02   1.5935210e+02
   9.9288430e+02   1.6547360e+02
   9.9336640e+02   1.7291970e+02
   9.9384850e+02   1.7948020e+02
   9.9433060e+02   1.8900420e+02
   9.9481270e+02   2.0568680e+02
   9.9529490e+02   2.2550680e+02
   9.9577700e+02   2.4531130e+02
   9.9625910e+02   2.6495040e+02
   9.9674120e+02   2.8332500e+02
   9.9722330e+02   3.0000830e+02
   9.9770540e+02   3.1618430e+02
   9.9818760e+02   3.2747240e+02
   9.9866970e+02   3.4072780e+02
   9.9915180e+02   3.8198460e+02
   9.9963390e+02   4.4269070e+02
   1.0001160e+03   4.8676050e+02
   1.0005980e+03   4.7826460e+02
   1.0010800e+03   4.7119460e+02
   1.0015620e+03   4.8516110e+02
   1.0020440e+03   5.1314180e+02
   1.0025270e+03   5.4526070e+02
   1.0030090e+03   5.8191580e+02
   1.0034910e+03   6.1255810e+02
   1.0039730e+03   6.3394950e+02
   1.0044550e+03   6.4980960e+02
   1.0049370e+03   6.6537010e+02
   1.0054190e+03   6.7800070e+02
   1.0059010e+03   6.8247850e+02
   1.0063840e+03   6.7636820e+02
   1.0068660e+03   6.7017110e+02
   1.0073480e+03   6.6819410e+02
   1.0078300e+03   6.6328150e+02
   1.0083120e+03   6.4594560e+02
   1.0087940e+03   6.1937040e+02
   1.0092760e+03   6.0819730e+02
   1.0097580e+03   6.1170430e+02
   1.0102400e+03   6.1907790e+02
   1.0107230e+03   6.2904100e+02
   1.0112050e+03   6.3590700e+02
   1.0116870e+03   6.3520610e+02
   1.0121690e+03   6.2855620e+02
   1.0126510e+03   6.2092630e+02
   1.0131330e+03   6.1265190e+02
   1.0136150e+03   6.0282910e+02
   1.0140970e+03   5.9137500e+02
   1.0145800e+03   5.7812130e+02
   1.0150620e+03   5.6122800e+02
   1.0155440e+03   5.4301780e+02
   1.0160260e+03   5.2954830e+02
   1.0165080e+03   5.2384350e+02
   1.0169900e+03   5.1171900e+02
   1.0174720e+03   4.7155640e+02
   1.0179540e+03   4.3880490e+02
   1.0184360e+03   4.3735420e+02
   1.0189190e+03   4.6525120e+02
   1.0194010e+03   4.7559470e+02
   1.0198830e+03   4.6831810e+02
   1.0203650e+03   4.6816410e+02
   1.0208470e+03   4.9770630e+02
   1.0213290e+03   5.3426680e+02
   1.0218110e+03   5.5480740e+02
   1.0222930e+03   5.6455150e+02
   1.0227760e+03   5.7668850e+02
   1.0232580e+03   5.8865500e+02
   1.0237400e+03   6.1193770e+02
   1.0242220e+03   6.4876250e+02
   1.0247040e+03   6.9566970e+02
   1.0251860e+03   7.5087840e+02
   1.0256680e+03   8.1209840e+02
   1.0261500e+03   8.7068800e+02
   1.0266320e+03   9.2600760e+02
   1.0271150e+03   9.7515820e+02
   1.0275970e+03   1.0168090e+03
   1.0280790e+03   1.0510610e+03
   1.0285610e+03   1.0749980e+03
   1.0290430e+03   1.0896100e+03
   1.0295250e+03   1.1182160e+03
   1.0300070e+03   1.1634470e+03
   1.0304890e+03   1.1973730e+03
   1.0309720e+03   1.2075380e+03
   1.0314540e+03   1.1986360e+03
   1.0319360e+03   1.1698720e+03
   1.0324180e+03   1.1280950e+03
   1.0329000e+03   1.0884960e+03
   1.0333820e+03   1.0639690e+03
   1.0338640e+03   1.0296620e+03
   1.0343460e+03   9.8439480e+02
   1.0348280e+03   9.2772510e+02
   1.0353110e+03   8.5183540e+02
   1.0357930e+03   7.6154490e+02
   1.0362750e+03   6.9670360e+02
   1.0367570e+03   6.6007540e+02
   1.0372390e+03   6.2643360e+02
   1.0377210e+03   5.7801250e+02
   1.0382030e+03   5.2585470e+02
   1.0386850e+03   4.7395310e+02
   1.0391670e+03   4.2438550e+02
   1.0396500e+03   3.9252830e+02
   1.0401320e+03   3.8373490e+02
   1.0406140e+03   3.6900170e+02
   1.0410960e+03   3.3424190e+02
   1.0415780e+03   2.9669380e+02
   1.0420600e+03   2.9098170e+02
   1.0425420e+03   3.0171610e+02
   1.0430240e+03   2.9879910e+02
   1.0435070e+03   2.6121880e+02
   1.0439890e+03   2.3417310e+02
   1.0444710e+03   2.3104000e+02
   1.0449530e+03   2.3431520e+02
   1.0454350e+03   2.3167090e+02
   1.0459170e+03   2.2334470e+02
   1.0463990e+03   2.1142240e+02
   1.0468810e+03   1.9605710e+02
   1.0473640e+03   1.7884990e+02
   1.0478460e+03   1.5838650e+02
   1.0483280e+03   1.3875170e+02
   1.0488100e+03   1.2355660e+02
   1.0492920e+03   1.1181010e+02
   1.0497740e+03   9.8301760e+01
   1.0502560e+03   8.2073970e+01
   1.0507380e+03   6.6901370e+01
   1.0512200e+03   5.2800780e+01
   1.0517030e+03   4.2052980e+01
   1.0521850e+03   4.1385500e+01
   1.0526670e+03   4.5497800e+01
   1.0531490e+03   4.5644040e+01
   1.0536310e+03   3.9840580e+01
   1.0541130e+03   3.1188960e+01
   1.0545950e+03   1.6606450e+01
   1.0550770e+03   3.9650880e+00
   1.0555590e+03   9.3505900e-01
   1.0560420e+03   3.1982001e-02
   1.0565240e+03   1.0316650e+01
   1.0570060e+03   2.9837160e+01
   1.0574880e+03   4.2631840e+01
   1.0579700e+03   3.2596190e+01
   1.0584520e+03   2.0744870e+01
   1.0589340e+03   2.0774900e+01
   1.0594160e+03   2.7909910e+01
   1.0598990e+03   3.3454590e+01
   1.0603810e+03   3.8605220e+01
   1.0608630e+03   3.5825680e+01
   1.0613450e+03   2.2685060e+01
   1.0618270e+03   9.2646480e+00
   1.0623090e+03   9.4533690e+00
   1.0627910e+03   1.4190920e+01
   1.0632730e+03   5.5673830e+00
   1.0637550e+03   1.7246830e+01
   1.0642380e+03   2.5939700e+01
   1.0647200e+03   4.7082520e+00
   1.0652020e+03   2.7653560e+01
   1.0656840e+03   2.7107910e+01
   1.0661660e+03   1.0982910e+01
   1.0666480e+03   1.3771970e+00
   1.0671300e+03   9.8054200e+00
   1.0676120e+03   1.3753420e+01
   1.0680940e+03   1.0423580e+01
   1.0685770e+03   8.8574220e+00
   1.0690590e+03   1.4506590e+01
   1.0695410e+03   2.4673830e+01
   1.0700230e+03   3.6574950e+01
   1.0705050e+03   5.0062260e+01
   1.0709870e+03   6.7709230e+01
   1.0714690e+03   9.0611820e+01
   1.0719510e+03   1.0916260e+02
   1.0724340e+03   1.1563940e+02
   1.0729160e+03   1.1512480e+02
   1.0733980e+03   1.1052250e+02
   1.0738800e+03   1.0385890e+02
   1.0743620e+03   1.0160690e+02
   1.0748440e+03   1.0442360e+02
   1.0753260e+03   1.1325710e+02
   1.0758080e+03   1.2970630e+02
   1.0762910e+03   1.4983860e+02
   1.0767730e+03   1.6765450e+02
   1.0772550e+03   1.8481740e+02
   1.0777370e+03   2.0705490e+02
   1.0782190e+03   2.3528300e+02
   1.0787010e+03   2.6083300e+02
   1.0791830e+03   2.7577950e+02
   1.0796650e+03   2.8989060e+02
   1.0801470e+03   3.0731320e+02
   1.0806300e+03   3.2818730e+02
   1.0811120e+03   3.5379640e+02
   1.0815940e+03   3.8411740e+02
   1.0820760e+03   4.1854470e+02
   1.0825580e+03   4.5783300e+02
   1.0830400e+03   4.9923780e+02
   1.0835220e+03   5.3877860e+02
   1.0840040e+03   5.7962770e+02
   1.0844860e+03   6.2539940e+02
   1.0849690e+03   6.7329910e+02
   1.0854510e+03   7.3778560e+02
   1.0859330e+03   8.2189160e+02
   1.0864150e+03   9.0899580e+02
   1.0868970e+03   9.8043310e+02
   1.0873790e+03   1.0491330e+03
   1.0878610e+03   1.1388520e+03
   1.0883430e+03   1.2468550e+03
   1.0888260e+03   1.3598630e+03
   1.0893080e+03   1.4731940e+03
   1.0897900e+03   1.5892010e+03
   1.0902720e+03   1.7059290e+03
   1.0907540e+03   1.8279110e+03
   1.0912360e+03   1.9655800e+03
   1.0917180e+03   2.1153990e+03
   1.0922000e+03   2.2622030e+03
   1.0926820e+03   2.4025840e+03
   1.0931650e+03   2.5390920e+03
   1.0936470e+03   2.6795980e+03
   1.0941290e+03   2.8099800e+03
   1.0946110e+03   2.9185300e+03
   1.0950930e+03   3.0092990e+03
   1.0955750e+03   3.1165620e+03
   1.0960570e+03   3.2421040e+03
   1.0965390e+03   3.3397380e+03
   1.0970220e+03   3.3882760e+03
   1.0975040e+03   3.4063000e+03
   1.0979860e+03   3.4099650e+03
   1.0984680e+03   3.3954070e+03
   1.0989500e+03   3.3555540e+03
   1.0994320e+03   3.2803330e+03
   1.0999140e+03   3.2051050e+03
   1.1003960e+03   3.1360530e+03
   1.1008790e+03   3.0515390e+03
   1.1013610e+03   2.9244530e+03
   1.1018430e+03   2.7770530e+03
   1.1023250e+03   2.6479660e+03
   1.1028070e+03   2.5344550e+03
   1.1032890e+03   2.4273350e+03
   1.1037710e+03   2.3327730e+03
   1.1042530e+03   2.2280790e+03
   1.1047350e+03   2.1010170e+03
   1.1052180e+03   1.9708300e+03
   1.1057000e+03   1.8644060e+03
   1.1061820e+03   1.7789540e+03
   1.1066640e+03   1.7060670e+03
   1.1071460e+03   1.6439400e+03
   1.1076280e+03   1.5946710e+03
   1.1081100e+03   1.5677960e+03
   1.1085920e+03   1.5450250e+03
   1.1090740e+03   1.5158770e+03
   1.1095570e+03   1.4823220e+03
   1.1100390e+03   1.4562520e+03
   1.1105210e+03   1.4376510e+03
   1.1110030e+03   1.4083340e+03
   1.1114850e+03   1.3580410e+03
   1.1119670e+03   1.3116610e+03
   1.1124490e+03   1.2977130e+03
   1.1129310e+03   1.2985920e+03
   1.1134140e+03   1.2983960e+03
   1.1138960e+03   1.2992740e+03
   1.1143780e+03   1.2740310e+03
   1.1148600e+03   1.2152640e+03
   1.1153420e+03   1.1558750e+03
   1.1158240e+03   1.1190920e+03
   1.1163060e+03   1.0920940e+03
   1.1167880e+03   1.0539050e+03
   1.1172710e+03   1.0073420e+03
   1.1177530e+03   9.6085600e+02
   1.1182350e+03   9.2451070e+02
   1.1187170e+03   8.7582100e+02
   1.1191990e+03   8.0813920e+02
   1.1196810e+03   7.3914940e+02
   1.1201630e+03   6.8767430e+02
   1.1206450e+03   6.4782420e+02
   1.1211270e+03   6.0219950e+02
   1.1216090e+03   5.5064670e+02
   1.1220920e+03   5.0435010e+02
   1.1225740e+03   4.7248460e+02
   1.1230560e+03   4.4236180e+02
   1.1235380e+03   4.0907930e+02
   1.1240200e+03   3.7713940e+02
   1.1245020e+03   3.5864210e+02
   1.1249840e+03   3.5037550e+02
   1.1254660e+03   3.2264310e+02
   1.1259490e+03   2.6837940e+02
   1.1264310e+03   2.2010520e+02
   1.1269130e+03   2.0467850e+02
   1.1273950e+03   2.0047360e+02
   1.1278770e+03   1.9290550e+02
   1.1283590e+03   1.8240310e+02
   1.1288410e+03   1.7641920e+02
   1.1293230e+03   1.7536130e+02
   1.1298060e+03   1.6661500e+02
   1.1302880e+03   1.4164790e+02
   1.1307700e+03   1.1535080e+02
   1.1312520e+03   9.9791750e+01
   1.1317340e+03   9.2912110e+01
   1.1322160e+03   9.5000490e+01
   1.1326980e+03   1.1376000e+02
   1.1331800e+03   1.0817380e+02
   1.1336620e+03   7.1543460e+01
   1.1341450e+03   3.9019040e+01
   1.1346270e+03   3.8265620e+01
   1.1351090e+03   5.1656490e+01
   1.1355910e+03   5.1128170e+01
   1.1360730e+03   4.2292970e+01
   1.1365550e+03   3.9733890e+01
   1.1370370e+03   5.2624760e+01
   1.1375190e+03   6.3148440e+01
   1.1380010e+03   7.0159910e+01
   1.1384840e+03   7.4088870e+01
   1.1389660e+03   7.2810550e+01
   1.1394480e+03   6.9216060e+01
   1.1399300e+03   6.7802490e+01
   1.1404120e+03   6.9017090e+01
   1.1408940e+03   7.1557130e+01
   1.1413760e+03   7.7449950e+01
   1.1418580e+03   8.0495120e+01
   1.1423410e+03   7.5805910e+01
   1.1428230e+03   7.1015870e+01
   1.1433050e+03   8.5318120e+01
   1.1437870e+03   1.1307100e+02
   1.1442690e+03   1.2522710e+02
   1.1447510e+03   1.1499760e+02
   1.1452330e+03   1.1122680e+02
   1.1457150e+03   1.4246700e+02
   1.1461980e+03   1.7304880e+02
   1.1466800e+03   1.8073950e+02
   1.1471620e+03   1.7145800e+02
   1.1476440e+03   1.6893600e+02
   1.1481260e+03   1.7322090e+02
   1.1486080e+03   1.8629000e+02
   1.1490900e+03   2.1337990e+02
   1.1495720e+03   2.3746880e+02
   1.1500540e+03   2.4926760e+02
   1.1505360e+03   2.4973950e+02
   1.1510190e+03   2.3394310e+02
   1.1515010e+03   2.0015430e+02
   1.1519830e+03   1.9290310e+02
   1.1524650e+03   2.1357450e+02
   1.1529470e+03   2.2755790e+02
   1.1534290e+03   2.1187060e+02
   1.1539110e+03   1.8679440e+02
   1.1543930e+03   1.6874150e+02
   1.1548760e+03   1.5563180e+02
   1.1553580e+03   1.4438990e+02
   1.1558400e+03   1.3655880e+02
   1.1563220e+03   1.2495070e+02
   1.1568040e+03   1.0900780e+02
   1.1572860e+03   9.1869870e+01
   1.1577680e+03   7.2960210e+01
   1.1582500e+03   5.5797120e+01
   1.1587330e+03   4.8915770e+01
   1.1592150e+03   5.0065430e+01
   1.1596970e+03   4.9016850e+01
   1.1601790e+03   4.0938960e+01
   1.1606610e+03   3.8579590e+01
   1.1611430e+03   4.5417720e+01
   1.1616250e+03   5.2862550e+01
   1.1621070e+03   4.9471680e+01
   1.1625890e+03   4.0047610e+01
   1.1630720e+03   3.2652830e+01
   1.1635540e+03   2.8628910e+01
   1.1640360e+03   3.0335450e+01
   1.1645180e+03   4.8565430e+01
   1.1650000e+03   5.3959720e+01
   1.1654820e+03   3.4415280e+01
   1.1659640e+03   6.7563480e+00
   1.1664460e+03   4.2426760e+00
   1.1669280e+03   1.6843020e+01
   1.1674110e+03   2.0986080e+01
   1.1678930e+03   1.0656740e+01
   1.1683750e+03   4.3425290e+00
   1.1688570e+03   1.1734860e+01
   1.1693390e+03   2.0125490e+01
   1.1698210e+03   2.6406980e+01
   1.1703030e+03   2.8855220e+01
   1.1707850e+03   1.9097900e+01
   1.1712680e+03   1.4006350e+00
   1.1717500e+03   1.0101320e+01
   1.1722320e+03   8.1420900e+00
   1.1727140e+03   6.6342770e+00
   1.1731960e+03   1.6172360e+01
   1.1736780e+03   2.2468990e+01
   1.1741600e+03   1.4036380e+01
   1.1746420e+03   5.6523440e+00
   1.1751250e+03   1.2117190e+01
   1.1756070e+03   7.6625980e+00
   1.1760890e+03   4.7539060e+00
   1.1765710e+03   1.1273440e+01
   1.1770530e+03   1.7741210e+01
   1.1775350e+03   2.0345950e+01
   1.1780170e+03   2.1112550e+01
   1.1784990e+03   2.2657960e+01
   1.1789810e+03   2.4908200e+01
   1.1794640e+03   1.9280030e+01
   1.1799460e+03   6.3269040e+00
   1.1804280e+03   3.5361330e+00
   1.1809100e+03   5.5566400e-01
   1.1813920e+03   3.6477050e+00
   1.1818740e+03   9.4702100e-01
   1.1823560e+03   6.2226560e+00
   1.1828380e+03   3.7656250e+00
   1.1833200e+03   3.0090330e+01
   1.1838030e+03   3.9475590e+01
   1.1842850e+03   2.8949710e+01
   1.1847670e+03   1.4308590e+01
   1.1852490e+03   4.4951170e+00
   1.1857310e+03   2.6169430e+00
   1.1862130e+03   9.7531740e+00
   1.1866950e+03   1.4871340e+01
   1.1871770e+03   1.0359130e+01
   1.1876600e+03   4.7751460e+00
   1.1881420e+03   1.4448490e+01
   1.1886240e+03   1.4814940e+01
   1.1891060e+03   1.2257810e+01
   1.1895880e+03   1.4807370e+01
   1.1900700e+03   1.8291750e+01
   1.1905520e+03   1.8916990e+01
   1.1910340e+03   1.7051270e+01
   1.1915160e+03   1.7221190e+01
   1.1919990e+03   1.9957280e+01
   1.1924810e+03   1.9208250e+01
   1.1929630e+03   1.3007080e+01
   1.1934450e+03   4.5480960e+00
   1.1939270e+03   9.3310550e+00
   1.1944090e+03   1.9550540e+01
   1.1948910e+03   1.1652100e+01
   1.1953730e+03   1.5550780e+01
   1.1958550e+03   2.0530030e+01
   1.1963380e+03   1.0153810e+00
   1.1968200e+03   1.4131590e+01
   1.1973020e+03   1.5058590e+00
   1.1977840e+03   1.7438720e+01
   1.1982660e+03   2.3906490e+01
   1.1987480e+03   2.2796140e+01
   1.1992300e+03   1.8377930e+01
   1.1997120e+03   9.3718260e+00
   1.2001950e+03   1.1291500e+01
   1.2006770e+03   2.6032230e+01
   1.2011590e+03   3.8624510e+01
   1.2016410e+03   4.1827150e+01
   1.2021230e+03   3.7835690e+01
   1.2026050e+03   2.2015870e+01
   1.2030870e+03   3.2954100e+00
   1.2035690e+03   2.9345700e+00
   1.2040520e+03   1.0232670e+01
   1.2045340e+03   1.7794920e+01
   1.2050160e+03   1.8545410e+01
   1.2054980e+03   2.1265620e+01
   1.2059800e+03   4.1035160e+01
   1.2064620e+03   5.8831790e+01
   1.2069440e+03   4.4464110e+01
   1.2074260e+03   1.2463620e+01
   1.2079080e+03   1.8703610e+00
   1.2083910e+03   1.3319580e+01
   1.2088730e+03   1.8502930e+01
   1.2093550e+03   1.0096920e+01
   1.2098370e+03   2.4584960e+00
   1.2103190e+03   1.2033940e+01
   1.2108010e+03   2.5656490e+01
   1.2112830e+03   2.6082520e+01
   1.2117650e+03   1.7292480e+01
   1.2122470e+03   1.5376710e+01
   1.2127300e+03   2.4903320e+01
   1.2132120e+03   3.0711430e+01
   1.2136940e+03   3.1345210e+01
   1.2141760e+03   2.7496830e+01
   1.2146580e+03   1.0162350e+01
   1.2151400e+03   4.3867190e+00
   1.2156220e+03   1.0336180e+01
   1.2161040e+03   4.8092290e+01
   1.2165870e+03   6.4971440e+01
   1.2170690e+03   5.2849120e+01
   1.2175510e+03   4.0073730e+01
   1.2180330e+03   3.1089360e+01
   1.2185150e+03   2.3070560e+01
   1.2189970e+03   7.7749020e+00
   1.2194790e+03   4.8461910e+00
   1.2199610e+03   1.9018600e-01
   1.2204430e+03   2.2294430e+01
   1.2209260e+03   3.5663820e+01
   1.2214080e+03   3.7356690e+01
   1.2218900e+03   3.7781010e+01
   1.2223720e+03   3.9331300e+01
   1.2228540e+03   4.0416500e+01
   1.2233360e+03   3.7817140e+01
   1.2238180e+03   3.4514160e+01
   1.2243000e+03   3.5406980e+01
   1.2247820e+03   4.1092290e+01
   1.2252650e+03   3.8774410e+01
   1.2257470e+03   2.6184810e+01
   1.2262290e+03   1.5995120e+01
   1.2267110e+03   1.1470460e+01
   1.2271930e+03   1.2608640e+01
   1.2276750e+03   2.4610110e+01
   1.2281570e+03   3.9241940e+01
   1.2286390e+03   4.5638430e+01
   1.2291220e+03   4.1714360e+01
   1.2296040e+03   4.1415530e+01
   1.2300860e+03   4.6893800e+01
   1.2305680e+03   4.7361820e+01
   1.2310500e+03   3.3962400e+01
   1.2315320e+03   2.1450440e+01
   1.2320140e+03   3.6681640e+01
   1.2324960e+03   5.8652100e+01
   1.2329790e+03   5.4568850e+01
   1.2334610e+03   1.7167240e+01
   1.2339430e+03   8.9208980e+00
   1.2344250e+03   3.3177980e+01
   1.2349070e+03   5.3606450e+01
   1.2353890e+03   5.0645260e+01
   1.2358710e+03   4.0558110e+01
   1.2363530e+03   3.8750730e+01
   1.2368350e+03   3.9992190e+01
   1.2373180e+03   3.5718260e+01
   1.2378000e+03   2.3229250e+01
   1.2382820e+03   2.6470700e+01
   1.2387640e+03   4.7058840e+01
   1.2392460e+03   6.1527100e+01
   1.2397280e+03   5.0824220e+01
   1.2402100e+03   3.5168950e+01
   1.2406920e+03   2.8625980e+01
   1.2411750e+03   3.0364010e+01
   1.2416570e+03   4.1095460e+01
   1.2421390e+03   6.4417240e+01
   1.2426210e+03   7.3041500e+01
   1.2431030e+03   6.5829830e+01
   1.2435850e+03   5.8458740e+01
   1.2440670e+03   6.6368900e+01
   1.2445490e+03   6.7763920e+01
   1.2450310e+03   3.3769290e+01
   1.2455140e+03   6.7216800e+00
   1.2459960e+03   1.1786620e+01
   1.2464780e+03   2.2162110e+01
   1.2469600e+03   4.2747070e+01
   1.2474420e+03   5.3515870e+01
   1.2479240e+03   5.7958250e+01
   1.2484060e+03   4.7777830e+01
   1.2488880e+03   4.2931640e+01
   1.2493700e+03   6.0048340e+01
   1.2498530e+03   7.9615970e+01
   1.2503350e+03   7.2656740e+01
   1.2508170e+03   4.0315920e+01
   1.2512990e+03   2.8166260e+01
   1.2517810e+03   3.6393310e+01
   1.2522630e+03   4.1539310e+01
   1.2527450e+03   1.5251950e+01
   1.2532270e+03   3.7795410e+00
   1.2537100e+03   7.1220700e+00
   1.2541920e+03   3.0111330e+01
   1.2546740e+03   3.9215580e+01
   1.2551560e+03   3.7824460e+01
   1.2556380e+03   4.5045410e+01
   1.2561200e+03   6.0596440e+01
   1.2566020e+03   6.8791750e+01
   1.2570840e+03   4.9163090e+01
   1.2575670e+03   3.3949950e+01
   1.2580490e+03   3.7170410e+01
   1.2585310e+03   4.9347410e+01
   1.2590130e+03   6.5733640e+01
   1.2594950e+03   7.9857670e+01
   1.2599770e+03   6.9416990e+01
   1.2604590e+03   3.5815190e+01
   1.2609410e+03   1.1891110e+01
   1.2614230e+03   1.8870120e+01
   1.2619060e+03   3.1212650e+01
   1.2623880e+03   4.6519530e+01
   1.2628700e+03   5.8500490e+01
   1.2633520e+03   5.5170900e+01
   1.2638340e+03   4.3421140e+01
   1.2643160e+03   3.6707280e+01
   1.2647980e+03   3.5888180e+01
   1.2652800e+03   3.4478270e+01
   1.2657620e+03   3.0767330e+01
   1.2662450e+03   2.4844730e+01
   1.2667270e+03   1.3648190e+01
   1.2672090e+03   6.4682620e+00
   1.2676910e+03   1.9367190e+01
   1.2681730e+03   4.1415770e+01
   1.2686550e+03   5.6589360e+01
   1.2691370e+03   6.3370360e+01
   1.2696190e+03   5.9323000e+01
   1.2701020e+03   3.8460210e+01
   1.2705840e+03   2.4869630e+01
   1.2710660e+03   2.4312990e+01
   1.2715480e+03   3.0190190e+01
   1.2720300e+03   3.7780760e+01
   1.2725120e+03   4.2806640e+01
   1.2729940e+03   4.2592290e+01
   1.2734760e+03   4.0322510e+01
   1.2739580e+03   3.8203370e+01
   1.2744410e+03   3.6625240e+01
   1.2749230e+03   3.3712400e+01
   1.2754050e+03   2.8713130e+01
   1.2758870e+03   2.3938960e+01
   1.2763690e+03   1.8058840e+01
   1.2768510e+03   1.6455080e+01
   1.2773330e+03   2.5368160e+01
   1.2778150e+03   4.1499020e+01
   1.2782970e+03   4.4207280e+01
   1.2787800e+03   3.2698970e+01
   1.2792620e+03   2.5270750e+01
   1.2797440e+03   2.6629150e+01
   1.2802260e+03   2.9856930e+01
   1.2807080e+03   2.9453610e+01
   1.2811900e+03   2.9055420e+01
   1.2816720e+03   3.3291260e+01
   1.2821540e+03   3.9411130e+01
   1.2826370e+03   3.4148680e+01
   1.2831190e+03   1.9430180e+01
   1.2836010e+03   1.4664060e+01
   1.2840830e+03   2.5376460e+01
   1.2845650e+03   3.7162600e+01
   1.2850470e+03   4.6698970e+01
   1.2855290e+03   4.8337650e+01
   1.2860110e+03   3.7645260e+01
   1.2864940e+03   1.9625980e+01
   1.2869760e+03   5.7827150e+00
   1.2874580e+03   3.2805180e+00
   1.2879400e+03   4.0766600e+00
   1.2884220e+03   5.0075680e+00
   1.2889040e+03   1.4777100e+01
   1.2893860e+03   2.5021730e+01
   1.2898680e+03   3.0484380e+01
   1.2903500e+03   2.7517580e+01
   1.2908330e+03   2.1335210e+01
   1.2913150e+03   2.4060060e+01
   1.2917970e+03   3.0853270e+01
   1.2922790e+03   3.1509770e+01
   1.2927610e+03   2.3355710e+01
   1.2932430e+03   1.6148190e+01
   1.2937250e+03   6.5979000e+00
   1.2942070e+03   6.6779790e+00
   1.2946890e+03   1.9846680e+01
   1.2951720e+03   3.4149900e+01
   1.2956540e+03   2.6000240e+01
   1.2961360e+03   1.1621340e+01
   1.2966180e+03   1.7804440e+01
   1.2971000e+03   5.1029540e+01
   1.2975820e+03   5.3757320e+01
   1.2980640e+03   1.9501220e+01
   1.2985460e+03   1.3720700e-01
   1.2990290e+03   0.0000000e+00
   1.5000000e+03   0.0000000e+00
