   1.0000000e+02   0.0000000e+00
   1.2784120e+02   0.0000000e+00
   1.2832330e+02   3.8818400e-01
   1.2880540e+02   4.0894002e-02
   1.2928750e+02   1.4570310e+01
   1.2976960e+02   3.5291630e+01
   1.3025180e+02   4.8839480e+01
   1.3073390e+02   6.1631590e+01
   1.3121600e+02   6.2512330e+01
   1.3169810e+02   4.9031680e+01
   1.3218020e+02   2.3453800e+01
   1.3266230e+02   3.6575930e+00
   1.3314450e+02   5.2683110e+00
   1.3362660e+02   3.6856690e+00
   1.3410870e+02   8.4574580e+00
   1.3459080e+02   3.2832090e+01
   1.3507290e+02   6.3338680e+01
   1.3555500e+02   9.3478150e+01
   1.3603720e+02   1.2417670e+02
   1.3651930e+02   1.4623940e+02
   1.3700140e+02   1.4686380e+02
   1.3748350e+02   1.2232240e+02
   1.3796560e+02   1.2497360e+02
   1.3844770e+02   1.7058500e+02
   1.3892990e+02   2.4154350e+02
   1.3941200e+02   2.7359990e+02
   1.3989410e+02   2.5556240e+02
   1.4037620e+02   2.2371390e+02
   1.4085830e+02   2.0555210e+02
   1.4134040e+02   2.0539180e+02
   1.4182260e+02   2.0554160e+02
   1.4230470e+02   2.0261460e+02
   1.4278680e+02   1.9650040e+02
   1.4326890e+02   1.9300560e+02
   1.4375100e+02   1.9526870e+02
   1.4423310e+02   1.9753890e+02
   1.4471520e+02   1.9184970e+02
   1.4519740e+02   1.7278330e+02
   1.4567950e+02   1.5418600e+02
   1.4616160e+02   1.3943380e+02
   1.4664370e+02   1.2823820e+02
   1.4712580e+02   1.2166480e+02
   1.4760790e+02   1.1933390e+02
   1.4809010e+02   1.2161850e+02
   1.4857220e+02   1.2976890e+02
   1.4905430e+02   1.5196240e+02
   1.4953640e+02   1.7285770e+02
   1.5001850e+02   1.8562350e+02
   1.5050060e+02   1.8278160e+02
   1.5098280e+02   1.8067150e+02
   1.5146490e+02   1.8153690e+02
   1.5194700e+02   1.8477090e+02
   1.5242910e+02   1.8345510e+02
   1.5291120e+02   1.6381480e+02
   1.5339330e+02   1.4677750e+02
   1.5387550e+02   1.4696180e+02
   1.5435760e+02   1.9434640e+02
   1.5483970e+02   2.3119930e+02
   1.5532180e+02   2.4247140e+02
   1.5580390e+02   2.2420940e+02
   1.5628600e+02   2.0466940e+02
   1.5676820e+02   1.8400830e+02
   1.5725030e+02   1.6613990e+02
   1.5773240e+02   1.5591090e+02
   1.5821450e+02   1.6303380e+02
   1.5869660e+02   1.7149740e+02
   1.5917870e+02   1.7408390e+02
   1.5966090e+02   1.6675150e+02
   1.6014300e+02   1.6058070e+02
   1.6062510e+02   1.6077150e+02
   1.6110720e+02   1.6478960e+02
   1.6158930e+02   1.6672720e+02
   1.6207140e+02   1.6669320e+02
   1.6255360e+02   1.6264030e+02
   1.6303570e+02   1.5292310e+02
   1.6351780e+02   1.3287110e+02
   1.6399990e+02   1.1188840e+02
   1.6448200e+02   9.3999390e+01
   1.6496410e+02   7.8885500e+01
   1.6544630e+02   6.5205930e+01
   1.6592840e+02   5.0355470e+01
   1.6641050e+02   3.7127200e+01
   1.6689260e+02   2.8553220e+01
   1.6737470e+02   2.2247070e+01
   1.6785680e+02   2.3340580e+01
   1.6833900e+02   3.3813110e+01
   1.6882110e+02   5.3261840e+01
   1.6930320e+02   8.5849120e+01
   1.6978530e+02   1.6019210e+02
   1.7026740e+02   2.4810660e+02
   1.7074950e+02   3.0034170e+02
   1.7123170e+02   2.6118770e+02
   1.7171380e+02   1.9079970e+02
   1.7219590e+02   1.4804750e+02
   1.7267800e+02   1.4150260e+02
   1.7316010e+02   1.5452980e+02
   1.7364220e+02   1.8227640e+02
   1.7412440e+02   2.2058680e+02
   1.7460650e+02   2.5526350e+02
   1.7508860e+02   2.7741020e+02
   1.7557070e+02   2.9121410e+02
   1.7605280e+02   3.0363560e+02
   1.7653490e+02   3.1889870e+02
   1.7701710e+02   3.2901320e+02
   1.7749920e+02   3.2128940e+02
   1.7798130e+02   2.9739010e+02
   1.7846340e+02   2.7120530e+02
   1.7894550e+02   2.5418990e+02
   1.7942760e+02   2.4296310e+02
   1.7990980e+02   2.2924770e+02
   1.8039190e+02   2.0811890e+02
   1.8087400e+02   1.8428870e+02
   1.8135610e+02   1.6390920e+02
   1.8183820e+02   1.4709440e+02
   1.8232030e+02   1.3461540e+02
   1.8280250e+02   1.3100310e+02
   1.8328460e+02   1.3381670e+02
   1.8376670e+02   1.3296220e+02
   1.8424880e+02   1.2039560e+02
   1.8473090e+02   1.0079210e+02
   1.8521300e+02   8.9038700e+01
   1.8569510e+02   8.6223140e+01
   1.8617730e+02   8.5808720e+01
   1.8665940e+02   7.7060420e+01
   1.8714150e+02   6.0911500e+01
   1.8762360e+02   4.7342900e+01
   1.8810570e+02   4.2895630e+01
   1.8858780e+02   4.6584720e+01
   1.8907000e+02   5.2036380e+01
   1.8955210e+02   5.9233400e+01
   1.9003420e+02   6.5372310e+01
   1.9051630e+02   6.3323850e+01
   1.9099840e+02   5.3289180e+01
   1.9148050e+02   4.4843380e+01
   1.9196270e+02   4.3687740e+01
   1.9244480e+02   4.9587280e+01
   1.9292690e+02   6.2248050e+01
   1.9340900e+02   8.4841190e+01
   1.9389110e+02   1.1279590e+02
   1.9437320e+02   1.3015420e+02
   1.9485540e+02   1.3525790e+02
   1.9533750e+02   1.3930480e+02
   1.9581960e+02   1.5533130e+02
   1.9630170e+02   1.8358180e+02
   1.9678380e+02   2.0576590e+02
   1.9726590e+02   2.1386950e+02
   1.9774810e+02   2.1096840e+02
   1.9823020e+02   2.1808980e+02
   1.9871230e+02   2.3739210e+02
   1.9919440e+02   2.6112900e+02
   1.9967650e+02   2.8059220e+02
   2.0015860e+02   2.9616370e+02
   2.0064080e+02   3.0951720e+02
   2.0112290e+02   3.1943360e+02
   2.0160500e+02   3.2614640e+02
   2.0208710e+02   3.3722300e+02
   2.0256920e+02   3.5396780e+02
   2.0305130e+02   3.7313130e+02
   2.0353350e+02   3.8943020e+02
   2.0401560e+02   4.0356100e+02
   2.0449770e+02   4.1731090e+02
   2.0497980e+02   4.3183400e+02
   2.0546190e+02   4.4737100e+02
   2.0594400e+02   4.6118640e+02
   2.0642620e+02   4.7292920e+02
   2.0690830e+02   4.8304770e+02
   2.0739040e+02   4.9332420e+02
   2.0787250e+02   5.0415450e+02
   2.0835460e+02   5.1291490e+02
   2.0883670e+02   5.1778360e+02
   2.0931890e+02   5.1866690e+02
   2.0980100e+02   5.1787020e+02
   2.1028310e+02   5.1511670e+02
   2.1076520e+02   5.1080220e+02
   2.1124730e+02   5.0789700e+02
   2.1172940e+02   5.0634010e+02
   2.1221160e+02   5.0643990e+02
   2.1269370e+02   5.1024130e+02
   2.1317580e+02   5.2198390e+02
   2.1365790e+02   5.2350390e+02
   2.1414000e+02   5.1072380e+02
   2.1462210e+02   4.8436120e+02
   2.1510430e+02   4.6087550e+02
   2.1558640e+02   4.4211500e+02
   2.1606850e+02   4.2565730e+02
   2.1655060e+02   4.0903890e+02
   2.1703270e+02   3.9261270e+02
   2.1751480e+02   3.7466670e+02
   2.1799700e+02   3.5363890e+02
   2.1847910e+02   3.2928860e+02
   2.1896120e+02   3.0846150e+02
   2.1944330e+02   2.9174340e+02
   2.1992540e+02   2.7810290e+02
   2.2040750e+02   2.6719750e+02
   2.2088970e+02   2.6201260e+02
   2.2137180e+02   2.5322200e+02
   2.2185390e+02   2.3580680e+02
   2.2233600e+02   2.0516520e+02
   2.2281810e+02   1.8745900e+02
   2.2330020e+02   1.8937830e+02
   2.2378240e+02   2.0023330e+02
   2.2426450e+02   2.0000680e+02
   2.2474660e+02   1.8226100e+02
   2.2522870e+02   1.6454570e+02
   2.2571080e+02   1.5503650e+02
   2.2619290e+02   1.5697640e+02
   2.2667500e+02   1.5443210e+02
   2.2715720e+02   1.4753530e+02
   2.2763930e+02   1.3764230e+02
   2.2812140e+02   1.2785550e+02
   2.2860350e+02   1.1842420e+02
   2.2908560e+02   1.0886840e+02
   2.2956770e+02   9.8303340e+01
   2.3004990e+02   8.3866330e+01
   2.3053200e+02   7.5465330e+01
   2.3101410e+02   7.5664310e+01
   2.3149620e+02   8.2324460e+01
   2.3197830e+02   8.7192630e+01
   2.3246040e+02   9.1464230e+01
   2.3294260e+02   9.2317990e+01
   2.3342470e+02   8.6772830e+01
   2.3390680e+02   6.8420900e+01
   2.3438890e+02   5.7481570e+01
   2.3487100e+02   5.9407470e+01
   2.3535310e+02   7.2102660e+01
   2.3583530e+02   7.5763310e+01
   2.3631740e+02   6.5822510e+01
   2.3679950e+02   5.2076170e+01
   2.3728160e+02   4.1355220e+01
   2.3776370e+02   3.3031010e+01
   2.3824580e+02   2.9191530e+01
   2.3872800e+02   3.2012570e+01
   2.3921010e+02   4.1338380e+01
   2.3969220e+02   4.5943120e+01
   2.4017430e+02   4.2731690e+01
   2.4065640e+02   3.7865110e+01
   2.4113850e+02   3.7732420e+01
   2.4162070e+02   4.7606810e+01
   2.4210280e+02   5.2616210e+01
   2.4258490e+02   4.8184940e+01
   2.4306700e+02   3.3183590e+01
   2.4354910e+02   2.3484380e+01
   2.4403130e+02   2.2844360e+01
   2.4451340e+02   2.4369750e+01
   2.4499550e+02   1.9296880e+01
   2.4547760e+02   1.7113040e+00
   2.4595970e+02   1.2276250e+01
   2.4644180e+02   1.8988040e+01
   2.4692400e+02   1.7958500e+01
   2.4740610e+02   1.1477910e+01
   2.4788820e+02   4.9885250e+00
   2.4837030e+02   2.3596800e+01
   2.4885240e+02   3.2579710e+01
   2.4933450e+02   2.8064820e+01
   2.4981670e+02   2.0519780e+01
   2.5029880e+02   1.2222530e+01
   2.5078090e+02   2.2458500e+00
   2.5126300e+02   4.6778560e+00
   2.5174510e+02   7.2927250e+00
   2.5222720e+02   7.5709230e+00
   2.5270940e+02   9.4316410e+00
   2.5319150e+02   1.5365600e+01
   2.5367360e+02   1.8634400e+01
   2.5415570e+02   1.6163820e+01
   2.5463780e+02   5.5223390e+00
   2.5511990e+02   3.6188960e+00
   2.5560210e+02   1.2342410e+01
   2.5608420e+02   1.8992920e+01
   2.5656630e+02   1.8813600e+01
   2.5704840e+02   7.3492430e+00
   2.5753050e+02   3.1911620e+00
   2.5801260e+02   6.3698730e+00
   2.5849480e+02   2.6358640e+00
   2.5897690e+02   4.4675290e+00
   2.5945900e+02   6.0045170e+00
   2.5994110e+02   2.1969360e+01
   2.6042320e+02   2.3060420e+01
   2.6090530e+02   5.9643600e-01
   2.6138750e+02   2.0901610e+01
   2.6186960e+02   2.8439450e+01
   2.6235170e+02   1.7725100e+01
   2.6283380e+02   5.8106690e+00
   2.6331590e+02   8.0147710e+00
   2.6379800e+02   2.2130000e+01
   2.6428020e+02   3.0411130e+01
   2.6476230e+02   3.1936400e+01
   2.6524440e+02   2.9664310e+01
   2.6572650e+02   2.3890380e+01
   2.6620860e+02   1.2448850e+01
   2.6669070e+02   6.5361330e+00
   2.6717290e+02   9.8182370e+00
   2.6765500e+02   1.8895750e+01
   2.6813710e+02   2.0393550e+01
   2.6861920e+02   1.2615840e+01
   2.6910130e+02   1.0621340e+00
   2.6958340e+02   1.4117920e+01
   2.7006560e+02   3.6921630e+01
   2.7054770e+02   4.2004390e+01
   2.7102980e+02   1.7833980e+01
   2.7151190e+02   2.5135250e+01
   2.7199400e+02   3.9003050e+01
   2.7247610e+02   1.4764770e+01
   2.7295830e+02   1.5937130e+01
   2.7344040e+02   2.8528320e+01
   2.7392250e+02   1.9279910e+01
   2.7440460e+02   1.2624020e+01
   2.7488670e+02   1.3451780e+01
   2.7536880e+02   1.9505980e+01
   2.7585100e+02   1.9795040e+01
   2.7633310e+02   1.2809570e+01
   2.7681520e+02   4.6081540e+00
   2.7729730e+02   4.9755900e-01
   2.7777940e+02   9.3139600e-01
   2.7826150e+02   9.3225100e-01
   2.7874370e+02   1.2032470e+00
   2.7922580e+02   4.4022220e+00
   2.7970790e+02   3.3281250e+00
   2.8019000e+02   2.7093510e+00
   2.8067210e+02   1.0369020e+01
   2.8115420e+02   1.9660280e+01
   2.8163640e+02   3.1088870e+01
   2.8211850e+02   3.0843140e+01
   2.8260060e+02   8.9217530e+00
   2.8308270e+02   2.5588870e+01
   2.8356480e+02   3.1246340e+01
   2.8404690e+02   3.4340820e+00
   2.8452910e+02   2.9247190e+01
   2.8501120e+02   3.1632320e+01
   2.8549330e+02   5.2054440e+00
   2.8597540e+02   1.3706050e+00
   2.8645750e+02   4.6696780e+01
   2.8693960e+02   1.2077890e+02
   2.8742170e+02   1.4743020e+02
   2.8790380e+02   1.2201180e+02
   2.8838600e+02   8.2510740e+01
   2.8886810e+02   6.5091920e+01
   2.8935020e+02   6.7731450e+01
   2.8983230e+02   7.0859380e+01
   2.9031440e+02   6.8427860e+01
   2.9079650e+02   6.2711790e+01
   2.9127870e+02   6.1071410e+01
   2.9176080e+02   6.3940550e+01
   2.9224290e+02   6.5959350e+01
   2.9272500e+02   5.8708010e+01
   2.9320710e+02   4.4765380e+01
   2.9368920e+02   3.7173580e+01
   2.9417140e+02   4.3074580e+01
   2.9465350e+02   5.6825680e+01
   2.9513560e+02   6.6630620e+01
   2.9561770e+02   7.2455440e+01
   2.9609980e+02   7.6394530e+01
   2.9658190e+02   7.9959590e+01
   2.9706410e+02   8.3255860e+01
   2.9754620e+02   8.6416260e+01
   2.9802830e+02   8.8168820e+01
   2.9851040e+02   9.0510860e+01
   2.9899250e+02   9.7259030e+01
   2.9947460e+02   1.0847750e+02
   2.9995680e+02   1.2143460e+02
   3.0043890e+02   1.3530510e+02
   3.0092100e+02   1.4916700e+02
   3.0140310e+02   1.6121260e+02
   3.0188520e+02   1.6900950e+02
   3.0236730e+02   1.7546840e+02
   3.0284950e+02   1.8581490e+02
   3.0333160e+02   1.9945420e+02
   3.0381370e+02   2.1019920e+02
   3.0429580e+02   2.0977940e+02
   3.0477790e+02   2.0425520e+02
   3.0526000e+02   2.0390750e+02
   3.0574220e+02   2.1254380e+02
   3.0622430e+02   2.2804830e+02
   3.0670640e+02   2.5373620e+02
   3.0718850e+02   2.8903960e+02
   3.0767060e+02   3.1806710e+02
   3.0815270e+02   3.2350670e+02
   3.0863490e+02   3.1693710e+02
   3.0911700e+02   3.1454300e+02
   3.0959910e+02   3.0915660e+02
   3.1008120e+02   3.2018160e+02
   3.1056330e+02   3.7938120e+02
   3.1104540e+02   4.8301510e+02
   3.1152760e+02   5.6323780e+02
   3.1200970e+02   5.5823550e+02
   3.1249180e+02   5.1596730e+02
   3.1297390e+02   4.8920720e+02
   3.1345600e+02   5.1244080e+02
   3.1393810e+02   5.4243460e+02
   3.1442030e+02   5.5238270e+02
   3.1490240e+02   5.4417690e+02
   3.1538450e+02   5.4139000e+02
   3.1586660e+02   5.6160450e+02
   3.1634870e+02   5.9092160e+02
   3.1683080e+02   6.1518630e+02
   3.1731300e+02   6.2776330e+02
   3.1779510e+02   6.3544200e+02
   3.1827720e+02   6.3952980e+02
   3.1875930e+02   6.4185450e+02
   3.1924140e+02   6.4650620e+02
   3.1972350e+02   6.6174780e+02
   3.2020570e+02   6.7631470e+02
   3.2068780e+02   6.8129300e+02
   3.2116990e+02   6.6008290e+02
   3.2165200e+02   6.4256910e+02
   3.2213410e+02   6.3767500e+02
   3.2261620e+02   6.4490160e+02
   3.2309840e+02   6.5500120e+02
   3.2358050e+02   6.6261250e+02
   3.2406260e+02   6.7524130e+02
   3.2454470e+02   6.9745830e+02
   3.2502680e+02   7.4206380e+02
   3.2550890e+02   7.8162890e+02
   3.2599110e+02   8.1046640e+02
   3.2647320e+02   8.2998320e+02
   3.2695530e+02   8.5317080e+02
   3.2743740e+02   8.8054470e+02
   3.2791950e+02   9.1086890e+02
   3.2840160e+02   9.4366410e+02
   3.2888380e+02   9.7744780e+02
   3.2936590e+02   1.0141360e+03
   3.2984800e+02   1.0548140e+03
   3.3033010e+02   1.1012410e+03
   3.3081220e+02   1.1512800e+03
   3.3129430e+02   1.2039220e+03
   3.3177650e+02   1.2601340e+03
   3.3225860e+02   1.3205810e+03
   3.3274070e+02   1.3866740e+03
   3.3322280e+02   1.4549720e+03
   3.3370490e+02   1.5281090e+03
   3.3418700e+02   1.6037630e+03
   3.3466920e+02   1.6712960e+03
   3.3515130e+02   1.7219800e+03
   3.3563340e+02   1.7796650e+03
   3.3611550e+02   1.8601760e+03
   3.3659760e+02   1.9748930e+03
   3.3707970e+02   2.0776630e+03
   3.3756190e+02   2.1628020e+03
   3.3804400e+02   2.2355240e+03
   3.3852610e+02   2.3061370e+03
   3.3900820e+02   2.3718010e+03
   3.3949030e+02   2.4430050e+03
   3.3997240e+02   2.5233380e+03
   3.4045460e+02   2.6131240e+03
   3.4093670e+02   2.7157590e+03
   3.4141880e+02   2.8374490e+03
   3.4190090e+02   2.9691210e+03
   3.4238300e+02   3.0846630e+03
   3.4286510e+02   3.1809570e+03
   3.4334730e+02   3.2860780e+03
   3.4382940e+02   3.4163400e+03
   3.4431150e+02   3.5711830e+03
   3.4479360e+02   3.7228470e+03
   3.4527570e+02   3.8659430e+03
   3.4575780e+02   4.0188260e+03
   3.4624000e+02   4.2327810e+03
   3.4672210e+02   4.5006770e+03
   3.4720420e+02   4.7454820e+03
   3.4768630e+02   4.9019820e+03
   3.4816840e+02   5.0030520e+03
   3.4865050e+02   5.1608240e+03
   3.4913270e+02   5.3866090e+03
   3.4961480e+02   5.6455530e+03
   3.5009690e+02   5.9099150e+03
   3.5057900e+02   6.1759630e+03
   3.5106110e+02   6.4298380e+03
   3.5154320e+02   6.6759830e+03
   3.5202540e+02   6.9009640e+03
   3.5250750e+02   7.0858650e+03
   3.5298960e+02   7.2279680e+03
   3.5347170e+02   7.3378460e+03
   3.5395380e+02   7.4312210e+03
   3.5443590e+02   7.4990850e+03
   3.5491810e+02   7.5204110e+03
   3.5540020e+02   7.4672460e+03
   3.5588230e+02   7.3758050e+03
   3.5636440e+02   7.2953250e+03
   3.5684650e+02   7.2271660e+03
   3.5732860e+02   7.0991920e+03
   3.5781080e+02   6.8192620e+03
   3.5829290e+02   6.4634460e+03
   3.5877500e+02   6.1259980e+03
   3.5925710e+02   5.8539350e+03
   3.5973920e+02   5.5987990e+03
   3.6022130e+02   5.3313880e+03
   3.6070350e+02   5.0532860e+03
   3.6118560e+02   4.7919380e+03
   3.6166770e+02   4.5628110e+03
   3.6214980e+02   4.3545940e+03
   3.6263190e+02   4.1547290e+03
   3.6311400e+02   3.9521260e+03
   3.6359620e+02   3.7651250e+03
   3.6407830e+02   3.6002280e+03
   3.6456040e+02   3.4564770e+03
   3.6504250e+02   3.3275540e+03
   3.6552460e+02   3.2134400e+03
   3.6600670e+02   3.1107340e+03
   3.6648890e+02   3.0175390e+03
   3.6697100e+02   2.9383570e+03
   3.6745310e+02   2.8649810e+03
   3.6793520e+02   2.7945870e+03
   3.6841730e+02   2.7283910e+03
   3.6889940e+02   2.6744900e+03
   3.6938150e+02   2.6519370e+03
   3.6986360e+02   2.6274250e+03
   3.7034580e+02   2.5868340e+03
   3.7082790e+02   2.5175610e+03
   3.7131000e+02   2.4541500e+03
   3.7179210e+02   2.3952500e+03
   3.7227420e+02   2.3407470e+03
   3.7275630e+02   2.2926180e+03
   3.7323850e+02   2.2581360e+03
   3.7372060e+02   2.2213360e+03
   3.7420270e+02   2.1738590e+03
   3.7468480e+02   2.1101840e+03
   3.7516690e+02   2.0577200e+03
   3.7564900e+02   2.0207530e+03
   3.7613120e+02   1.9903370e+03
   3.7661330e+02   1.9510650e+03
   3.7709540e+02   1.9016490e+03
   3.7757750e+02   1.8491730e+03
   3.7805960e+02   1.7956380e+03
   3.7854170e+02   1.7415770e+03
   3.7902390e+02   1.6808970e+03
   3.7950600e+02   1.6129860e+03
   3.7998810e+02   1.5428680e+03
   3.8047020e+02   1.4767540e+03
   3.8095230e+02   1.4141250e+03
   3.8143440e+02   1.3567230e+03
   3.8191660e+02   1.3083490e+03
   3.8239870e+02   1.2649930e+03
   3.8288080e+02   1.2100500e+03
   3.8336290e+02   1.1435720e+03
   3.8384500e+02   1.0776330e+03
   3.8432710e+02   1.0251110e+03
   3.8480930e+02   9.8173680e+02
   3.8529140e+02   9.3761550e+02
   3.8577350e+02   8.8816700e+02
   3.8625560e+02   8.3926020e+02
   3.8673770e+02   8.0270680e+02
   3.8721980e+02   7.7748990e+02
   3.8770200e+02   7.5190820e+02
   3.8818410e+02   7.1404490e+02
   3.8866620e+02   6.7121190e+02
   3.8914830e+02   6.3403450e+02
   3.8963040e+02   6.0894280e+02
   3.9011250e+02   5.8570680e+02
   3.9059470e+02   5.5241110e+02
   3.9107680e+02   5.1219960e+02
   3.9155890e+02   4.7798190e+02
   3.9204100e+02   4.6362390e+02
   3.9252310e+02   4.5388830e+02
   3.9300520e+02   4.3745620e+02
   3.9348740e+02   4.1032980e+02
   3.9396950e+02   3.8126550e+02
   3.9445160e+02   3.4783620e+02
   3.9493370e+02   3.1479290e+02
   3.9541580e+02   2.9101830e+02
   3.9589790e+02   2.9231070e+02
   3.9638010e+02   2.9170640e+02
   3.9686220e+02   2.7521780e+02
   3.9734430e+02   2.3387080e+02
   3.9782640e+02   2.0641130e+02
   3.9830850e+02   2.0814380e+02
   3.9879060e+02   2.2065830e+02
   3.9927280e+02   2.2408090e+02
   3.9975490e+02   2.1480490e+02
   4.0023700e+02   1.9998100e+02
   4.0071910e+02   1.7792110e+02
   4.0120120e+02   1.4760310e+02
   4.0168330e+02   1.2583280e+02
   4.0216550e+02   1.1639060e+02
   4.0264760e+02   1.1204110e+02
   4.0312970e+02   1.0616210e+02
   4.0361180e+02   9.5787050e+01
   4.0409390e+02   9.2052250e+01
   4.0457600e+02   1.0121360e+02
   4.0505820e+02   1.1875680e+02
   4.0554030e+02   1.1684410e+02
   4.0602240e+02   8.9163570e+01
   4.0650450e+02   6.0494380e+01
   4.0698660e+02   4.9178220e+01
   4.0746880e+02   5.6167180e+01
   4.0795090e+02   6.3636900e+01
   4.0843300e+02   7.0623840e+01
   4.0891510e+02   7.5969060e+01
   4.0939720e+02   7.7422910e+01
   4.0987930e+02   7.4960510e+01
   4.1036150e+02   6.8993410e+01
   4.1084360e+02   5.6172670e+01
   4.1132570e+02   3.9548220e+01
   4.1180780e+02   3.0459960e+01
   4.1228990e+02   3.0393920e+01
   4.1277200e+02   3.4074580e+01
   4.1325420e+02   3.7725520e+01
   4.1373630e+02   4.0440860e+01
   4.1421840e+02   3.9479980e+01
   4.1470050e+02   3.0942810e+01
   4.1518260e+02   1.9406920e+01
   4.1566470e+02   8.4282840e+00
   4.1614690e+02   1.8436890e+00
   4.1662900e+02   7.0119630e+00
   4.1711110e+02   1.8837280e+00
   4.1759320e+02   1.6311650e+01
   4.1807530e+02   2.4896610e+01
   4.1855740e+02   1.9287050e+01
   4.1903960e+02   1.1010440e+01
   4.1952170e+02   4.4291380e+00
   4.2000380e+02   2.3962400e-01
   4.2048590e+02   2.1497800e+00
   4.2096800e+02   4.8366700e+00
   4.2145010e+02   1.1236080e+01
   4.2193230e+02   9.9319460e+00
   4.2241440e+02   1.2540280e+01
   4.2289650e+02   2.5975280e+01
   4.2337860e+02   1.7266660e+01
   4.2386070e+02   5.0814210e+00
   4.2434280e+02   1.6648560e+01
   4.2482500e+02   1.3616940e+00
   4.2530710e+02   1.2270810e+01
   4.2578920e+02   1.2742550e+01
   4.2627130e+02   9.0505370e+00
   4.2675340e+02   1.9303470e+01
   4.2723550e+02   1.3390990e+01
   4.2771770e+02   1.1853640e+00
   4.2819980e+02   1.4605160e+01
   4.2868190e+02   2.9425110e+01
   4.2916400e+02   3.7060060e+01
   4.2964610e+02   3.2025940e+01
   4.3012820e+02   1.4822140e+01
   4.3061040e+02   8.6549070e+00
   4.3109250e+02   1.6542240e+01
   4.3157460e+02   2.7812440e+01
   4.3205670e+02   3.1775880e+01
   4.3253880e+02   2.8268550e+01
   4.3302090e+02   2.3600460e+01
   4.3350310e+02   1.8362850e+01
   4.3398520e+02   1.3364990e+01
   4.3446730e+02   1.1582890e+01
   4.3494940e+02   1.2909060e+01
   4.3543150e+02   1.2913210e+01
   4.3591360e+02   7.8397830e+00
   4.3639580e+02   1.0210570e+00
   4.3687790e+02   1.1958800e+01
   4.3736000e+02   2.6812930e+01
   4.3784210e+02   3.7476810e+01
   4.3832420e+02   3.0681340e+01
   4.3880630e+02   1.1684870e+01
   4.3928850e+02   4.7899780e+00
   4.3977060e+02   8.2103880e+00
   4.4025270e+02   7.3900150e+00
   4.4073480e+02   1.1680300e+01
   4.4121690e+02   2.2618770e+01
   4.4169900e+02   3.0018680e+01
   4.4218120e+02   2.5248230e+01
   4.4266330e+02   1.4777220e+01
   4.4314540e+02   6.2655030e+00
   4.4362750e+02   1.2085570e+00
   4.4410960e+02   6.1084000e-01
   4.4459170e+02   3.2047120e+00
   4.4507390e+02   1.1991210e+01
   4.4555600e+02   1.6629760e+01
   4.4603810e+02   1.0855530e+01
   4.4652020e+02   3.4182740e+00
   4.4700230e+02   5.2600100e-01
   4.4748440e+02   5.8420410e+00
   4.4796660e+02   7.1345210e+00
   4.4844870e+02   1.2538450e+00
   4.4893080e+02   1.4481930e+01
   4.4941290e+02   1.8885930e+01
   4.4989500e+02   9.7054440e+00
   4.5037710e+02   5.5737300e-01
   4.5085930e+02   7.5147710e+00
   4.5134130e+02   1.0978090e+01
   4.5182350e+02   1.1872370e+01
   4.5230560e+02   1.0042660e+01
   4.5278770e+02   5.8767700e+00
   4.5326980e+02   2.6023560e+00
   4.5375190e+02   1.6326170e+01
   4.5423400e+02   2.2282900e+01
   4.5471620e+02   1.1292480e+01
   4.5519830e+02   9.1857300e+00
   4.5568040e+02   1.0890010e+01
   4.5616250e+02   6.9962160e+00
   4.5664460e+02   2.9853450e+01
   4.5712670e+02   4.9647770e+01
   4.5760890e+02   6.4839290e+01
   4.5809100e+02   7.0876280e+01
   4.5857310e+02   6.3051760e+01
   4.5905520e+02   5.2464290e+01
   4.5953730e+02   5.2793580e+01
   4.6001940e+02   6.1619510e+01
   4.6050160e+02   7.0989010e+01
   4.6098370e+02   7.6517640e+01
   4.6146580e+02   8.0422180e+01
   4.6194790e+02   8.5947880e+01
   4.6243000e+02   9.4655520e+01
   4.6291210e+02   9.8249940e+01
   4.6339430e+02   8.5795410e+01
   4.6387640e+02   6.7572450e+01
   4.6435850e+02   5.7048890e+01
   4.6484060e+02   6.4740600e+01
   4.6532270e+02   7.4341980e+01
   4.6580480e+02   7.9187380e+01
   4.6628700e+02   7.9178890e+01
   4.6676910e+02   8.4878420e+01
   4.6725120e+02   1.0801270e+02
   4.6773330e+02   1.2993730e+02
   4.6821540e+02   1.3846890e+02
   4.6869750e+02   1.1627000e+02
   4.6917970e+02   1.0962670e+02
   4.6966180e+02   1.2831070e+02
   4.7014390e+02   1.6163390e+02
   4.7062600e+02   1.8103300e+02
   4.7110810e+02   1.8253470e+02
   4.7159020e+02   1.7955600e+02
   4.7207240e+02   1.7460600e+02
   4.7255450e+02   1.6681350e+02
   4.7303660e+02   1.7336930e+02
   4.7351870e+02   1.9722580e+02
   4.7400080e+02   2.2672240e+02
   4.7448290e+02   2.4944150e+02
   4.7496510e+02   2.6618870e+02
   4.7544720e+02   2.7684220e+02
   4.7592930e+02   2.7697300e+02
   4.7641140e+02   2.7404550e+02
   4.7689350e+02   2.8489880e+02
   4.7737560e+02   3.0854460e+02
   4.7785780e+02   3.3434190e+02
   4.7833990e+02   3.5389450e+02
   4.7882200e+02   3.7117600e+02
   4.7930410e+02   3.9184560e+02
   4.7978620e+02   4.1826820e+02
   4.8026830e+02   4.4388670e+02
   4.8075050e+02   4.6377170e+02
   4.8123260e+02   4.8128390e+02
   4.8171470e+02   5.0138400e+02
   4.8219680e+02   5.3139270e+02
   4.8267890e+02   5.5767810e+02
   4.8316100e+02   5.7324160e+02
   4.8364320e+02   5.7818930e+02
   4.8412530e+02   5.7597300e+02
   4.8460740e+02   5.6149640e+02
   4.8508950e+02   5.4130470e+02
   4.8557160e+02   5.2073500e+02
   4.8605370e+02   4.9875340e+02
   4.8653590e+02   4.7723460e+02
   4.8701800e+02   4.5817240e+02
   4.8750010e+02   4.4118410e+02
   4.8798220e+02   4.2069730e+02
   4.8846430e+02   3.9183130e+02
   4.8894640e+02   3.6508640e+02
   4.8942860e+02   3.4572670e+02
   4.8991070e+02   3.3528410e+02
   4.9039280e+02   3.2862210e+02
   4.9087490e+02   3.2647570e+02
   4.9135700e+02   3.2703340e+02
   4.9183910e+02   3.2710310e+02
   4.9232130e+02   3.2649320e+02
   4.9280340e+02   3.2818870e+02
   4.9328550e+02   3.3161870e+02
   4.9376760e+02   3.3917210e+02
   4.9424970e+02   3.5769480e+02
   4.9473180e+02   3.8672970e+02
   4.9521400e+02   4.2072660e+02
   4.9569610e+02   4.5493100e+02
   4.9617820e+02   4.9105850e+02
   4.9666030e+02   5.3083580e+02
   4.9714240e+02   5.7562130e+02
   4.9762450e+02   6.2221470e+02
   4.9810670e+02   6.6255770e+02
   4.9858880e+02   7.0261020e+02
   4.9907090e+02   7.5659770e+02
   4.9955300e+02   8.3819920e+02
   5.0003510e+02   9.3106450e+02
   5.0051720e+02   1.0346930e+03
   5.0099940e+02   1.1509200e+03
   5.0148150e+02   1.2465690e+03
   5.0196360e+02   1.2981950e+03
   5.0244570e+02   1.3339410e+03
   5.0292780e+02   1.3792500e+03
   5.0340990e+02   1.4574540e+03
   5.0389210e+02   1.5207690e+03
   5.0437420e+02   1.5712130e+03
   5.0485630e+02   1.6045470e+03
   5.0533840e+02   1.6016570e+03
   5.0582050e+02   1.5560230e+03
   5.0630260e+02   1.4886670e+03
   5.0678480e+02   1.4058610e+03
   5.0726690e+02   1.3042900e+03
   5.0774900e+02   1.2022220e+03
   5.0823110e+02   1.0972830e+03
   5.0871320e+02   9.9588860e+02
   5.0919530e+02   9.0727270e+02
   5.0967750e+02   8.3087650e+02
   5.1015960e+02   7.5388040e+02
   5.1064170e+02   6.6711500e+02
   5.1112380e+02   5.8165920e+02
   5.1160590e+02   5.2077550e+02
   5.1208800e+02   4.8258280e+02
   5.1257010e+02   4.5211710e+02
   5.1305220e+02   4.1866160e+02
   5.1353440e+02   3.8592650e+02
   5.1401650e+02   3.5891750e+02
   5.1449860e+02   3.3826150e+02
   5.1498070e+02   3.1997000e+02
   5.1546280e+02   3.0583320e+02
   5.1594490e+02   2.9179590e+02
   5.1642710e+02   2.7123540e+02
   5.1690920e+02   2.2478860e+02
   5.1739130e+02   1.8743680e+02
   5.1787340e+02   1.7915380e+02
   5.1835550e+02   2.0202320e+02
   5.1883760e+02   2.1202950e+02
   5.1931980e+02   1.9082520e+02
   5.1980190e+02   1.6493540e+02
   5.2028400e+02   1.5045100e+02
   5.2076610e+02   1.5463200e+02
   5.2124820e+02   1.5583580e+02
   5.2173030e+02   1.5068120e+02
   5.2221250e+02   1.4342340e+02
   5.2269460e+02   1.4507800e+02
   5.2317670e+02   1.5823100e+02
   5.2365880e+02   1.6934230e+02
   5.2414090e+02   1.7258470e+02
   5.2462300e+02   1.6878450e+02
   5.2510520e+02   1.6349370e+02
   5.2558730e+02   1.5632820e+02
   5.2606940e+02   1.5070730e+02
   5.2655150e+02   1.5024200e+02
   5.2703360e+02   1.5404340e+02
   5.2751570e+02   1.6064860e+02
   5.2799790e+02   1.7250560e+02
   5.2848000e+02   1.8180460e+02
   5.2896210e+02   1.7675650e+02
   5.2944420e+02   1.6163460e+02
   5.2992630e+02   1.4892000e+02
   5.3040840e+02   1.4771360e+02
   5.3089060e+02   1.4943060e+02
   5.3137270e+02   1.4708510e+02
   5.3185480e+02   1.3910670e+02
   5.3233690e+02   1.3531020e+02
   5.3281900e+02   1.4458690e+02
   5.3330110e+02   1.5673230e+02
   5.3378330e+02   1.6231470e+02
   5.3426540e+02   1.5004200e+02
   5.3474750e+02   1.4329240e+02
   5.3522960e+02   1.4386530e+02
   5.3571170e+02   1.5148970e+02
   5.3619380e+02   1.6612490e+02
   5.3667600e+02   1.9279500e+02
   5.3715810e+02   2.1691010e+02
   5.3764020e+02   2.3049500e+02
   5.3812230e+02   2.3206810e+02
   5.3860440e+02   2.4210740e+02
   5.3908650e+02   2.6194970e+02
   5.3956870e+02   2.8683150e+02
   5.4005080e+02   3.1338150e+02
   5.4053290e+02   3.4051170e+02
   5.4101500e+02   3.6262040e+02
   5.4149710e+02   3.7426070e+02
   5.4197920e+02   3.8602160e+02
   5.4246140e+02   4.1847450e+02
   5.4294350e+02   4.6747410e+02
   5.4342560e+02   5.1367410e+02
   5.4390770e+02   5.4092470e+02
   5.4438980e+02   5.6243780e+02
   5.4487190e+02   5.8947830e+02
   5.4535410e+02   6.2290190e+02
   5.4583620e+02   6.6417560e+02
   5.4631830e+02   7.1898950e+02
   5.4680040e+02   7.8037770e+02
   5.4728250e+02   8.4121470e+02
   5.4776460e+02   9.0166520e+02
   5.4824680e+02   9.5848860e+02
   5.4872890e+02   1.0043350e+03
   5.4921100e+02   1.0443030e+03
   5.4969310e+02   1.0997990e+03
   5.5017520e+02   1.1741430e+03
   5.5065730e+02   1.2592560e+03
   5.5113950e+02   1.3559630e+03
   5.5162160e+02   1.4679020e+03
   5.5210370e+02   1.5662500e+03
   5.5258580e+02   1.6456150e+03
   5.5306790e+02   1.7244160e+03
   5.5355000e+02   1.8279330e+03
   5.5403220e+02   1.9542390e+03
   5.5451430e+02   2.0777270e+03
   5.5499640e+02   2.1947170e+03
   5.5547850e+02   2.3031050e+03
   5.5596060e+02   2.3989150e+03
   5.5644270e+02   2.4826130e+03
   5.5692490e+02   2.5522800e+03
   5.5740700e+02   2.6118090e+03
   5.5788910e+02   2.6526290e+03
   5.5837120e+02   2.6646440e+03
   5.5885330e+02   2.6460990e+03
   5.5933540e+02   2.6065170e+03
   5.5981760e+02   2.5520900e+03
   5.6029970e+02   2.4781710e+03
   5.6078180e+02   2.3801200e+03
   5.6126390e+02   2.2385460e+03
   5.6174600e+02   2.0950320e+03
   5.6222810e+02   1.9619390e+03
   5.6271030e+02   1.8326800e+03
   5.6319240e+02   1.6849870e+03
   5.6367450e+02   1.4946360e+03
   5.6415660e+02   1.3185710e+03
   5.6463870e+02   1.1807090e+03
   5.6512080e+02   1.0838620e+03
   5.6560300e+02   9.9121090e+02
   5.6608510e+02   9.0407260e+02
   5.6656720e+02   8.2036070e+02
   5.6704930e+02   7.3610580e+02
   5.6753140e+02   6.5305220e+02
   5.6801350e+02   5.7790940e+02
   5.6849570e+02   5.1237680e+02
   5.6897780e+02   4.5603320e+02
   5.6945990e+02   4.1346890e+02
   5.6994200e+02   3.8170620e+02
   5.7042410e+02   3.4999020e+02
   5.7090630e+02   3.0897960e+02
   5.7138840e+02   2.6707090e+02
   5.7187050e+02   2.3119810e+02
   5.7235260e+02   2.0200300e+02
   5.7283470e+02   1.7699880e+02
   5.7331680e+02   1.5599240e+02
   5.7379900e+02   1.3827760e+02
   5.7428110e+02   1.2372310e+02
   5.7476320e+02   1.1452620e+02
   5.7524530e+02   1.0498700e+02
   5.7572740e+02   9.2463990e+01
   5.7620950e+02   7.9196110e+01
   5.7669170e+02   7.0309750e+01
   5.7717380e+02   7.0157710e+01
   5.7765590e+02   6.7014650e+01
   5.7813800e+02   5.5683410e+01
   5.7862010e+02   3.7101500e+01
   5.7910220e+02   2.7443970e+01
   5.7958440e+02   2.8188540e+01
   5.8006650e+02   3.2352970e+01
   5.8054860e+02   3.4615540e+01
   5.8103070e+02   3.5456240e+01
   5.8151280e+02   3.8327330e+01
   5.8199490e+02   4.3797610e+01
   5.8247710e+02   5.0699890e+01
   5.8295920e+02   5.7208500e+01
   5.8344130e+02   6.4003170e+01
   5.8392340e+02   7.2764400e+01
   5.8440550e+02   8.5871220e+01
   5.8488760e+02   9.9896240e+01
   5.8536980e+02   1.1581450e+02
   5.8585190e+02   1.3186460e+02
   5.8633400e+02   1.3876350e+02
   5.8681610e+02   1.2513420e+02
   5.8729820e+02   1.0675870e+02
   5.8778030e+02   9.1761110e+01
   5.8826250e+02   8.0418950e+01
   5.8874460e+02   7.4442140e+01
   5.8922670e+02   8.0895320e+01
   5.8970880e+02   8.7965270e+01
   5.9019090e+02   8.0857910e+01
   5.9067300e+02   5.0949100e+01
   5.9115520e+02   3.1701290e+01
   5.9163730e+02   3.2963560e+01
   5.9211940e+02   4.5788150e+01
   5.9260150e+02   4.0041260e+01
   5.9308360e+02   1.4209840e+01
   5.9356570e+02   5.8002930e+00
   5.9404790e+02   1.4566650e+00
   5.9453000e+02   1.8789980e+01
   5.9501210e+02   3.4997680e+01
   5.9549420e+02   4.6915040e+01
   5.9597630e+02   4.9207890e+01
   5.9645840e+02   2.6325620e+01
   5.9694060e+02   4.9510500e+00
   5.9742270e+02   2.2212950e+01
   5.9790480e+02   1.3191530e+01
   5.9838690e+02   8.6901900e-01
   5.9886900e+02   4.1105350e+00
   5.9935110e+02   4.9138180e+00
   5.9983330e+02   7.7851560e+00
   6.0031540e+02   2.0793210e+01
   6.0079750e+02   2.8847960e+01
   6.0127960e+02   2.4978390e+01
   6.0176170e+02   9.6545410e+00
   6.0224380e+02   3.3408200e+00
   6.0272600e+02   9.6034550e+00
   6.0320810e+02   1.8710450e+01
   6.0369020e+02   2.3651920e+01
   6.0417230e+02   2.3736820e+01
   6.0465440e+02   3.0810180e+01
   6.0513650e+02   4.7823970e+01
   6.0561870e+02   6.4478760e+01
   6.0610080e+02   6.4123600e+01
   6.0658290e+02   5.0535100e+01
   6.0706500e+02   3.9691590e+01
   6.0754710e+02   3.8876040e+01
   6.0802920e+02   4.1324890e+01
   6.0851140e+02   3.9677800e+01
   6.0899350e+02   3.5281310e+01
   6.0947560e+02   3.0726990e+01
   6.0995770e+02   2.6882200e+01
   6.1043980e+02   2.3747190e+01
   6.1092190e+02   2.1529420e+01
   6.1140410e+02   2.0293820e+01
   6.1188620e+02   1.9392460e+01
   6.1236830e+02   2.3557250e+01
   6.1285040e+02   2.4597170e+01
   6.1333250e+02   1.6042360e+01
   6.1381460e+02   1.1019650e+01
   6.1429680e+02   2.8755070e+01
   6.1477890e+02   3.3302430e+01
   6.1526100e+02   3.0185360e+01
   6.1574310e+02   3.0174260e+01
   6.1622520e+02   3.3754210e+01
   6.1670730e+02   3.4834590e+01
   6.1718950e+02   2.9144100e+01
   6.1767160e+02   2.0628850e+01
   6.1815370e+02   2.1419070e+01
   6.1863580e+02   3.0182920e+01
   6.1911790e+02   3.4875790e+01
   6.1960000e+02   2.1135440e+01
   6.2008220e+02   1.1636960e+00
   6.2056430e+02   9.3291020e+00
   6.2104640e+02   7.0604250e+00
   6.2152850e+02   4.6792600e+00
   6.2201060e+02   7.1063230e+00
   6.2249270e+02   1.3112430e+01
   6.2297490e+02   2.2074890e+01
   6.2345700e+02   3.9098630e+01
   6.2393910e+02   5.3738220e+01
   6.2442120e+02   6.0984860e+01
   6.2490330e+02   6.5199100e+01
   6.2538540e+02   7.9307190e+01
   6.2586760e+02   1.1061650e+02
   6.2634970e+02   1.3492160e+02
   6.2683180e+02   1.3865130e+02
   6.2731390e+02   1.2550380e+02
   6.2779600e+02   1.3531200e+02
   6.2827810e+02   1.7035130e+02
   6.2876030e+02   2.0990280e+02
   6.2924240e+02   2.3878030e+02
   6.2972450e+02   2.5894190e+02
   6.3020660e+02   2.7396220e+02
   6.3068870e+02   2.8251600e+02
   6.3117080e+02   2.9430910e+02
   6.3165300e+02   3.2064250e+02
   6.3213510e+02   3.5544300e+02
   6.3261720e+02   3.8971730e+02
   6.3309930e+02   4.1629330e+02
   6.3358140e+02   4.4467880e+02
   6.3406350e+02   4.8028590e+02
   6.3454570e+02   5.2118220e+02
   6.3502780e+02   5.6006040e+02
   6.3550990e+02   6.0262120e+02
   6.3599200e+02   6.3537550e+02
   6.3647410e+02   6.5187290e+02
   6.3695620e+02   6.5110630e+02
   6.3743840e+02   6.5346800e+02
   6.3792050e+02   6.5982440e+02
   6.3840260e+02   6.6642990e+02
   6.3888470e+02   6.7431710e+02
   6.3936680e+02   6.8199060e+02
   6.3984890e+02   6.7278000e+02
   6.4033110e+02   6.4264110e+02
   6.4081320e+02   6.0416420e+02
   6.4129530e+02   5.7018490e+02
   6.4177740e+02   5.3915060e+02
   6.4225950e+02   5.0661610e+02
   6.4274160e+02   4.6750130e+02
   6.4322380e+02   4.3026540e+02
   6.4370590e+02   4.0091870e+02
   6.4418800e+02   3.7833200e+02
   6.4467010e+02   3.5710820e+02
   6.4515220e+02   3.3653420e+02
   6.4563430e+02   3.1612630e+02
   6.4611650e+02   2.9563650e+02
   6.4659860e+02   2.7463850e+02
   6.4708070e+02   2.5729170e+02
   6.4756280e+02   2.4503490e+02
   6.4804490e+02   2.3399710e+02
   6.4852700e+02   2.2055730e+02
   6.4900920e+02   2.0428810e+02
   6.4949130e+02   1.9248640e+02
   6.4997340e+02   1.8601060e+02
   6.5045550e+02   1.8219710e+02
   6.5093760e+02   1.7945340e+02
   6.5141970e+02   1.7672920e+02
   6.5190190e+02   1.7056340e+02
   6.5238400e+02   1.5761980e+02
   6.5286610e+02   1.4307020e+02
   6.5334820e+02   1.3027920e+02
   6.5383030e+02   1.1962410e+02
   6.5431240e+02   1.1257850e+02
   6.5479460e+02   1.1550930e+02
   6.5527670e+02   1.1655000e+02
   6.5575880e+02   1.0921910e+02
   6.5624090e+02   9.1900090e+01
   6.5672300e+02   7.9835510e+01
   6.5720510e+02   7.7078740e+01
   6.5768720e+02   7.5832400e+01
   6.5816930e+02   7.1198300e+01
   6.5865140e+02   6.1949950e+01
   6.5913350e+02   5.4390260e+01
   6.5961570e+02   4.7805600e+01
   6.6009780e+02   4.4802190e+01
   6.6057990e+02   5.2556400e+01
   6.6106200e+02   6.8530400e+01
   6.6154410e+02   7.7728700e+01
   6.6202620e+02   7.4754390e+01
   6.6250840e+02   6.5572880e+01
   6.6299050e+02   5.6366150e+01
   6.6347260e+02   4.6777530e+01
   6.6395470e+02   3.5679320e+01
   6.6443680e+02   1.5007570e+01
   6.6491890e+02   5.7269300e-01
   6.6540110e+02   4.2230200e-01
   6.6588320e+02   1.5208560e+01
   6.6636530e+02   2.8553100e+01
   6.6684740e+02   3.7366210e+01
   6.6732950e+02   4.2067440e+01
   6.6781160e+02   4.2728270e+01
   6.6829380e+02   3.9059080e+01
   6.6877590e+02   3.0950620e+01
   6.6925800e+02   1.5113920e+01
   6.6974010e+02   1.9430240e+00
   6.7022220e+02   6.9516910e+00
   6.7070430e+02   2.7765440e+01
   6.7118650e+02   3.9126250e+01
   6.7166860e+02   3.3842040e+01
   6.7215070e+02   2.2281920e+01
   6.7263280e+02   1.8873780e+01
   6.7311490e+02   2.0682860e+01
   6.7359700e+02   1.9704930e+01
   6.7407920e+02   6.0749210e+00
   6.7456130e+02   5.6261900e+00
   6.7504340e+02   4.9053650e+00
   6.7552550e+02   6.1837770e+00
   6.7600760e+02   1.5352840e+01
   6.7648970e+02   2.3068330e+01
   6.7697190e+02   2.4617650e+01
   6.7745400e+02   1.7059020e+01
   6.7793610e+02   1.2744450e+00
   6.7841820e+02   1.2234530e+01
   6.7890030e+02   1.5539460e+01
   6.7938240e+02   1.2598080e+01
   6.7986460e+02   2.0368040e+00
   6.8034670e+02   1.5196720e+01
   6.8082880e+02   2.9301030e+01
   6.8131090e+02   3.9853670e+01
   6.8179300e+02   4.5042720e+01
   6.8227510e+02   3.9113890e+01
   6.8275730e+02   2.6824890e+01
   6.8323940e+02   1.7432280e+01
   6.8372150e+02   1.3807280e+01
   6.8420360e+02   1.4505550e+01
   6.8468570e+02   2.3807130e+01
   6.8516780e+02   3.6698300e+01
   6.8565000e+02   4.1788880e+01
   6.8613210e+02   2.7401490e+01
   6.8661420e+02   1.4344240e+01
   6.8709630e+02   8.2683110e+00
   6.8757840e+02   8.6636660e+00
   6.8806050e+02   1.0851680e+01
   6.8854270e+02   1.6400790e+01
   6.8902480e+02   1.9568940e+01
   6.8950690e+02   1.4620570e+01
   6.8998900e+02   2.8294070e+00
   6.9047110e+02   7.7383400e-01
   6.9095320e+02   4.3381650e+00
   6.9143540e+02   1.2597560e+01
   6.9191750e+02   2.2274750e+01
   6.9239960e+02   3.0660370e+01
   6.9288170e+02   3.2612120e+01
   6.9336380e+02   2.5310270e+01
   6.9384590e+02   1.7090550e+01
   6.9432810e+02   1.0898680e+01
   6.9481020e+02   7.1983030e+00
   6.9529230e+02   6.6791080e+00
   6.9577440e+02   1.1563170e+01
   6.9625650e+02   1.7146820e+01
   6.9673860e+02   2.4072300e+01
   6.9722080e+02   3.1012940e+01
   6.9770290e+02   3.4402040e+01
   6.9818500e+02   3.3804020e+01
   6.9866710e+02   3.1095120e+01
   6.9914920e+02   2.6044650e+01
   6.9963130e+02   1.9665070e+01
   7.0011350e+02   1.5767030e+01
   7.0059560e+02   1.4253170e+01
   7.0107770e+02   1.3357390e+01
   7.0155980e+02   9.1475220e+00
   7.0204190e+02   6.2517090e+00
   7.0252400e+02   1.2518860e+01
   7.0300620e+02   2.8959010e+01
   7.0348830e+02   4.3024720e+01
   7.0397040e+02   4.6546810e+01
   7.0445250e+02   4.6508210e+01
   7.0493460e+02   4.8542600e+01
   7.0541670e+02   5.8280580e+01
   7.0589890e+02   6.0743740e+01
   7.0638100e+02   4.9588810e+01
   7.0686310e+02   3.6676270e+01
   7.0734520e+02   3.9437810e+01
   7.0782730e+02   6.1755250e+01
   7.0830940e+02   7.2636020e+01
   7.0879160e+02   6.3730930e+01
   7.0927370e+02   4.5860630e+01
   7.0975580e+02   3.5974760e+01
   7.1023790e+02   3.3887540e+01
   7.1072000e+02   3.7918950e+01
   7.1120210e+02   5.5753050e+01
   7.1168430e+02   7.3043120e+01
   7.1216640e+02   7.4897030e+01
   7.1264850e+02   6.4480350e+01
   7.1313060e+02   5.5176790e+01
   7.1361270e+02   5.0352600e+01
   7.1409480e+02   4.9259030e+01
   7.1457700e+02   5.2607330e+01
   7.1505910e+02   6.0497410e+01
   7.1554120e+02   6.9021390e+01
   7.1602330e+02   8.0049930e+01
   7.1650540e+02   8.8248660e+01
   7.1698750e+02   8.9315490e+01
   7.1746970e+02   8.3161800e+01
   7.1795180e+02   7.6423220e+01
   7.1843390e+02   6.8873990e+01
   7.1891600e+02   6.3840760e+01
   7.1939810e+02   6.7683070e+01
   7.1988020e+02   7.6204040e+01
   7.2036240e+02   8.0499730e+01
   7.2084450e+02   7.6193910e+01
   7.2132660e+02   7.3216160e+01
   7.2180870e+02   8.4375340e+01
   7.2229080e+02   9.9116490e+01
   7.2277290e+02   1.0085540e+02
   7.2325510e+02   6.3153630e+01
   7.2373720e+02   4.3323090e+01
   7.2421930e+02   5.6706050e+01
   7.2470140e+02   9.0505430e+01
   7.2518350e+02   1.0887870e+02
   7.2566560e+02   1.0857340e+02
   7.2614780e+02   1.0605580e+02
   7.2662990e+02   1.0683770e+02
   7.2711200e+02   1.0985150e+02
   7.2759410e+02   1.1322830e+02
   7.2807620e+02   1.1733230e+02
   7.2855830e+02   1.1781390e+02
   7.2904050e+02   1.0769600e+02
   7.2952260e+02   9.4282200e+01
   7.3000470e+02   8.4226990e+01
   7.3048680e+02   7.8248930e+01
   7.3096890e+02   7.4754670e+01
   7.3145100e+02   7.1411990e+01
   7.3193320e+02   7.1566990e+01
   7.3241530e+02   7.8123540e+01
   7.3289740e+02   9.6630890e+01
   7.3337950e+02   1.0904430e+02
   7.3386160e+02   1.1245350e+02
   7.3434380e+02   1.1224720e+02
   7.3482590e+02   1.1450180e+02
   7.3530800e+02   1.1898110e+02
   7.3579010e+02   1.1772650e+02
   7.3627220e+02   1.0836490e+02
   7.3675430e+02   9.8328610e+01
   7.3723650e+02   9.7330840e+01
   7.3771860e+02   1.0294670e+02
   7.3820070e+02   1.0909680e+02
   7.3868280e+02   1.1394730e+02
   7.3916490e+02   1.1732140e+02
   7.3964700e+02   1.1809250e+02
   7.4012920e+02   1.1673320e+02
   7.4061130e+02   1.1450970e+02
   7.4109340e+02   1.1218730e+02
   7.4157550e+02   1.1042580e+02
   7.4205760e+02   1.0972090e+02
   7.4253970e+02   1.0995710e+02
   7.4302190e+02   1.1048840e+02
   7.4350400e+02   1.0678120e+02
   7.4398610e+02   1.1512700e+02
   7.4446820e+02   1.1987660e+02
   7.4495030e+02   1.2130990e+02
   7.4543240e+02   1.1035270e+02
   7.4591460e+02   1.1529690e+02
   7.4639670e+02   1.1371420e+02
   7.4687880e+02   1.1178850e+02
   7.4736090e+02   1.1882740e+02
   7.4784300e+02   1.0943630e+02
   7.4832510e+02   1.1617710e+02
   7.4880730e+02   1.1649280e+02
   7.4928940e+02   1.1954660e+02
   7.4977150e+02   1.1610350e+02
   7.5025360e+02   1.1469770e+02
   7.5073570e+02   1.1971160e+02
   7.5121780e+02   1.2108340e+02
   7.5170000e+02   1.1671890e+02
   7.5218210e+02   1.1955760e+02
   7.5266420e+02   1.0911750e+02
   7.5314630e+02   1.1017360e+02
   7.5362840e+02   1.1631320e+02
   7.5411050e+02   1.1213970e+02
   7.5459270e+02   1.1520070e+02
   7.5507480e+02   1.1558450e+02
   7.5555690e+02   1.0460550e+02
   7.5603900e+02   1.0443440e+02
   7.5652110e+02   1.0615220e+02
   7.5700320e+02   1.0680570e+02
   7.5748540e+02   1.0534000e+02
   7.5796750e+02   1.0221690e+02
   7.5844960e+02   9.9486180e+01
   7.5893170e+02   9.6063420e+01
   7.5941380e+02   9.2447690e+01
   7.5989590e+02   8.8698300e+01
   7.6037810e+02   8.5541410e+01
   7.6086020e+02   8.3823460e+01
   7.6134230e+02   8.3432680e+01
   7.6182440e+02   8.5839510e+01
   7.6230650e+02   9.6023930e+01
   7.6278860e+02   1.0551250e+02
   7.6327080e+02   1.0288100e+02
   7.6375290e+02   9.0326420e+01
   7.6423500e+02   8.0628420e+01
   7.6471710e+02   8.1512700e+01
   7.6519920e+02   8.5552030e+01
   7.6568130e+02   8.8396240e+01
   7.6616350e+02   8.8786190e+01
   7.6664560e+02   9.2813390e+01
   7.6712770e+02   1.0550010e+02
   7.6760980e+02   1.1437150e+02
   7.6809190e+02   1.0953550e+02
   7.6857400e+02   9.1048160e+01
   7.6905620e+02   7.5437770e+01
   7.6953830e+02   6.2954160e+01
   7.7002040e+02   5.5917540e+01
   7.7050250e+02   6.0258670e+01
   7.7098460e+02   6.9277770e+01
   7.7146670e+02   7.1767880e+01
   7.7194890e+02   6.4406650e+01
   7.7243100e+02   5.7286160e+01
   7.7291310e+02   5.8258360e+01
   7.7339520e+02   6.0680480e+01
   7.7387730e+02   5.7793030e+01
   7.7435940e+02   3.9294340e+01
   7.7484160e+02   3.1151520e+01
   7.7532370e+02   3.7372040e+01
   7.7580580e+02   5.0268520e+01
   7.7628790e+02   6.0403840e+01
   7.7677000e+02   6.7772370e+01
   7.7725210e+02   7.4035340e+01
   7.7773430e+02   8.0974980e+01
   7.7821640e+02   8.3883090e+01
   7.7869850e+02   7.1432130e+01
   7.7918060e+02   4.9952120e+01
   7.7966270e+02   3.3624660e+01
   7.8014480e+02   3.2357760e+01
   7.8062700e+02   3.3458980e+01
   7.8110910e+02   3.0900570e+01
   7.8159120e+02   2.6208040e+01
   7.8207330e+02   2.4521420e+01
   7.8255540e+02   2.7589780e+01
   7.8303750e+02   3.1324160e+01
   7.8351970e+02   3.5953610e+01
   7.8400180e+02   4.0217410e+01
   7.8448390e+02   3.7871400e+01
   7.8496600e+02   2.8651790e+01
   7.8544810e+02   2.1541870e+01
   7.8593020e+02   2.1722630e+01
   7.8641240e+02   2.6516330e+01
   7.8689450e+02   3.4880620e+01
   7.8737660e+02   4.5155760e+01
   7.8785870e+02   4.8167050e+01
   7.8834080e+02   3.0984560e+01
   7.8882290e+02   1.2065860e+01
   7.8930510e+02   2.6544800e+00
   7.8978720e+02   4.1870730e+00
   7.9026930e+02   2.6139530e+00
   7.9075140e+02   5.4741820e+00
   7.9123350e+02   1.1718510e+01
   7.9171560e+02   1.1181400e+01
   7.9219780e+02   3.9541020e+00
   7.9267990e+02   4.4479980e+00
   7.9316200e+02   1.4324950e+01
   7.9364410e+02   2.0688780e+01
   7.9412620e+02   1.6802120e+01
   7.9460830e+02   7.6045530e+00
   7.9509050e+02   1.4650000e-03
   7.9557260e+02   5.2589110e+00
   7.9605470e+02   8.9731450e+00
   7.9653680e+02   1.3629090e+01
   7.9701890e+02   1.5577940e+01
   7.9750100e+02   1.0740910e+01
   7.9798320e+02   6.6661990e+00
   7.9846530e+02   1.6097960e+01
   7.9894740e+02   1.5335210e+01
   7.9942950e+02   1.0108280e+01
   7.9991160e+02   5.0172730e+00
   8.0039370e+02   2.2308300e-01
   8.0087590e+02   1.8031620e+00
   8.0135800e+02   3.6535600e-01
   8.0184010e+02   2.0137330e+00
   8.0232220e+02   2.5284420e+00
   8.0280430e+02   2.1965940e+00
   8.0328640e+02   2.7259520e+00
   8.0376860e+02   6.1158450e+00
   8.0425070e+02   7.6683350e+00
   8.0473280e+02   3.3316040e+00
   8.0521490e+02   2.6355590e+00
   8.0569700e+02   4.6671750e+00
   8.0617910e+02   2.8333740e+00
   8.0666130e+02   4.1989140e+00
   8.0714340e+02   1.9328120e+01
   8.0762550e+02   3.5603700e+01
   8.0810760e+02   3.7602420e+01
   8.0858970e+02   2.8234800e+01
   8.0907180e+02   2.6047970e+01
   8.0955400e+02   4.2557800e+01
   8.1003610e+02   5.8807430e+01
   8.1051820e+02   5.1987120e+01
   8.1100030e+02   3.2057860e+01
   8.1148240e+02   1.8403140e+01
   8.1196450e+02   2.1616640e+01
   8.1244670e+02   2.7003420e+01
   8.1292880e+02   3.3037600e+01
   8.1341090e+02   3.8383360e+01
   8.1389300e+02   4.0391300e+01
   8.1437510e+02   4.0088620e+01
   8.1485720e+02   3.1364320e+01
   8.1533940e+02   7.5397340e+00
   8.1582150e+02   2.0946780e+01
   8.1630360e+02   2.9452210e+01
   8.1678570e+02   2.0820310e+01
   8.1726780e+02   8.5303340e+00
   8.1774990e+02   9.6763920e+00
   8.1823210e+02   2.1338010e+01
   8.1871420e+02   1.1037660e+01
   8.1919630e+02   1.5345030e+01
   8.1967840e+02   3.0726260e+01
   8.2016050e+02   1.8729800e+01
   8.2064260e+02   7.5548710e+00
   8.2112480e+02   4.4128420e+00
   8.2160680e+02   8.2169190e+00
   8.2208890e+02   1.4299440e+01
   8.2257100e+02   2.3088380e+01
   8.2305320e+02   2.8376040e+01
   8.2353530e+02   2.3656800e+01
   8.2401740e+02   1.4552190e+01
   8.2449950e+02   1.1598690e+01
   8.2498160e+02   1.3999940e+01
   8.2546370e+02   1.6334900e+01
   8.2594590e+02   1.2657100e+01
   8.2642800e+02   1.0842290e+01
   8.2691010e+02   1.7376710e+01
   8.2739220e+02   3.2886660e+01
   8.2787430e+02   4.2164490e+01
   8.2835640e+02   4.3602170e+01
   8.2883860e+02   4.1000670e+01
   8.2932070e+02   3.5632570e+01
   8.2980280e+02   2.7852840e+01
   8.3028490e+02   1.6903200e+01
   8.3076700e+02   2.8803100e+00
   8.3124910e+02   6.7723390e+00
   8.3173130e+02   2.6220090e+00
   8.3221340e+02   7.0209350e+00
   8.3269550e+02   1.3022400e+01
   8.3317760e+02   1.4348690e+01
   8.3365970e+02   1.3403810e+01
   8.3414180e+02   1.1370850e+01
   8.3462400e+02   7.1265870e+00
   8.3510610e+02   2.7581800e-01
   8.3558820e+02   1.1383420e+01
   8.3607030e+02   2.0842710e+01
   8.3655240e+02   2.8143920e+01
   8.3703450e+02   3.4730040e+01
   8.3751670e+02   4.0380550e+01
   8.3799880e+02   4.6651370e+01
   8.3848090e+02   5.9598140e+01
   8.3896300e+02   7.9274840e+01
   8.3944510e+02   9.5059270e+01
   8.3992720e+02   9.4094180e+01
   8.4040940e+02   9.0428590e+01
   8.4089150e+02   9.5217040e+01
   8.4137360e+02   1.1134250e+02
   8.4185570e+02   1.2875240e+02
   8.4233780e+02   1.4404510e+02
   8.4281990e+02   1.6322220e+02
   8.4330210e+02   1.9239340e+02
   8.4378420e+02   2.3237840e+02
   8.4426630e+02   2.6593290e+02
   8.4474840e+02   2.9269340e+02
   8.4523050e+02   3.1714970e+02
   8.4571260e+02   3.4210030e+02
   8.4619480e+02   3.6716180e+02
   8.4667690e+02   3.9075270e+02
   8.4715900e+02   4.1234010e+02
   8.4764110e+02   4.3930690e+02
   8.4812320e+02   4.8098760e+02
   8.4860530e+02   5.2361660e+02
   8.4908750e+02   5.5624100e+02
   8.4956960e+02   5.7338940e+02
   8.5005170e+02   6.0559000e+02
   8.5053380e+02   6.5590800e+02
   8.5101590e+02   7.1328480e+02
   8.5149800e+02   7.6552110e+02
   8.5198020e+02   8.1535880e+02
   8.5246230e+02   8.7569180e+02
   8.5294440e+02   9.4835270e+02
   8.5342650e+02   1.0220860e+03
   8.5390860e+02   1.0924580e+03
   8.5439070e+02   1.1565680e+03
   8.5487290e+02   1.2088070e+03
   8.5535500e+02   1.2388100e+03
   8.5583710e+02   1.2891560e+03
   8.5631920e+02   1.3745480e+03
   8.5680130e+02   1.4635300e+03
   8.5728340e+02   1.5302550e+03
   8.5776560e+02   1.5745780e+03
   8.5824770e+02   1.6218100e+03
   8.5872980e+02   1.6740460e+03
   8.5921190e+02   1.7202280e+03
   8.5969400e+02   1.7494620e+03
   8.6017610e+02   1.7662250e+03
   8.6065830e+02   1.7760740e+03
   8.6114040e+02   1.7797860e+03
   8.6162250e+02   1.7771620e+03
   8.6210460e+02   1.7725680e+03
   8.6258670e+02   1.7570350e+03
   8.6306880e+02   1.7240930e+03
   8.6355100e+02   1.6686770e+03
   8.6403310e+02   1.6161500e+03
   8.6451520e+02   1.5683800e+03
   8.6499730e+02   1.5168870e+03
   8.6547940e+02   1.4473560e+03
   8.6596150e+02   1.3677630e+03
   8.6644370e+02   1.2999770e+03
   8.6692580e+02   1.2468480e+03
   8.6740790e+02   1.1984630e+03
   8.6789000e+02   1.1518220e+03
   8.6837210e+02   1.1042300e+03
   8.6885420e+02   1.0522200e+03
   8.6933640e+02   9.9034680e+02
   8.6981850e+02   9.3845560e+02
   8.7030060e+02   9.0036120e+02
   8.7078270e+02   8.6714700e+02
   8.7126480e+02   8.3128360e+02
   8.7174690e+02   7.9376550e+02
   8.7222910e+02   7.6574400e+02
   8.7271120e+02   7.4849050e+02
   8.7319330e+02   7.3142090e+02
   8.7367540e+02   7.0049830e+02
   8.7415750e+02   6.6680370e+02
   8.7463960e+02   6.4192130e+02
   8.7512180e+02   6.2851400e+02
   8.7560390e+02   6.1861020e+02
   8.7608600e+02   6.0930760e+02
   8.7656810e+02   6.0340280e+02
   8.7705020e+02   6.0261520e+02
   8.7753230e+02   6.0747290e+02
   8.7801450e+02   6.1238810e+02
   8.7849660e+02   6.1714990e+02
   8.7897870e+02   6.2176920e+02
   8.7946080e+02   6.2406730e+02
   8.7994290e+02   6.2696390e+02
   8.8042500e+02   6.3604480e+02
   8.8090720e+02   6.5205110e+02
   8.8138930e+02   6.7006690e+02
   8.8187140e+02   6.8575330e+02
   8.8235350e+02   7.0380470e+02
   8.8283560e+02   7.2777980e+02
   8.8331770e+02   7.5828390e+02
   8.8379990e+02   7.8872570e+02
   8.8428200e+02   8.1899070e+02
   8.8476410e+02   8.4925290e+02
   8.8524620e+02   8.7705030e+02
   8.8572830e+02   9.0524830e+02
   8.8621040e+02   9.4659830e+02
   8.8669260e+02   1.0006840e+03
   8.8717470e+02   1.0519890e+03
   8.8765680e+02   1.0849640e+03
   8.8813890e+02   1.1158870e+03
   8.8862100e+02   1.1563680e+03
   8.8910310e+02   1.2074430e+03
   8.8958530e+02   1.2605400e+03
   8.9006740e+02   1.3130710e+03
   8.9054950e+02   1.3705000e+03
   8.9103160e+02   1.4356110e+03
   8.9151370e+02   1.5083810e+03
   8.9199580e+02   1.5895020e+03
   8.9247800e+02   1.6788390e+03
   8.9296010e+02   1.7622330e+03
   8.9344220e+02   1.8222880e+03
   8.9392430e+02   1.8783230e+03
   8.9440640e+02   1.9454490e+03
   8.9488850e+02   2.0236160e+03
   8.9537070e+02   2.1099250e+03
   8.9585280e+02   2.2101620e+03
   8.9633490e+02   2.3097170e+03
   8.9681700e+02   2.4022220e+03
   8.9729910e+02   2.4890800e+03
   8.9778130e+02   2.5779060e+03
   8.9826340e+02   2.6679130e+03
   8.9874550e+02   2.7724320e+03
   8.9922760e+02   2.9004960e+03
   8.9970970e+02   3.0449190e+03
   9.0019180e+02   3.1941330e+03
   9.0067400e+02   3.3502710e+03
   9.0115610e+02   3.5213170e+03
   9.0163820e+02   3.7051680e+03
   9.0212030e+02   3.9107690e+03
   9.0260240e+02   4.1348490e+03
   9.0308450e+02   4.3816850e+03
   9.0356670e+02   4.6612000e+03
   9.0404880e+02   4.9746440e+03
   9.0453090e+02   5.3103320e+03
   9.0501300e+02   5.6629900e+03
   9.0549510e+02   6.0355250e+03
   9.0597720e+02   6.4344340e+03
   9.0645940e+02   6.8603350e+03
   9.0694150e+02   7.3167300e+03
   9.0742360e+02   7.8083460e+03
   9.0790570e+02   8.3338830e+03
   9.0838780e+02   8.9018160e+03
   9.0886990e+02   9.5060890e+03
   9.0935210e+02   1.0133870e+04
   9.0983420e+02   1.0791970e+04
   9.1031630e+02   1.1469270e+04
   9.1079840e+02   1.2165470e+04
   9.1128050e+02   1.2880230e+04
   9.1176260e+02   1.3606290e+04
   9.1224480e+02   1.4341160e+04
   9.1272690e+02   1.5087880e+04
   9.1320900e+02   1.5868490e+04
   9.1369110e+02   1.6614360e+04
   9.1417320e+02   1.7294750e+04
   9.1465530e+02   1.7919000e+04
   9.1513750e+02   1.8514440e+04
   9.1561960e+02   1.9116460e+04
   9.1610170e+02   1.9583460e+04
   9.1658380e+02   1.9897670e+04
   9.1706590e+02   2.0088170e+04
   9.1754800e+02   2.0217900e+04
   9.1803020e+02   2.0254050e+04
   9.1851230e+02   2.0086000e+04
   9.1899440e+02   1.9670780e+04
   9.1947650e+02   1.9146640e+04
   9.1995860e+02   1.8598950e+04
   9.2044070e+02   1.7987210e+04
   9.2092290e+02   1.7255050e+04
   9.2140500e+02   1.6354530e+04
   9.2188710e+02   1.5455730e+04
   9.2236920e+02   1.4557850e+04
   9.2285130e+02   1.3659900e+04
   9.2333340e+02   1.2751880e+04
   9.2381560e+02   1.1851540e+04
   9.2429770e+02   1.1005640e+04
   9.2477980e+02   1.0217980e+04
   9.2526190e+02   9.4857420e+03
   9.2574400e+02   8.8290710e+03
   9.2622610e+02   8.2178380e+03
   9.2670830e+02   7.6373010e+03
   9.2719040e+02   7.0810050e+03
   9.2767250e+02   6.5705600e+03
   9.2815460e+02   6.1055830e+03
   9.2863670e+02   5.6795200e+03
   9.2911880e+02   5.2996250e+03
   9.2960100e+02   4.9593210e+03
   9.3008310e+02   4.6268250e+03
   9.3056520e+02   4.3079030e+03
   9.3104730e+02   4.0088690e+03
   9.3152940e+02   3.7408400e+03
   9.3201150e+02   3.4943680e+03
   9.3249370e+02   3.2662250e+03
   9.3297580e+02   3.0544330e+03
   9.3345790e+02   2.8621210e+03
   9.3394000e+02   2.6901680e+03
   9.3442210e+02   2.5312710e+03
   9.3490420e+02   2.3806180e+03
   9.3538640e+02   2.2384620e+03
   9.3586850e+02   2.0978150e+03
   9.3635060e+02   1.9619320e+03
   9.3683270e+02   1.8408530e+03
   9.3731480e+02   1.7547570e+03
   9.3779690e+02   1.6715500e+03
   9.3827910e+02   1.5606780e+03
   9.3876120e+02   1.4364490e+03
   9.3924330e+02   1.3313570e+03
   9.3972540e+02   1.2595980e+03
   9.4020750e+02   1.1908490e+03
   9.4068960e+02   1.1206730e+03
   9.4117180e+02   1.0512930e+03
   9.4165390e+02   9.8492750e+02
   9.4213600e+02   9.2213120e+02
   9.4261810e+02   8.6682600e+02
   9.4310020e+02   8.2242600e+02
   9.4358230e+02   7.7911740e+02
   9.4406450e+02   7.2555980e+02
   9.4454660e+02   6.6941880e+02
   9.4502870e+02   6.1968790e+02
   9.4551080e+02   5.7748910e+02
   9.4599290e+02   5.4524040e+02
   9.4647500e+02   5.2835450e+02
   9.4695720e+02   5.1192870e+02
   9.4743930e+02   4.7570280e+02
   9.4792140e+02   4.2483540e+02
   9.4840350e+02   3.8818190e+02
   9.4888560e+02   3.6919480e+02
   9.4936770e+02   3.5363650e+02
   9.4984990e+02   3.2876090e+02
   9.5033200e+02   3.0355800e+02
   9.5081410e+02   2.8796660e+02
   9.5129620e+02   2.8687930e+02
   9.5177830e+02   2.7245040e+02
   9.5226040e+02   2.3686250e+02
   9.5274260e+02   2.0283260e+02
   9.5322470e+02   1.8475550e+02
   9.5370680e+02   1.7945690e+02
   9.5418890e+02   1.7532480e+02
   9.5467100e+02   1.7179990e+02
   9.5515310e+02   1.6394420e+02
   9.5563530e+02   1.4333350e+02
   9.5611740e+02   1.2200670e+02
   9.5659950e+02   1.0866150e+02
   9.5708160e+02   1.0264770e+02
   9.5756370e+02   9.5363040e+01
   9.5804580e+02   8.3404790e+01
   9.5852800e+02   7.8430300e+01
   9.5901010e+02   8.8036620e+01
   9.5949220e+02   1.0237950e+02
   9.5997430e+02   9.4548950e+01
   9.6045640e+02   7.0107420e+01
   9.6093850e+02   4.8904170e+01
   9.6142070e+02   3.9830810e+01
   9.6190280e+02   3.5002080e+01
   9.6238490e+02   3.0010990e+01
   9.6286700e+02   2.6401250e+01
   9.6334910e+02   2.7308720e+01
   9.6383120e+02   3.5605100e+01
   9.6431340e+02   4.0950320e+01
   9.6479550e+02   4.2309080e+01
   9.6527760e+02   4.0573060e+01
   9.6575970e+02   3.6548340e+01
   9.6624180e+02   3.0391660e+01
   9.6672390e+02   2.1570680e+01
   9.6720610e+02   9.2562260e+00
   9.6768820e+02   1.5358280e+00
   9.6817030e+02   7.2578740e+00
   9.6865240e+02   1.0936220e+01
   9.6913450e+02   1.5327700e+01
   9.6961660e+02   2.1515320e+01
   9.7009880e+02   2.2892640e+01
   9.7058090e+02   1.8648620e+01
   9.7106300e+02   1.3168880e+01
   9.7154510e+02   1.0481260e+01
   9.7202720e+02   8.5889280e+00
   9.7250930e+02   9.3188500e-01
   9.7299150e+02   1.1387570e+01
   9.7347360e+02   1.7105650e+01
   9.7395570e+02   1.6535030e+00
   9.7443780e+02   1.1957580e+01
   9.7491990e+02   1.1265870e+01
   9.7540200e+02   1.2628200e-01
   9.7588420e+02   4.5533450e+00
   9.7636630e+02   1.0875850e+00
   9.7684840e+02   9.8816000e-02
   9.7733050e+02   8.2561040e+00
   9.7781260e+02   1.7475160e+01
   9.7829470e+02   1.2269840e+01
   9.7877690e+02   7.8906300e-01
   9.7925900e+02   6.8163450e+00
   9.7974110e+02   5.5410160e+00
   9.8022320e+02   1.7625370e+01
   9.8070530e+02   2.7319640e+01
   9.8118740e+02   3.4036930e+01
   9.8166960e+02   3.5861020e+01
   9.8215170e+02   3.2629210e+01
   9.8263380e+02   3.2033750e+01
   9.8311590e+02   3.5898130e+01
   9.8359800e+02   3.8277650e+01
   9.8408010e+02   3.0426700e+01
   9.8456230e+02   1.9232850e+01
   9.8504440e+02   1.3304630e+01
   9.8552650e+02   1.6558650e+01
   9.8600850e+02   1.4963380e+01
   9.8649070e+02   1.9884030e+00
   9.8697280e+02   8.7766110e+00
   9.8745490e+02   5.7677610e+00
   9.8793700e+02   8.7137450e+00
   9.8841910e+02   7.6292720e+00
   9.8890120e+02   7.9981080e+00
   9.8938340e+02   2.2107790e+01
   9.8986550e+02   2.0359070e+01
   9.9034760e+02   1.6211790e+01
   9.9082970e+02   2.2691710e+01
   9.9131180e+02   3.7187740e+01
   9.9179390e+02   4.0599060e+01
   9.9227610e+02   2.5444640e+01
   9.9275820e+02   1.3870240e+01
   9.9324030e+02   1.2468870e+01
   9.9372240e+02   1.6935610e+01
   9.9420450e+02   1.8340450e+01
   9.9468660e+02   1.7637450e+01
   9.9516880e+02   1.8034180e+01
   9.9565090e+02   2.1838750e+01
   9.9613300e+02   2.4720150e+01
   9.9661510e+02   2.3420960e+01
   9.9709720e+02   2.0391720e+01
   9.9757930e+02   1.8815860e+01
   9.9806150e+02   1.9179500e+01
   9.9854360e+02   1.9609990e+01
   9.9902570e+02   2.0092770e+01
   9.9950780e+02   2.0536130e+01
   9.9998990e+02   2.1642090e+01
   1.0004720e+03   2.2337890e+01
   1.0009540e+03   2.0357790e+01
   1.0014360e+03   1.5418820e+01
   1.0019180e+03   1.0178710e+01
   1.0024010e+03   5.7028200e+00
   1.0028830e+03   1.1927490e+00
   1.0033650e+03   3.7406620e+00
   1.0038470e+03   9.0593260e+00
   1.0043290e+03   1.4075500e+01
   1.0048110e+03   1.8823910e+01
   1.0052930e+03   2.3853270e+01
   1.0057750e+03   3.0746950e+01
   1.0062570e+03   3.6965940e+01
   1.0067400e+03   3.7591550e+01
   1.0072220e+03   3.5532350e+01
   1.0077040e+03   3.7849910e+01
   1.0081860e+03   4.9983520e+01
   1.0086680e+03   6.2392760e+01
   1.0091500e+03   7.5584660e+01
   1.0096320e+03   8.6703980e+01
   1.0101140e+03   8.8973510e+01
   1.0105960e+03   8.4475280e+01
   1.0110790e+03   8.3862670e+01
   1.0115610e+03   8.8614750e+01
   1.0120430e+03   9.9811650e+01
   1.0125250e+03   1.2454690e+02
   1.0130070e+03   1.5185240e+02
   1.0134890e+03   1.7140730e+02
   1.0139710e+03   1.8151440e+02
   1.0144530e+03   1.9003670e+02
   1.0149360e+03   1.9734060e+02
   1.0154180e+03   2.0185960e+02
   1.0159000e+03   1.9847300e+02
   1.0163820e+03   1.9285630e+02
   1.0168640e+03   2.0029640e+02
   1.0173460e+03   2.1855620e+02
   1.0178280e+03   2.3559330e+02
   1.0183100e+03   2.4477450e+02
   1.0187920e+03   2.5265170e+02
   1.0192750e+03   2.6026750e+02
   1.0197570e+03   2.6883840e+02
   1.0202390e+03   2.8161300e+02
   1.0207210e+03   2.9878160e+02
   1.0212030e+03   3.1723850e+02
   1.0216850e+03   3.3701590e+02
   1.0221670e+03   3.5556340e+02
   1.0226490e+03   3.7182840e+02
   1.0231320e+03   3.8432160e+02
   1.0236140e+03   3.8986010e+02
   1.0240960e+03   3.8134640e+02
   1.0245780e+03   3.8139540e+02
   1.0250600e+03   3.9443520e+02
   1.0255420e+03   4.1130420e+02
   1.0260240e+03   4.2458370e+02
   1.0265060e+03   4.3536120e+02
   1.0269890e+03   4.5173620e+02
   1.0274710e+03   4.7316090e+02
   1.0279530e+03   4.9163540e+02
   1.0284350e+03   4.9672470e+02
   1.0289170e+03   5.0213420e+02
   1.0293990e+03   5.1752620e+02
   1.0298810e+03   5.4147970e+02
   1.0303630e+03   5.6351820e+02
   1.0308450e+03   5.8338690e+02
   1.0313280e+03   6.0304940e+02
   1.0318100e+03   6.2368010e+02
   1.0322920e+03   6.4268510e+02
   1.0327740e+03   6.5352400e+02
   1.0332560e+03   6.6079240e+02
   1.0337380e+03   6.7334220e+02
   1.0342200e+03   6.9622340e+02
   1.0347020e+03   7.2016240e+02
   1.0351840e+03   7.4289780e+02
   1.0356670e+03   7.6652490e+02
   1.0361490e+03   7.9358560e+02
   1.0366310e+03   8.2414380e+02
   1.0371130e+03   8.5099300e+02
   1.0375950e+03   8.7452170e+02
   1.0380770e+03   9.0008550e+02
   1.0385590e+03   9.3508890e+02
   1.0390410e+03   9.7079670e+02
   1.0395240e+03   9.9858750e+02
   1.0400060e+03   1.0188340e+03
   1.0404880e+03   1.0447720e+03
   1.0409700e+03   1.0800020e+03
   1.0414520e+03   1.1128020e+03
   1.0419340e+03   1.1401530e+03
   1.0424160e+03   1.1619230e+03
   1.0428980e+03   1.1760800e+03
   1.0433800e+03   1.1851430e+03
   1.0438630e+03   1.1961540e+03
   1.0443450e+03   1.2138570e+03
   1.0448270e+03   1.2291500e+03
   1.0453090e+03   1.2380100e+03
   1.0457910e+03   1.2450320e+03
   1.0462730e+03   1.2536150e+03
   1.0467550e+03   1.2633920e+03
   1.0472370e+03   1.2705440e+03
   1.0477190e+03   1.2761930e+03
   1.0482020e+03   1.2786860e+03
   1.0486840e+03   1.2819750e+03
   1.0491660e+03   1.2757910e+03
   1.0496480e+03   1.2442470e+03
   1.0501300e+03   1.1901480e+03
   1.0506120e+03   1.1480930e+03
   1.0510940e+03   1.1290050e+03
   1.0515760e+03   1.1058200e+03
   1.0520590e+03   1.0700200e+03
   1.0525410e+03   1.0267790e+03
   1.0530230e+03   9.8615920e+02
   1.0535050e+03   9.4778140e+02
   1.0539870e+03   9.1009700e+02
   1.0544690e+03   8.7274330e+02
   1.0549510e+03   8.3557120e+02
   1.0554330e+03   8.0180670e+02
   1.0559160e+03   7.6566440e+02
   1.0563980e+03   7.2084510e+02
   1.0568800e+03   6.6548840e+02
   1.0573620e+03   6.1001610e+02
   1.0578440e+03   5.5341020e+02
   1.0583260e+03   5.0500330e+02
   1.0588080e+03   4.7721390e+02
   1.0592900e+03   4.5819140e+02
   1.0597720e+03   4.3570890e+02
   1.0602550e+03   4.0925130e+02
   1.0607370e+03   3.8268670e+02
   1.0612190e+03   3.5573820e+02
   1.0617010e+03   3.2914160e+02
   1.0621830e+03   3.0157230e+02
   1.0626650e+03   2.7619840e+02
   1.0631470e+03   2.6358830e+02
   1.0636290e+03   2.5934220e+02
   1.0641110e+03   2.4857840e+02
   1.0645940e+03   2.2453250e+02
   1.0650760e+03   1.9982210e+02
   1.0655580e+03   1.7546430e+02
   1.0660400e+03   1.5808340e+02
   1.0665220e+03   1.5531200e+02
   1.0670040e+03   1.7105760e+02
   1.0674860e+03   1.7087100e+02
   1.0679680e+03   1.5382920e+02
   1.0684500e+03   1.3479840e+02
   1.0689330e+03   1.2442360e+02
   1.0694150e+03   1.1829340e+02
   1.0698970e+03   1.1232150e+02
   1.0703790e+03   1.0643020e+02
   1.0708610e+03   1.0112470e+02
   1.0713430e+03   9.5800290e+01
   1.0718250e+03   9.2699220e+01
   1.0723070e+03   9.3298280e+01
   1.0727900e+03   9.4609010e+01
   1.0732720e+03   8.9614690e+01
   1.0737540e+03   8.1286010e+01
   1.0742360e+03   7.9288760e+01
   1.0747180e+03   8.8231570e+01
   1.0752000e+03   9.2569210e+01
   1.0756820e+03   7.7590270e+01
   1.0761640e+03   6.2032590e+01
   1.0766460e+03   5.9628540e+01
   1.0771290e+03   7.0323430e+01
   1.0776110e+03   7.2423770e+01
   1.0780930e+03   6.5907290e+01
   1.0785750e+03   5.8027890e+01
   1.0790570e+03   4.9292050e+01
   1.0795390e+03   4.4878780e+01
   1.0800210e+03   5.5517880e+01
   1.0805030e+03   7.3814150e+01
   1.0809850e+03   7.9107790e+01
   1.0814680e+03   6.3671140e+01
   1.0819500e+03   5.0632810e+01
   1.0824320e+03   4.2768130e+01
   1.0829140e+03   3.7489690e+01
   1.0833960e+03   3.1764650e+01
   1.0838780e+03   2.6182740e+01
   1.0843600e+03   2.1445310e+01
   1.0848420e+03   1.7557980e+01
   1.0853250e+03   1.6622560e+01
   1.0858070e+03   2.0880250e+01
   1.0862890e+03   2.7098210e+01
   1.0867710e+03   3.6149410e+01
   1.0872530e+03   4.5919800e+01
   1.0877350e+03   4.1191160e+01
   1.0882170e+03   2.4119930e+01
   1.0886990e+03   1.5268860e+01
   1.0891820e+03   3.1092830e+01
   1.0896640e+03   4.7437930e+01
   1.0901460e+03   4.5460390e+01
   1.0906280e+03   3.5010800e+01
   1.0911100e+03   3.0769170e+01
   1.0915920e+03   3.6369080e+01
   1.0920740e+03   3.5226990e+01
   1.0925560e+03   2.5530820e+01
   1.0930380e+03   1.6002810e+01
   1.0935210e+03   1.7278080e+01
   1.0940030e+03   2.1823730e+01
   1.0944850e+03   1.8014400e+01
   1.0949670e+03   6.5043330e+00
   1.0954490e+03   7.5427200e-01
   1.0959310e+03   9.3184200e+00
   1.0964130e+03   1.4569700e+01
   1.0968950e+03   1.0698240e+01
   1.0973770e+03   2.9430540e+00
   1.0978600e+03   2.3471070e+00
   1.0983420e+03   7.4407350e+00
   1.0988240e+03   1.3827270e+01
   1.0993060e+03   2.0300170e+01
   1.0997880e+03   2.8070070e+01
   1.1002700e+03   4.3651980e+01
   1.1007520e+03   5.5506410e+01
   1.1012340e+03   5.4482970e+01
   1.1017170e+03   4.0260740e+01
   1.1021990e+03   2.6299010e+01
   1.1026810e+03   1.2584290e+01
   1.1031630e+03   2.7232060e+00
   1.1036450e+03   2.6240840e+00
   1.1041270e+03   4.1550900e+00
   1.1046090e+03   1.6177060e+00
   1.1050910e+03   1.0592380e+01
   1.1055730e+03   1.1293360e+01
   1.1060560e+03   8.6359996e-03
   1.1065380e+03   9.6642150e+00
   1.1070200e+03   1.6228450e+01
   1.1075020e+03   2.0156490e+01
   1.1079840e+03   2.0546810e+01
   1.1084660e+03   1.9202150e+01
   1.1089480e+03   1.9262420e+01
   1.1094300e+03   2.1213650e+01
   1.1099120e+03   2.1604430e+01
   1.1103950e+03   2.0419400e+01
   1.1108770e+03   1.5967070e+01
   1.1113590e+03   1.6976620e+00
   1.1118410e+03   9.3152160e+00
   1.1123230e+03   1.3665860e+01
   1.1128050e+03   1.4925200e+01
   1.1132870e+03   3.8337100e+00
   1.1137690e+03   8.6902770e+00
   1.1142520e+03   7.1549380e+00
   1.1147340e+03   5.3585820e+00
   1.1152160e+03   1.2461490e+01
   1.1156980e+03   3.1716000e+00
   1.1161800e+03   1.0143460e+01
   1.1166620e+03   1.0630460e+01
   1.1171440e+03   1.4087710e+01
   1.1176260e+03   1.1113340e+01
   1.1181090e+03   1.0122590e+01
   1.1185910e+03   1.5563200e+01
   1.1190730e+03   1.7437960e+01
   1.1195550e+03   1.3710690e+01
   1.1200370e+03   1.7338010e+01
   1.1205190e+03   7.8090520e+00
   1.1210010e+03   9.8126830e+00
   1.1214830e+03   1.6787230e+01
   1.1219650e+03   1.3349610e+01
   1.1224480e+03   1.7057710e+01
   1.1229300e+03   1.8034820e+01
   1.1234120e+03   6.6217960e+00
   1.1238940e+03   5.9428710e+00
   1.1243760e+03   6.6812440e+00
   1.1248580e+03   1.8277280e+01
   1.1253400e+03   2.3316440e+01
   1.1258220e+03   1.0304960e+01
   1.1263040e+03   1.1564000e+01
   1.1267870e+03   1.6342250e+01
   1.1272690e+03   8.0213010e+00
   1.1277510e+03   1.8817440e+00
   1.1282330e+03   1.0100370e+01
   1.1287150e+03   1.7410520e+01
   1.1291970e+03   2.6677090e+01
   1.1296790e+03   3.2698390e+01
   1.1301610e+03   2.8719510e+01
   1.1306440e+03   1.5547090e+01
   1.1311260e+03   7.7294010e+00
   1.1316080e+03   5.6116030e+00
   1.1320900e+03   6.3869930e+00
   1.1325720e+03   8.6803590e+00
   1.1330540e+03   1.2846560e+01
   1.1335360e+03   2.2988310e+01
   1.1340180e+03   3.4499080e+01
   1.1345000e+03   3.3512270e+01
   1.1349830e+03   1.7898160e+01
   1.1354650e+03   1.0361600e+01
   1.1359470e+03   1.6292600e+01
   1.1364290e+03   2.4021240e+01
   1.1369110e+03   1.9921110e+01
   1.1373930e+03   1.2205140e+01
   1.1378750e+03   9.6611630e+00
   1.1383570e+03   1.4117130e+01
   1.1388390e+03   1.7635040e+01
   1.1393220e+03   2.0256500e+01
   1.1398040e+03   2.1603330e+01
   1.1402860e+03   2.1303650e+01
   1.1407680e+03   1.9904330e+01
   1.1412500e+03   1.8752780e+01
   1.1417320e+03   1.7070860e+01
   1.1422140e+03   1.3162570e+01
   1.1426960e+03   3.0598140e+00
   1.1431790e+03   2.4754030e+00
   1.1436610e+03   7.7603100e-01
   1.1441430e+03   2.1650090e+00
   1.1446250e+03   2.9446400e-01
   1.1451070e+03   5.2640380e+00
   1.1455890e+03   2.0141600e+00
   1.1460710e+03   8.2724300e+00
   1.1465530e+03   1.8233830e+01
   1.1470360e+03   2.7540800e+01
   1.1475180e+03   3.2548340e+01
   1.1480000e+03   3.0918910e+01
   1.1484820e+03   2.6073150e+01
   1.1489640e+03   2.3596500e+01
   1.1494460e+03   2.3209840e+01
   1.1499280e+03   2.2077820e+01
   1.1504100e+03   1.9515170e+01
   1.1508920e+03   1.9311950e+01
   1.1513750e+03   2.7140960e+01
   1.1518570e+03   3.5619780e+01
   1.1523390e+03   4.0502200e+01
   1.1528210e+03   4.1671050e+01
   1.1533030e+03   3.8223940e+01
   1.1537850e+03   3.0754060e+01
   1.1542670e+03   2.4937680e+01
   1.1547490e+03   2.1501650e+01
   1.1552310e+03   2.2483550e+01
   1.1557140e+03   3.4851380e+01
   1.1561960e+03   5.0334930e+01
   1.1566780e+03   5.9254390e+01
   1.1571600e+03   6.1175690e+01
   1.1576420e+03   5.6143160e+01
   1.1581240e+03   4.2825320e+01
   1.1586060e+03   3.2348750e+01
   1.1590880e+03   3.5675540e+01
   1.1595710e+03   4.2641080e+01
   1.1600530e+03   4.0231350e+01
   1.1605350e+03   3.2206480e+01
   1.1610170e+03   2.8079320e+01
   1.1614990e+03   3.0495480e+01
   1.1619810e+03   3.5088380e+01
   1.1624630e+03   4.2402280e+01
   1.1629450e+03   4.7723020e+01
   1.1634270e+03   4.5384160e+01
   1.1639100e+03   3.9972290e+01
   1.1643920e+03   3.6147000e+01
   1.1648740e+03   3.4209050e+01
   1.1653560e+03   3.4471440e+01
   1.1658380e+03   3.9756680e+01
   1.1663200e+03   4.2266300e+01
   1.1668020e+03   3.8962040e+01
   1.1672840e+03   3.4330230e+01
   1.1677660e+03   3.7768040e+01
   1.1682490e+03   4.5570770e+01
   1.1687310e+03   4.8218960e+01
   1.1692130e+03   4.2152470e+01
   1.1696950e+03   4.0458920e+01
   1.1701770e+03   5.3524960e+01
   1.1706590e+03   6.4001010e+01
   1.1711410e+03   6.1946870e+01
   1.1716230e+03   5.2779300e+01
   1.1721060e+03   5.8447880e+01
   1.1725880e+03   7.3900910e+01
   1.1730700e+03   7.9635310e+01
   1.1735520e+03   5.8675810e+01
   1.1740340e+03   4.0918670e+01
   1.1745160e+03   3.9189450e+01
   1.1749980e+03   4.5375550e+01
   1.1754800e+03   5.6679470e+01
   1.1759630e+03   7.2306270e+01
   1.1764450e+03   7.2170200e+01
   1.1769270e+03   5.7847080e+01
   1.1774090e+03   4.6726530e+01
   1.1778910e+03   5.3150670e+01
   1.1783730e+03   6.1523620e+01
   1.1788550e+03   6.5496090e+01
   1.1793370e+03   6.6010250e+01
   1.1798190e+03   6.3085570e+01
   1.1803020e+03   5.6637570e+01
   1.1807840e+03   5.5113980e+01
   1.1812660e+03   5.9420530e+01
   1.1817480e+03   6.4847530e+01
   1.1822300e+03   6.7337160e+01
   1.1827120e+03   7.0033330e+01
   1.1831940e+03   7.6584080e+01
   1.1836760e+03   8.5126280e+01
   1.1841580e+03   8.7788480e+01
   1.1846410e+03   8.5036470e+01
   1.1851230e+03   7.9838650e+01
   1.1856050e+03   7.2025510e+01
   1.1860870e+03   6.5745730e+01
   1.1865690e+03   6.6978670e+01
   1.1870510e+03   7.0735530e+01
   1.1875330e+03   7.2337400e+01
   1.1880150e+03   7.1023380e+01
   1.1884980e+03   6.8816010e+01
   1.1889800e+03   6.6097900e+01
   1.1894620e+03   6.1002040e+01
   1.1899440e+03   4.9554380e+01
   1.1904260e+03   4.0627930e+01
   1.1909080e+03   4.7624450e+01
   1.1913900e+03   6.2856870e+01
   1.1918720e+03   7.5742550e+01
   1.1923540e+03   8.7514620e+01
   1.1928370e+03   8.5912200e+01
   1.1933190e+03   6.7716770e+01
   1.1938010e+03   5.2196900e+01
   1.1942830e+03   5.7710510e+01
   1.1947650e+03   6.9732240e+01
   1.1952470e+03   6.8364380e+01
   1.1957290e+03   5.7812260e+01
   1.1962110e+03   4.9053470e+01
   1.1966930e+03   4.2236940e+01
   1.1971760e+03   4.1805910e+01
   1.1976580e+03   5.0077760e+01
   1.1981400e+03   5.7745030e+01
   1.1986220e+03   5.1512180e+01
   1.1991040e+03   4.1014400e+01
   1.1995860e+03   4.2545470e+01
   1.2000680e+03   5.4833800e+01
   1.2005500e+03   6.1498750e+01
   1.2010330e+03   5.6868530e+01
   1.2015150e+03   5.2657960e+01
   1.2019970e+03   5.0663360e+01
   1.2024790e+03   5.0212280e+01
   1.2029610e+03   5.2200560e+01
   1.2034430e+03   5.4506740e+01
   1.2039250e+03   5.1053280e+01
   1.2044070e+03   4.0351930e+01
   1.2048900e+03   3.8371550e+01
   1.2053720e+03   5.5539090e+01
   1.2058540e+03   6.4710510e+01
   1.2063360e+03   5.3583040e+01
   1.2068180e+03   3.4405240e+01
   1.2073000e+03   3.2164340e+01
   1.2077820e+03   4.0424380e+01
   1.2082640e+03   4.7230040e+01
   1.2087460e+03   5.0675230e+01
   1.2092290e+03   4.9078610e+01
   1.2097110e+03   3.9907140e+01
   1.2101930e+03   3.0794710e+01
   1.2106750e+03   2.5470250e+01
   1.2111570e+03   2.3224880e+01
   1.2116390e+03   2.2267150e+01
   1.2121210e+03   2.2657200e+01
   1.2126030e+03   2.4611050e+01
   1.2130850e+03   2.9867830e+01
   1.2135680e+03   3.3924930e+01
   1.2140500e+03   3.5530820e+01
   1.2145320e+03   3.7164060e+01
   1.2150140e+03   4.3003110e+01
   1.2154960e+03   4.9995060e+01
   1.2159780e+03   4.6520840e+01
   1.2164600e+03   3.5188230e+01
   1.2169420e+03   2.6835940e+01
   1.2174250e+03   2.9724180e+01
   1.2179070e+03   3.0542970e+01
   1.2183890e+03   2.6007320e+01
   1.2188710e+03   2.0606570e+01
   1.2193530e+03   1.9597960e+01
   1.2198350e+03   2.1913390e+01
   1.2203170e+03   2.5778200e+01
   1.2207990e+03   3.0402770e+01
   1.2212810e+03   3.2913020e+01
   1.2217640e+03   3.2179750e+01
   1.2222460e+03   2.8286380e+01
   1.2227280e+03   1.9207760e+01
   1.2232100e+03   1.0112120e+01
   1.2236920e+03   1.1678340e+01
   1.2241740e+03   1.9701660e+01
   1.2246560e+03   2.2698970e+01
   1.2251380e+03   1.8884830e+01
   1.2256200e+03   1.4053100e+01
   1.2261030e+03   6.7918700e+00
   1.2265850e+03   3.9248050e+00
   1.2270670e+03   1.0151490e+01
   1.2275490e+03   1.9359310e+01
   1.2280310e+03   1.6403500e+01
   1.2285130e+03   5.5067750e+00
   1.2289950e+03   1.3875730e+00
   1.2294770e+03   4.1613800e-01
   1.2299600e+03   1.6314090e+00
   1.2304420e+03   1.3137390e+01
   1.2309240e+03   1.9978120e+01
   1.2314060e+03   1.3150180e+01
   1.2318880e+03   1.3319700e+00
   1.2323700e+03   5.4422610e+00
   1.2328520e+03   2.9086300e+00
   1.2333340e+03   4.7598270e+00
   1.2338160e+03   1.8942690e+01
   1.2342990e+03   2.6897950e+01
   1.2347810e+03   2.2373840e+01
   1.2352630e+03   1.5308960e+01
   1.2357450e+03   1.1705810e+01
   1.2362270e+03   1.0620790e+01
   1.2367090e+03   9.3295290e+00
   1.2371910e+03   7.9436650e+00
   1.2376730e+03   6.8429570e+00
   1.2381560e+03   4.6863400e+00
   1.2386380e+03   5.3327640e+00
   1.2391200e+03   1.0398250e+01
   1.2396020e+03   1.5962520e+01
   1.2400840e+03   1.9703370e+01
   1.2405660e+03   2.0849610e+01
   1.2410480e+03   1.4052190e+01
   1.2415300e+03   1.8227540e+00
   1.2420120e+03   4.9431150e+00
   1.2424950e+03   3.7105100e+00
   1.2429770e+03   1.0455380e+01
   1.2434590e+03   1.3328490e+01
   1.2439410e+03   1.2635190e+01
   1.2444230e+03   5.0857540e+00
   1.2449050e+03   4.6213990e+00
   1.2453870e+03   4.3076170e+00
   1.2458690e+03   5.3384400e+00
   1.2463510e+03   1.3335690e+01
   1.2468340e+03   1.6046260e+01
   1.2473160e+03   1.6358340e+01
   1.2477980e+03   1.3617430e+01
   1.2482800e+03   1.0926090e+01
   1.2487620e+03   1.2587400e+01
   1.2492440e+03   1.7346620e+01
   1.2497260e+03   2.5367550e+01
   1.2502080e+03   3.6422730e+01
   1.2506910e+03   3.7203550e+01
   1.2511730e+03   1.6423830e+01
   1.2516550e+03   5.3581540e+00
   1.2521370e+03   1.4188480e+01
   1.2526190e+03   3.0822330e+01
   1.2531010e+03   3.7899660e+01
   1.2535830e+03   3.9215700e+01
   1.2540650e+03   4.1096800e+01
   1.2545470e+03   4.4871090e+01
   1.2550300e+03   4.4084840e+01
   1.2555120e+03   3.6165100e+01
   1.2559940e+03   3.0179810e+01
   1.2564760e+03   3.0220400e+01
   1.2569580e+03   3.1402530e+01
   1.2574400e+03   2.4140930e+01
   1.2579220e+03   1.1557010e+01
   1.2584040e+03   5.0669560e+00
   1.2588860e+03   1.0344240e+00
   1.2593690e+03   6.0275270e+00
   1.2598510e+03   2.3105530e+01
   1.2603330e+03   3.6098140e+01
   1.2608150e+03   3.5525820e+01
   1.2612970e+03   3.0175170e+01
   1.2617790e+03   3.2087650e+01
   1.2622610e+03   3.7039920e+01
   1.2627430e+03   3.8117000e+01
   1.2632260e+03   3.1850650e+01
   1.2637080e+03   3.0836360e+01
   1.2641900e+03   3.5220030e+01
   1.2646720e+03   3.7897890e+01
   1.2651540e+03   3.3226750e+01
   1.2656360e+03   2.9678040e+01
   1.2661180e+03   3.8500980e+01
   1.2666000e+03   5.1561220e+01
   1.2670830e+03   5.4788700e+01
   1.2675650e+03   4.4841250e+01
   1.2680470e+03   3.7275450e+01
   1.2685290e+03   3.2318910e+01
   1.2690110e+03   2.7438540e+01
   1.2694930e+03   1.7306950e+01
   1.2699750e+03   1.0186460e+01
   1.2704570e+03   1.7303160e+01
   1.2709390e+03   3.0007390e+01
   1.2714220e+03   3.2133670e+01
   1.2719040e+03   2.1623050e+01
   1.2723860e+03   1.6796020e+01
   1.2728680e+03   1.8238530e+01
   1.2733500e+03   1.9816590e+01
   1.2738320e+03   1.5111330e+01
   1.2743140e+03   1.1432070e+01
   1.2747960e+03   1.3768620e+01
   1.2752780e+03   2.0037840e+01
   1.2757610e+03   3.0038820e+01
   1.2762430e+03   4.3164790e+01
   1.2767250e+03   3.8103150e+01
   1.2772070e+03   1.3931580e+01
   1.2776890e+03   2.9426880e+00
   1.2781710e+03   1.0621950e+01
   1.2786530e+03   2.8221800e+01
   1.2791350e+03   3.9533020e+01
   1.2796180e+03   4.6045900e+01
   1.2801000e+03   4.9521300e+01
   1.2805820e+03   5.0529910e+01
   1.2810640e+03   5.1171940e+01
   1.2815460e+03   5.6837830e+01
   1.2820280e+03   5.3936040e+01
   1.2825100e+03   2.2417180e+01
   1.2829920e+03   2.6794400e-01
   1.2834740e+03   6.6528000e-02
   1.2839570e+03   0.0000000e+00
   1.5000000e+03   0.0000000e+00
