   1.0000000e+02   0.0000000e+00
   1.0871960e+02   0.0000000e+00
   1.0920170e+02   6.0312500e+00
   1.0968380e+02   1.2333980e+00
   1.1016600e+02   6.4760740e+00
   1.1064810e+02   3.8985350e+01
   1.1113020e+02   9.1354490e+01
   1.1161230e+02   9.8370120e+01
   1.1209440e+02   5.2557620e+01
   1.1257650e+02   1.0434080e+01
   1.1305870e+02   7.8964840e+00
   1.1354080e+02   7.5673830e+00
   1.1402290e+02   2.3233890e+01
   1.1450500e+02   2.9920410e+01
   1.1498710e+02   3.0832520e+01
   1.1546920e+02   3.2157710e+01
   1.1595140e+02   3.5624510e+01
   1.1643350e+02   4.0780270e+01
   1.1691560e+02   4.7853520e+01
   1.1739770e+02   6.0793460e+01
   1.1787980e+02   6.9639160e+01
   1.1836190e+02   6.5050780e+01
   1.1884410e+02   5.0202640e+01
   1.1932620e+02   3.9864750e+01
   1.1980830e+02   4.2387700e+01
   1.2029040e+02   5.3422360e+01
   1.2077250e+02   6.8378420e+01
   1.2125460e+02   8.7362300e+01
   1.2173680e+02   1.0915190e+02
   1.2221890e+02   1.3699560e+02
   1.2270100e+02   1.7028810e+02
   1.2318310e+02   1.9768020e+02
   1.2366520e+02   2.0672660e+02
   1.2414730e+02   2.0283690e+02
   1.2462950e+02   1.9689700e+02
   1.2511160e+02   1.8400200e+02
   1.2559370e+02   1.7457370e+02
   1.2607580e+02   1.8760350e+02
   1.2655790e+02   2.2775730e+02
   1.2704000e+02   2.7734130e+02
   1.2752220e+02   3.1549800e+02
   1.2800430e+02   3.4465820e+02
   1.2848640e+02   3.7683200e+02
   1.2896850e+02   4.2593460e+02
   1.2945060e+02   4.8522510e+02
   1.2993280e+02   5.3325490e+02
   1.3041490e+02   5.6272360e+02
   1.3089700e+02   5.8180760e+02
   1.3137910e+02   6.1095260e+02
   1.3186120e+02   6.5170120e+02
   1.3234330e+02   6.9653660e+02
   1.3282550e+02   7.4866550e+02
   1.3330760e+02   8.0802390e+02
   1.3378970e+02   8.5054440e+02
   1.3427180e+02   8.6733980e+02
   1.3475390e+02   8.6593510e+02
   1.3523600e+02   8.4114750e+02
   1.3571820e+02   7.7630030e+02
   1.3620030e+02   6.8892190e+02
   1.3668240e+02   6.0412650e+02
   1.3716450e+02   5.2368850e+02
   1.3764660e+02   4.6309810e+02
   1.3812870e+02   4.2851860e+02
   1.3861090e+02   4.2290480e+02
   1.3909300e+02   4.2144730e+02
   1.3957510e+02   4.1764990e+02
   1.4005720e+02   4.1110010e+02
   1.4053930e+02   3.9179200e+02
   1.4102140e+02   3.5192720e+02
   1.4150360e+02   3.1202100e+02
   1.4198570e+02   2.8243900e+02
   1.4246780e+02   2.6668160e+02
   1.4294990e+02   2.5239400e+02
   1.4343200e+02   2.3913920e+02
   1.4391410e+02   2.2742970e+02
   1.4439630e+02   2.1973140e+02
   1.4487840e+02   2.2137450e+02
   1.4536050e+02   2.2078270e+02
   1.4584260e+02   2.1069870e+02
   1.4632470e+02   1.7604830e+02
   1.4680680e+02   1.5567090e+02
   1.4728900e+02   1.6036670e+02
   1.4777110e+02   1.8739700e+02
   1.4825320e+02   1.9914840e+02
   1.4873530e+02   1.8644780e+02
   1.4921740e+02   1.6438040e+02
   1.4969950e+02   1.4355080e+02
   1.5018170e+02   1.2110840e+02
   1.5066380e+02   1.0277590e+02
   1.5114590e+02   8.8863280e+01
   1.5162800e+02   7.9259280e+01
   1.5211010e+02   7.5181640e+01
   1.5259220e+02   8.3127930e+01
   1.5307440e+02   9.4106930e+01
   1.5355650e+02   9.9311520e+01
   1.5403860e+02   9.1253420e+01
   1.5452070e+02   8.2973630e+01
   1.5500280e+02   7.9021970e+01
   1.5548490e+02   8.1887210e+01
   1.5596710e+02   8.1134770e+01
   1.5644920e+02   7.3342290e+01
   1.5693130e+02   6.1002440e+01
   1.5741340e+02   4.8047360e+01
   1.5789550e+02   3.1524900e+01
   1.5837770e+02   1.7457030e+01
   1.5885980e+02   9.9965820e+00
   1.5934190e+02   1.5508300e+01
   1.5982400e+02   1.5916990e+01
   1.6030610e+02   5.8056600e-01
   1.6078820e+02   2.7135250e+01
   1.6127040e+02   4.6514160e+01
   1.6175250e+02   4.8891110e+01
   1.6223460e+02   4.3750000e+01
   1.6271670e+02   3.6898930e+01
   1.6319880e+02   2.3664550e+01
   1.6368090e+02   1.6401370e+01
   1.6416310e+02   2.4608400e+01
   1.6464520e+02   4.5403320e+01
   1.6512730e+02   6.5041990e+01
   1.6560940e+02   7.6544430e+01
   1.6609150e+02   8.3350100e+01
   1.6657360e+02   8.6351560e+01
   1.6705580e+02   8.7723140e+01
   1.6753790e+02   8.9160640e+01
   1.6802000e+02   9.4592290e+01
   1.6850210e+02   1.0337550e+02
   1.6898420e+02   1.0611080e+02
   1.6946630e+02   9.0474120e+01
   1.6994850e+02   6.5752930e+01
   1.7043060e+02   4.5495610e+01
   1.7091270e+02   3.9222660e+01
   1.7139480e+02   3.7370610e+01
   1.7187690e+02   3.4103520e+01
   1.7235900e+02   2.9331050e+01
   1.7284120e+02   2.2088380e+01
   1.7332330e+02   9.9555660e+00
   1.7380540e+02   5.2734380e+00
   1.7428750e+02   1.9533200e+01
   1.7476960e+02   2.9414550e+01
   1.7525170e+02   3.7687500e+01
   1.7573390e+02   4.6523930e+01
   1.7621600e+02   5.5125000e+01
   1.7669810e+02   6.9215330e+01
   1.7718020e+02   9.6931640e+01
   1.7766230e+02   1.3630270e+02
   1.7814440e+02   1.7886230e+02
   1.7862660e+02   2.1858200e+02
   1.7910870e+02   2.5887300e+02
   1.7959080e+02   3.0719090e+02
   1.8007290e+02   3.6650150e+02
   1.8055500e+02   4.2910350e+02
   1.8103710e+02   4.8104440e+02
   1.8151930e+02   5.2440280e+02
   1.8200140e+02   5.7032860e+02
   1.8248350e+02   6.2537740e+02
   1.8296560e+02   6.8895170e+02
   1.8344770e+02   7.6182670e+02
   1.8392980e+02   8.4456790e+02
   1.8441200e+02   9.3539060e+02
   1.8489410e+02   1.0304820e+03
   1.8537620e+02   1.1307620e+03
   1.8585830e+02   1.2368480e+03
   1.8634040e+02   1.3523640e+03
   1.8682250e+02   1.4753120e+03
   1.8730470e+02   1.6017130e+03
   1.8778680e+02   1.7291780e+03
   1.8826890e+02   1.8591010e+03
   1.8875100e+02   1.9951650e+03
   1.8923310e+02   2.1368240e+03
   1.8971520e+02   2.2841340e+03
   1.9019740e+02   2.4341320e+03
   1.9067950e+02   2.5864710e+03
   1.9116160e+02   2.7481500e+03
   1.9164370e+02   2.9265360e+03
   1.9212580e+02   3.1159370e+03
   1.9260800e+02   3.2884580e+03
   1.9309010e+02   3.4478960e+03
   1.9357220e+02   3.5858650e+03
   1.9405430e+02   3.6963290e+03
   1.9453640e+02   3.7790840e+03
   1.9501850e+02   3.8279010e+03
   1.9550070e+02   3.8240210e+03
   1.9598280e+02   3.7740780e+03
   1.9646490e+02   3.7571240e+03
   1.9694700e+02   3.7783210e+03
   1.9742910e+02   3.8191050e+03
   1.9791120e+02   3.8561090e+03
   1.9839340e+02   3.8892940e+03
   1.9887550e+02   3.9191400e+03
   1.9935760e+02   3.9490790e+03
   1.9983970e+02   3.9796770e+03
   2.0032180e+02   3.9940180e+03
   2.0080390e+02   3.9924720e+03
   2.0128610e+02   3.9741150e+03
   2.0176820e+02   3.9353970e+03
   2.0225030e+02   3.8743470e+03
   2.0273240e+02   3.8019890e+03
   2.0321450e+02   3.7272890e+03
   2.0369660e+02   3.6534240e+03
   2.0417880e+02   3.5494310e+03
   2.0466090e+02   3.4104030e+03
   2.0514300e+02   3.2460160e+03
   2.0562510e+02   3.0751220e+03
   2.0610720e+02   2.8947040e+03
   2.0658930e+02   2.7172370e+03
   2.0707150e+02   2.5531260e+03
   2.0755360e+02   2.4097510e+03
   2.0803570e+02   2.2462910e+03
   2.0851780e+02   2.0499220e+03
   2.0899990e+02   1.8372460e+03
   2.0948200e+02   1.6547330e+03
   2.0996420e+02   1.5112460e+03
   2.1044630e+02   1.3774880e+03
   2.1092840e+02   1.2305760e+03
   2.1141050e+02   1.0610560e+03
   2.1189260e+02   9.2014650e+02
   2.1237470e+02   8.1968070e+02
   2.1285690e+02   7.5095950e+02
   2.1333900e+02   6.7058010e+02
   2.1382110e+02   5.7006540e+02
   2.1430320e+02   4.7523780e+02
   2.1478530e+02   4.0643800e+02
   2.1526740e+02   3.7355660e+02
   2.1574960e+02   3.3785160e+02
   2.1623170e+02   2.9267330e+02
   2.1671380e+02   2.4033060e+02
   2.1719590e+02   1.9468510e+02
   2.1767800e+02   1.5423240e+02
   2.1816010e+02   1.2059810e+02
   2.1864230e+02   9.7080570e+01
   2.1912440e+02   8.9872070e+01
   2.1960650e+02   7.8575200e+01
   2.2008860e+02   5.4789550e+01
   2.2057070e+02   2.0644040e+01
   2.2105280e+02   1.4892580e+01
   2.2153500e+02   5.0125980e+01
   2.2201710e+02   9.5453610e+01
   2.2249920e+02   1.2232960e+02
   2.2298130e+02   1.1627290e+02
   2.2346340e+02   1.2429980e+02
   2.2394550e+02   1.5650730e+02
   2.2442770e+02   2.1384470e+02
   2.2490980e+02   2.7245170e+02
   2.2539190e+02   3.2216650e+02
   2.2587400e+02   3.8527250e+02
   2.2635610e+02   4.8760890e+02
   2.2683820e+02   6.4479490e+02
   2.2732040e+02   8.1062940e+02
   2.2780250e+02   9.7639400e+02
   2.2828460e+02   1.1409400e+03
   2.2876670e+02   1.3081200e+03
   2.2924880e+02   1.4766970e+03
   2.2973100e+02   1.6442350e+03
   2.3021310e+02   1.8062660e+03
   2.3069520e+02   1.9461520e+03
   2.3117730e+02   2.1093470e+03
   2.3165940e+02   2.3086370e+03
   2.3214150e+02   2.5449840e+03
   2.3262370e+02   2.7981140e+03
   2.3310580e+02   3.0687020e+03
   2.3358790e+02   3.3555160e+03
   2.3407000e+02   3.6541470e+03
   2.3455210e+02   3.9484240e+03
   2.3503420e+02   4.2817760e+03
   2.3551640e+02   4.6607440e+03
   2.3599850e+02   5.0844200e+03
   2.3648060e+02   5.5635400e+03
   2.3696270e+02   6.1035250e+03
   2.3744480e+02   6.6867580e+03
   2.3792690e+02   7.2935870e+03
   2.3840910e+02   7.9048440e+03
   2.3889120e+02   8.5660660e+03
   2.3937330e+02   9.2959150e+03
   2.3985540e+02   1.0105870e+04
   2.4033750e+02   1.0931390e+04
   2.4081960e+02   1.1800050e+04
   2.4130180e+02   1.2671410e+04
   2.4178390e+02   1.3528800e+04
   2.4226600e+02   1.4503060e+04
   2.4274810e+02   1.5232690e+04
   2.4323020e+02   1.5634500e+04
   2.4371230e+02   1.5726440e+04
   2.4419450e+02   1.5399490e+04
   2.4467660e+02   1.4541890e+04
   2.4515870e+02   1.3338880e+04
   2.4564080e+02   1.2020920e+04
   2.4612290e+02   1.0450930e+04
   2.4660500e+02   8.9958610e+03
   2.4708720e+02   7.7678970e+03
   2.4756930e+02   6.7855140e+03
   2.4805140e+02   5.9575870e+03
   2.4853350e+02   5.3055790e+03
   2.4901560e+02   4.7925790e+03
   2.4949770e+02   4.3662930e+03
   2.4997990e+02   4.0368510e+03
   2.5046200e+02   3.7857090e+03
   2.5094410e+02   3.6119580e+03
   2.5142620e+02   3.5242580e+03
   2.5190830e+02   3.4827520e+03
   2.5239040e+02   3.4950680e+03
   2.5287260e+02   3.5491550e+03
   2.5335470e+02   3.6228380e+03
   2.5383680e+02   3.7116730e+03
   2.5431890e+02   3.8299330e+03
   2.5480100e+02   3.9892810e+03
   2.5528310e+02   4.2028470e+03
   2.5576530e+02   4.4060000e+03
   2.5624740e+02   4.5902250e+03
   2.5672950e+02   4.7686640e+03
   2.5721160e+02   4.9609450e+03
   2.5769370e+02   5.1689030e+03
   2.5817580e+02   5.3856310e+03
   2.5865800e+02   5.6018670e+03
   2.5914010e+02   5.8102530e+03
   2.5962220e+02   6.0554280e+03
   2.6010430e+02   6.3382730e+03
   2.6058640e+02   6.6558460e+03
   2.6106850e+02   6.9973400e+03
   2.6155070e+02   7.3620520e+03
   2.6203280e+02   7.7503130e+03
   2.6251490e+02   8.1589350e+03
   2.6299700e+02   8.5817480e+03
   2.6347910e+02   9.0658240e+03
   2.6396120e+02   9.6297360e+03
   2.6444340e+02   1.0244480e+04
   2.6492550e+02   1.0858490e+04
   2.6540760e+02   1.1457210e+04
   2.6588970e+02   1.2091820e+04
   2.6637180e+02   1.2799410e+04
   2.6685390e+02   1.3588770e+04
   2.6733610e+02   1.4359090e+04
   2.6781820e+02   1.5099480e+04
   2.6830030e+02   1.5822410e+04
   2.6878240e+02   1.6563790e+04
   2.6926450e+02   1.7331920e+04
   2.6974660e+02   1.8084060e+04
   2.7022880e+02   1.8843640e+04
   2.7071090e+02   1.9623830e+04
   2.7119300e+02   2.0260750e+04
   2.7167510e+02   2.0772010e+04
   2.7215720e+02   2.1125360e+04
   2.7263930e+02   2.1261500e+04
   2.7312150e+02   2.1162710e+04
   2.7360360e+02   2.0921380e+04
   2.7408570e+02   2.0547700e+04
   2.7456780e+02   2.0035600e+04
   2.7504990e+02   1.9497860e+04
   2.7553200e+02   1.8914900e+04
   2.7601420e+02   1.8329610e+04
   2.7649630e+02   1.7799060e+04
   2.7697840e+02   1.7322320e+04
   2.7746050e+02   1.6897380e+04
   2.7794260e+02   1.6531390e+04
   2.7842470e+02   1.6224430e+04
   2.7890690e+02   1.5912160e+04
   2.7938900e+02   1.5588340e+04
   2.7987110e+02   1.5277380e+04
   2.8035320e+02   1.5036160e+04
   2.8083540e+02   1.4873600e+04
   2.8131750e+02   1.4669330e+04
   2.8179960e+02   1.4390970e+04
   2.8228170e+02   1.4036710e+04
   2.8276380e+02   1.3589500e+04
   2.8324590e+02   1.3043070e+04
   2.8372810e+02   1.2423180e+04
   2.8421020e+02   1.1746320e+04
   2.8469230e+02   1.1012510e+04
   2.8517440e+02   1.0266380e+04
   2.8565650e+02   9.5207000e+03
   2.8613860e+02   8.7780900e+03
   2.8662080e+02   8.0687450e+03
   2.8710290e+02   7.3902870e+03
   2.8758500e+02   6.7463960e+03
   2.8806710e+02   6.1277980e+03
   2.8854920e+02   5.5358950e+03
   2.8903130e+02   4.9864490e+03
   2.8951350e+02   4.4937600e+03
   2.8999560e+02   4.0478970e+03
   2.9047770e+02   3.6072300e+03
   2.9095980e+02   3.1681450e+03
   2.9144190e+02   2.7463880e+03
   2.9192400e+02   2.3543640e+03
   2.9240620e+02   1.9913050e+03
   2.9288830e+02   1.6636270e+03
   2.9337040e+02   1.3676410e+03
   2.9385250e+02   1.1082640e+03
   2.9433460e+02   8.9600290e+02
   2.9481670e+02   7.3370410e+02
   2.9529890e+02   5.9466700e+02
   2.9578100e+02   4.5512260e+02
   2.9626310e+02   3.1956880e+02
   2.9674520e+02   1.9777830e+02
   2.9722730e+02   9.9117190e+01
   2.9770940e+02  -5.3878910e+01
   2.9819160e+02   3.7764450e+01
   2.9867370e+02   8.9950530e+01
   2.9915580e+02   1.0479960e+02
   2.9963790e+02  -2.9516030e+01
   3.0012000e+02   2.8783690e+01
   3.0060210e+02   9.8919600e+00
   3.0108430e+02  -1.2164830e+01
   3.0156640e+02   7.3244780e+01
   3.0204850e+02  -3.9375270e+01
   3.0253060e+02   4.4330100e+01
   3.0301270e+02   4.9665870e+01
   3.0349480e+02   9.0869520e+01
   3.0397700e+02   5.4405080e+01
   3.0445910e+02   4.1929710e+01
   3.0494120e+02   1.0714740e+02
   3.0542330e+02   1.2934590e+02
   3.0590540e+02   8.3940290e+01
   3.0638750e+02   1.2742390e+02
   3.0686970e+02   1.2091010e+01
   3.0735180e+02   1.3865480e+02
   3.0783390e+02   2.4131350e+02
   3.0831600e+02   3.4147710e+02
   3.0879810e+02   4.3929830e+02
   3.0928020e+02   5.2855860e+02
   3.0976240e+02   5.9073390e+02
   3.1024450e+02   6.3589260e+02
   3.1072660e+02   6.9564940e+02
   3.1120870e+02   8.0486180e+02
   3.1169080e+02   9.2701610e+02
   3.1217290e+02   1.0293760e+03
   3.1265510e+02   1.0986600e+03
   3.1313720e+02   1.1642620e+03
   3.1361930e+02   1.2530170e+03
   3.1410140e+02   1.3508320e+03
   3.1458350e+02   1.4231890e+03
   3.1506560e+02   1.4471250e+03
   3.1554780e+02   1.4474280e+03
   3.1602990e+02   1.4363270e+03
   3.1651200e+02   1.4089390e+03
   3.1699410e+02   1.3883110e+03
   3.1747620e+02   1.3792200e+03
   3.1795830e+02   1.3830650e+03
   3.1844050e+02   1.4026470e+03
   3.1892260e+02   1.4396270e+03
   3.1940470e+02   1.4919070e+03
   3.1988680e+02   1.5561780e+03
   3.2036890e+02   1.6277660e+03
   3.2085100e+02   1.7262570e+03
   3.2133320e+02   1.8601470e+03
   3.2181530e+02   2.0223750e+03
   3.2229740e+02   2.2049200e+03
   3.2277950e+02   2.4502140e+03
   3.2326160e+02   2.6753540e+03
   3.2374370e+02   2.8535340e+03
   3.2422590e+02   2.9778010e+03
   3.2470800e+02   3.0808720e+03
   3.2519010e+02   3.1698000e+03
   3.2567220e+02   3.2376780e+03
   3.2615430e+02   3.2773500e+03
   3.2663640e+02   3.2971160e+03
   3.2711860e+02   3.2801490e+03
   3.2760070e+02   3.2138750e+03
   3.2808280e+02   3.0932740e+03
   3.2856490e+02   2.9772370e+03
   3.2904700e+02   2.8656870e+03
   3.2952910e+02   2.7585080e+03
   3.3001130e+02   2.6565690e+03
   3.3049340e+02   2.5704120e+03
   3.3097550e+02   2.4722100e+03
   3.3145760e+02   2.3503070e+03
   3.3193970e+02   2.2079770e+03
   3.3242180e+02   2.0834620e+03
   3.3290400e+02   1.9707330e+03
   3.3338610e+02   1.8826180e+03
   3.3386820e+02   1.8297730e+03
   3.3435030e+02   1.8207900e+03
   3.3483240e+02   1.8243420e+03
   3.3531450e+02   1.8326210e+03
   3.3579670e+02   1.8511480e+03
   3.3627880e+02   1.9079330e+03
   3.3676090e+02   2.0149140e+03
   3.3724300e+02   2.1357420e+03
   3.3772510e+02   2.2485210e+03
   3.3820720e+02   2.3553150e+03
   3.3868940e+02   2.4498770e+03
   3.3917150e+02   2.5279340e+03
   3.3965360e+02   2.5981320e+03
   3.4013570e+02   2.6875380e+03
   3.4061780e+02   2.8047180e+03
   3.4109990e+02   2.9014030e+03
   3.4158210e+02   2.9478630e+03
   3.4206420e+02   2.9438700e+03
   3.4254630e+02   2.9346790e+03
   3.4302840e+02   2.9230990e+03
   3.4351050e+02   2.9045630e+03
   3.4399260e+02   2.8667130e+03
   3.4447480e+02   2.8101790e+03
   3.4495690e+02   2.7572100e+03
   3.4543900e+02   2.7280880e+03
   3.4592110e+02   2.7136170e+03
   3.4640320e+02   2.6762280e+03
   3.4688530e+02   2.6161880e+03
   3.4736750e+02   2.5313410e+03
   3.4784960e+02   2.4226460e+03
   3.4833170e+02   2.2891990e+03
   3.4881380e+02   2.1229310e+03
   3.4929590e+02   1.9051940e+03
   3.4977800e+02   1.6609930e+03
   3.5026020e+02   1.4250390e+03
   3.5074230e+02   1.1983760e+03
   3.5122440e+02   9.7840970e+02
   3.5170650e+02   7.4814990e+02
   3.5218870e+02   5.2298100e+02
   3.5267080e+02   3.3927390e+02
   3.5315290e+02   2.1945120e+02
   3.5363500e+02   1.3542430e+02
   3.5411710e+02   5.7103520e+01
   3.5459920e+02   1.4163570e+01
   3.5508140e+02   6.5412110e+01
   3.5556350e+02   8.2851560e+01
   3.5604560e+02   8.2900880e+01
   3.5652770e+02   7.8045900e+01
   3.5700980e+02   6.5255370e+01
   3.5749190e+02   5.2116210e+01
   3.5797410e+02   4.9311520e+01
   3.5845620e+02   5.0956050e+01
   3.5893830e+02   4.0133300e+01
   3.5942040e+02   5.5322300e-01
   3.5990250e+02   4.9454590e+01
   3.6038460e+02   8.8510250e+01
   3.6086680e+02   1.0594730e+02
   3.6134890e+02   1.4126510e+02
   3.6183100e+02   2.1983980e+02
   3.6231310e+02   3.2601170e+02
   3.6279520e+02   4.3242530e+02
   3.6327730e+02   5.0935450e+02
   3.6375950e+02   6.0321530e+02
   3.6424160e+02   7.3654000e+02
   3.6472370e+02   9.1886620e+02
   3.6520580e+02   1.1026320e+03
   3.6568790e+02   1.2726700e+03
   3.6617000e+02   1.4411570e+03
   3.6665220e+02   1.6204380e+03
   3.6713430e+02   1.8180870e+03
   3.6761640e+02   2.0198590e+03
   3.6809850e+02   2.2206400e+03
   3.6858060e+02   2.4193810e+03
   3.6906270e+02   2.6382220e+03
   3.6954490e+02   2.8913050e+03
   3.7002700e+02   3.1550370e+03
   3.7050910e+02   3.4149180e+03
   3.7099120e+02   3.6488970e+03
   3.7147330e+02   3.9221360e+03
   3.7195540e+02   4.2452060e+03
   3.7243760e+02   4.6109120e+03
   3.7291970e+02   4.9826550e+03
   3.7340180e+02   5.3610510e+03
   3.7388390e+02   5.7357210e+03
   3.7436600e+02   6.1157310e+03
   3.7484810e+02   6.5149900e+03
   3.7533030e+02   6.8530380e+03
   3.7581240e+02   7.1295210e+03
   3.7629450e+02   7.3362500e+03
   3.7677660e+02   7.4637720e+03
   3.7725870e+02   7.5119160e+03
   3.7774080e+02   7.4856830e+03
   3.7822300e+02   7.3743640e+03
   3.7870510e+02   7.1807880e+03
   3.7918720e+02   6.9539070e+03
   3.7966930e+02   6.6893800e+03
   3.8015140e+02   6.4117560e+03
   3.8063350e+02   6.1530470e+03
   3.8111570e+02   5.9111630e+03
   3.8159780e+02   5.6873930e+03
   3.8207990e+02   5.4770270e+03
   3.8256200e+02   5.2860870e+03
   3.8304410e+02   5.1276440e+03
   3.8352620e+02   5.0002530e+03
   3.8400840e+02   4.9106000e+03
   3.8449050e+02   4.8785390e+03
   3.8497260e+02   4.8882350e+03
   3.8545470e+02   4.8999380e+03
   3.8593680e+02   4.9011160e+03
   3.8641890e+02   4.9018200e+03
   3.8690110e+02   4.9101260e+03
   3.8738320e+02   4.9270120e+03
   3.8786530e+02   4.9570490e+03
   3.8834740e+02   4.9900700e+03
   3.8882950e+02   5.0435010e+03
   3.8931160e+02   5.1378330e+03
   3.8979380e+02   5.2802310e+03
   3.9027590e+02   5.4521220e+03
   3.9075800e+02   5.6551560e+03
   3.9124010e+02   5.8799680e+03
   3.9172220e+02   6.1084720e+03
   3.9220430e+02   6.3450640e+03
   3.9268650e+02   6.5729380e+03
   3.9316860e+02   6.7843610e+03
   3.9365070e+02   6.9734420e+03
   3.9413280e+02   7.1565100e+03
   3.9461490e+02   7.3212070e+03
   3.9509700e+02   7.4887080e+03
   3.9557920e+02   7.6827600e+03
   3.9606130e+02   7.8745590e+03
   3.9654340e+02   8.1265620e+03
   3.9702550e+02   8.4616190e+03
   3.9750760e+02   8.8770790e+03
   3.9798970e+02   9.3408610e+03
   3.9847190e+02   9.8473970e+03
   3.9895400e+02   1.0404580e+04
   3.9943610e+02   1.1018120e+04
   3.9991820e+02   1.1716800e+04
   4.0040030e+02   1.2429190e+04
   4.0088240e+02   1.3148450e+04
   4.0136460e+02   1.3881800e+04
   4.0184670e+02   1.4643730e+04
   4.0232880e+02   1.5447060e+04
   4.0281090e+02   1.6251710e+04
   4.0329300e+02   1.7064430e+04
   4.0377510e+02   1.7930120e+04
   4.0425730e+02   1.8626850e+04
   4.0473940e+02   1.9165870e+04
   4.0522150e+02   1.9522330e+04
   4.0570360e+02   1.9632950e+04
   4.0618570e+02   1.9482840e+04
   4.0666780e+02   1.9195490e+04
   4.0715000e+02   1.8772150e+04
   4.0763210e+02   1.8237290e+04
   4.0811420e+02   1.7734720e+04
   4.0859630e+02   1.7265480e+04
   4.0907840e+02   1.6849880e+04
   4.0956050e+02   1.6532400e+04
   4.1004270e+02   1.6298240e+04
   4.1052480e+02   1.6071930e+04
   4.1100690e+02   1.5874620e+04
   4.1148900e+02   1.5624770e+04
   4.1197110e+02   1.5188310e+04
   4.1245320e+02   1.4570340e+04
   4.1293540e+02   1.3825110e+04
   4.1341750e+02   1.2970920e+04
   4.1389960e+02   1.2036170e+04
   4.1438170e+02   1.1046850e+04
   4.1486380e+02   9.9938120e+03
   4.1534590e+02   8.9666810e+03
   4.1582810e+02   8.0543270e+03
   4.1631020e+02   7.2316740e+03
   4.1679230e+02   6.4520580e+03
   4.1727440e+02   5.6856320e+03
   4.1775650e+02   4.9772230e+03
   4.1823860e+02   4.3859660e+03
   4.1872080e+02   3.9137160e+03
   4.1920290e+02   3.4700630e+03
   4.1968500e+02   2.9956900e+03
   4.2016710e+02   2.5370730e+03
   4.2064920e+02   2.1307300e+03
   4.2113130e+02   1.8010950e+03
   4.2161350e+02   1.5151400e+03
   4.2209560e+02   1.2617220e+03
   4.2257770e+02   1.0431550e+03
   4.2305980e+02   8.5867920e+02
   4.2354200e+02   7.2928370e+02
   4.2402410e+02   6.2047120e+02
   4.2450620e+02   5.1591060e+02
   4.2498830e+02   4.2249900e+02
   4.2547040e+02   3.2115280e+02
   4.2595250e+02   1.9472900e+02
   4.2643470e+02  -6.5372260e+00
   4.2691680e+02   8.3790230e+01
   4.2739890e+02   1.3466060e+02
   4.2788100e+02   1.4819410e+02
   4.2836310e+02   1.2562700e+01
   4.2884520e+02   6.9546810e+01
   4.2932740e+02   4.9339400e+01
   4.2980950e+02   2.5966710e+01
   4.3029160e+02   1.1006060e+02
   4.3077370e+02  -3.8750550e+00
   4.3125580e+02   7.8514600e+01
   4.3173790e+02   8.2534770e+01
   4.3222010e+02   1.2242270e+02
   4.3270220e+02   8.4642400e+01
   4.3318430e+02   7.0851320e+01
   4.3366640e+02   1.3475340e+02
   4.3414850e+02   1.5563620e+02
   4.3463060e+02   1.0891500e+02
   4.3511280e+02   1.5108290e+02
   4.3559490e+02   3.4434130e+01
   4.3607700e+02   1.2955470e+02
   4.3655910e+02   1.9905420e+02
   4.3704120e+02   2.5988960e+02
   4.3752330e+02   3.1314840e+02
   4.3800550e+02   3.6088380e+02
   4.3848760e+02   4.0337650e+02
   4.3896970e+02   4.4134810e+02
   4.3945180e+02   4.7555570e+02
   4.3993390e+02   5.0610160e+02
   4.4041600e+02   5.3094780e+02
   4.4089820e+02   5.4642770e+02
   4.4138030e+02   5.5667720e+02
   4.4186240e+02   5.6531250e+02
   4.4234450e+02   5.6203610e+02
   4.4282660e+02   5.7110060e+02
   4.4330870e+02   6.1060940e+02
   4.4379090e+02   6.7117140e+02
   4.4427300e+02   7.2427340e+02
   4.4475510e+02   7.5413480e+02
   4.4523720e+02   7.8149510e+02
   4.4571930e+02   8.1485450e+02
   4.4620140e+02   8.5538570e+02
   4.4668360e+02   8.9729390e+02
   4.4716570e+02   9.4455810e+02
   4.4764780e+02   9.9041940e+02
   4.4812990e+02   1.0273570e+03
   4.4861200e+02   1.0542450e+03
   4.4909410e+02   1.0709720e+03
   4.4957630e+02   1.0722010e+03
   4.5005840e+02   1.0599260e+03
   4.5054050e+02   1.0575390e+03
   4.5102260e+02   1.0701520e+03
   4.5150470e+02   1.0861410e+03
   4.5198680e+02   1.0955330e+03
   4.5246900e+02   1.0972240e+03
   4.5295110e+02   1.1068370e+03
   4.5343320e+02   1.1285590e+03
   4.5391530e+02   1.1543740e+03
   4.5439740e+02   1.1668530e+03
   4.5487950e+02   1.1667150e+03
   4.5536170e+02   1.1683890e+03
   4.5584380e+02   1.1805750e+03
   4.5632590e+02   1.1996340e+03
   4.5680800e+02   1.2160130e+03
   4.5729010e+02   1.2292150e+03
   4.5777220e+02   1.2432380e+03
   4.5825440e+02   1.2682080e+03
   4.5873650e+02   1.2956280e+03
   4.5921860e+02   1.3081940e+03
   4.5970070e+02   1.2878120e+03
   4.6018280e+02   1.2664350e+03
   4.6066490e+02   1.2679910e+03
   4.6114710e+02   1.2903500e+03
   4.6162920e+02   1.3257700e+03
   4.6211130e+02   1.3811090e+03
   4.6259340e+02   1.4412590e+03
   4.6307550e+02   1.4906840e+03
   4.6355760e+02   1.5171880e+03
   4.6403980e+02   1.5697970e+03
   4.6452190e+02   1.6762880e+03
   4.6500400e+02   1.8129250e+03
   4.6548610e+02   1.9491970e+03
   4.6596820e+02   2.0657890e+03
   4.6645030e+02   2.1967520e+03
   4.6693250e+02   2.3461950e+03
   4.6741460e+02   2.5137920e+03
   4.6789670e+02   2.7125920e+03
   4.6837880e+02   2.9559820e+03
   4.6886090e+02   3.2155040e+03
   4.6934300e+02   3.4746500e+03
   4.6982520e+02   3.7312450e+03
   4.7030730e+02   3.9963130e+03
   4.7078940e+02   4.2781470e+03
   4.7127150e+02   4.5611030e+03
   4.7175360e+02   4.8121080e+03
   4.7223570e+02   5.0277710e+03
   4.7271790e+02   5.2354980e+03
   4.7320000e+02   5.4525820e+03
   4.7368210e+02   5.6721920e+03
   4.7416420e+02   5.8632010e+03
   4.7464630e+02   6.0269330e+03
   4.7512840e+02   6.1480790e+03
   4.7561060e+02   6.2156720e+03
   4.7609270e+02   6.2293510e+03
   4.7657480e+02   6.1857970e+03
   4.7705690e+02   6.0774920e+03
   4.7753900e+02   5.9242390e+03
   4.7802110e+02   5.7352700e+03
   4.7850330e+02   5.5175390e+03
   4.7898540e+02   5.2923010e+03
   4.7946750e+02   5.0613140e+03
   4.7994960e+02   4.8368850e+03
   4.8043170e+02   4.6284100e+03
   4.8091380e+02   4.4388800e+03
   4.8139600e+02   4.2640360e+03
   4.8187810e+02   4.1012060e+03
   4.8236020e+02   3.9521740e+03
   4.8284230e+02   3.8207170e+03
   4.8332440e+02   3.7227100e+03
   4.8380650e+02   3.6241750e+03
   4.8428870e+02   3.5042040e+03
   4.8477080e+02   3.3717910e+03
   4.8525290e+02   3.2769870e+03
   4.8573500e+02   3.2490790e+03
   4.8621710e+02   3.2279420e+03
   4.8669920e+02   3.1879880e+03
   4.8718140e+02   3.1223850e+03
   4.8766350e+02   3.0681130e+03
   4.8814560e+02   3.0316680e+03
   4.8862770e+02   3.0019430e+03
   4.8910980e+02   2.9653370e+03
   4.8959190e+02   2.9211210e+03
   4.9007410e+02   2.8702760e+03
   4.9055620e+02   2.8144680e+03
   4.9103830e+02   2.7518960e+03
   4.9152040e+02   2.6755130e+03
   4.9200260e+02   2.5839670e+03
   4.9248470e+02   2.4760450e+03
   4.9296680e+02   2.3493880e+03
   4.9344890e+02   2.2068360e+03
   4.9393100e+02   2.0533290e+03
   4.9441310e+02   1.8907960e+03
   4.9489530e+02   1.7176140e+03
   4.9537740e+02   1.5226600e+03
   4.9585950e+02   1.3160310e+03
   4.9634160e+02   1.1284950e+03
   4.9682370e+02   9.8109470e+02
   4.9730580e+02   8.4676760e+02
   4.9778800e+02   6.9675050e+02
   4.9827010e+02   5.3645170e+02
   4.9875220e+02   3.9716210e+02
   4.9923430e+02   3.0542240e+02
   4.9971640e+02   2.3412500e+02
   5.0019850e+02   1.6335160e+02
   5.0068070e+02   8.6599120e+01
   5.0116280e+02  -2.2780160e+00
   5.0164490e+02   2.4836950e+01
   5.0212700e+02   3.9895560e+01
   5.0260910e+02   4.3545700e+01
   5.0309120e+02   1.6176960e+00
   5.0357340e+02   1.8544310e+01
   5.0405550e+02   1.1884700e+01
   5.0453760e+02   4.2579570e+00
   5.0501970e+02   2.9468200e+01
   5.0550180e+02  -5.8305610e+00
   5.0598390e+02   1.8858970e+01
   5.0646610e+02   1.9602160e+01
   5.0694820e+02   3.1305030e+01
   5.0743030e+02   1.9275950e+01
   5.0791240e+02   1.4576900e+01
   5.0839450e+02   4.5777830e+01
   5.0887660e+02   6.7440430e+01
   5.0935880e+02   8.2167480e+01
   5.0984090e+02   1.1863770e+02
   5.1032300e+02   2.0924070e+02
   5.1080510e+02   3.2042870e+02
   5.1128720e+02   3.7653560e+02
   5.1176930e+02   3.8199560e+02
   5.1225150e+02   4.0065670e+02
   5.1273360e+02   4.8893120e+02
   5.1321570e+02   6.1246830e+02
   5.1369780e+02   7.2990090e+02
   5.1417990e+02   8.2705620e+02
   5.1466200e+02   9.3174800e+02
   5.1514420e+02   1.0674590e+03
   5.1562630e+02   1.2201260e+03
   5.1610840e+02   1.3639110e+03
   5.1659050e+02   1.4684840e+03
   5.1707260e+02   1.5869460e+03
   5.1755470e+02   1.7432160e+03
   5.1803690e+02   1.9393450e+03
   5.1851900e+02   2.1247500e+03
   5.1900110e+02   2.2865930e+03
   5.1948320e+02   2.4471820e+03
   5.1996530e+02   2.6194610e+03
   5.2044740e+02   2.8049040e+03
   5.2092960e+02   2.9975670e+03
   5.2141170e+02   3.2050330e+03
   5.2189380e+02   3.4136790e+03
   5.2237590e+02   3.5952710e+03
   5.2285800e+02   3.7454900e+03
   5.2334010e+02   3.9014570e+03
   5.2382230e+02   4.0838960e+03
   5.2430440e+02   4.2802160e+03
   5.2478650e+02   4.4483970e+03
   5.2526860e+02   4.5868950e+03
   5.2575070e+02   4.7166910e+03
   5.2623280e+02   4.8726130e+03
   5.2671500e+02   5.0280850e+03
   5.2719710e+02   5.1278530e+03
   5.2767920e+02   5.1583290e+03
   5.2816130e+02   5.1525790e+03
   5.2864340e+02   5.1328770e+03
   5.2912550e+02   5.0991670e+03
   5.2960770e+02   5.0507990e+03
   5.3008980e+02   4.9847780e+03
   5.3057190e+02   4.9063140e+03
   5.3105400e+02   4.8215000e+03
   5.3153610e+02   4.7288680e+03
   5.3201820e+02   4.6120890e+03
   5.3250040e+02   4.4514140e+03
   5.3298250e+02   4.2760670e+03
   5.3346460e+02   4.1045740e+03
   5.3394670e+02   3.9454430e+03
   5.3442880e+02   3.7689050e+03
   5.3491090e+02   3.5485620e+03
   5.3539310e+02   3.3293680e+03
   5.3587520e+02   3.1708670e+03
   5.3635730e+02   3.0941590e+03
   5.3683940e+02   3.0116230e+03
   5.3732150e+02   2.9035540e+03
   5.3780360e+02   2.7759570e+03
   5.3828580e+02   2.6466230e+03
   5.3876790e+02   2.5136990e+03
   5.3925000e+02   2.3945570e+03
   5.3973210e+02   2.3038290e+03
   5.4021420e+02   2.2344430e+03
   5.4069640e+02   2.1613930e+03
   5.4117850e+02   2.0844160e+03
   5.4166060e+02   2.0156370e+03
   5.4214270e+02   1.9748160e+03
   5.4262480e+02   1.9477860e+03
   5.4310690e+02   1.9112470e+03
   5.4358910e+02   1.8514020e+03
   5.4407120e+02   1.7899690e+03
   5.4455330e+02   1.7399670e+03
   5.4503540e+02   1.6993940e+03
   5.4551750e+02   1.6634270e+03
   5.4599960e+02   1.6327980e+03
   5.4648180e+02   1.6048820e+03
   5.4696390e+02   1.5757790e+03
   5.4744600e+02   1.5414140e+03
   5.4792810e+02   1.5245380e+03
   5.4841020e+02   1.5457430e+03
   5.4889230e+02   1.5697350e+03
   5.4937450e+02   1.5675880e+03
   5.4985660e+02   1.5257560e+03
   5.5033870e+02   1.4905970e+03
   5.5082080e+02   1.4650100e+03
   5.5130290e+02   1.4496250e+03
   5.5178500e+02   1.4547550e+03
   5.5226720e+02   1.4856670e+03
   5.5274930e+02   1.4946540e+03
   5.5323140e+02   1.4511200e+03
   5.5371350e+02   1.3698190e+03
   5.5419560e+02   1.3096330e+03
   5.5467770e+02   1.2698850e+03
   5.5515990e+02   1.2371940e+03
   5.5564200e+02   1.2073390e+03
   5.5612410e+02   1.1760920e+03
   5.5660620e+02   1.1338660e+03
   5.5708830e+02   1.0759070e+03
   5.5757040e+02   1.0189470e+03
   5.5805260e+02   9.8102390e+02
   5.5853470e+02   9.5167190e+02
   5.5901680e+02   9.1324220e+02
   5.5949890e+02   8.4205570e+02
   5.5998100e+02   7.7393160e+02
   5.6046310e+02   7.2427640e+02
   5.6094530e+02   6.9223830e+02
   5.6142740e+02   6.6256400e+02
   5.6190950e+02   6.3613280e+02
   5.6239160e+02   6.1543020e+02
   5.6287370e+02   5.9574170e+02
   5.6335580e+02   5.7740380e+02
   5.6383800e+02   5.6406400e+02
   5.6432010e+02   5.6448050e+02
   5.6480220e+02   5.6370900e+02
   5.6528430e+02   5.3464750e+02
   5.6576640e+02   4.7122900e+02
   5.6624850e+02   4.2892190e+02
   5.6673070e+02   4.2093700e+02
   5.6721280e+02   4.3629980e+02
   5.6769490e+02   4.5978810e+02
   5.6817700e+02   4.8923490e+02
   5.6865910e+02   5.0511130e+02
   5.6914120e+02   4.8421040e+02
   5.6962340e+02   4.4871040e+02
   5.7010550e+02   4.3310400e+02
   5.7058760e+02   4.3854880e+02
   5.7106970e+02   4.4170120e+02
   5.7155180e+02   4.2642870e+02
   5.7203390e+02   4.0175630e+02
   5.7251610e+02   3.7501170e+02
   5.7299820e+02   3.4036820e+02
   5.7348030e+02   3.1760010e+02
   5.7396240e+02   3.2373100e+02
   5.7444450e+02   3.4377340e+02
   5.7492660e+02   3.5123140e+02
   5.7540880e+02   3.3862300e+02
   5.7589090e+02   3.1956790e+02
   5.7637300e+02   2.9184910e+02
   5.7685510e+02   2.5791800e+02
   5.7733720e+02   2.3979200e+02
   5.7781930e+02   2.4317140e+02
   5.7830150e+02   2.4917090e+02
   5.7878360e+02   2.4460740e+02
   5.7926570e+02   2.2983060e+02
   5.7974780e+02   2.2707130e+02
   5.8022990e+02   2.3928370e+02
   5.8071200e+02   2.5185690e+02
   5.8119420e+02   2.4521040e+02
   5.8167630e+02   2.2473730e+02
   5.8215840e+02   2.0678420e+02
   5.8264050e+02   1.9710110e+02
   5.8312260e+02   1.9026460e+02
   5.8360470e+02   1.7945120e+02
   5.8408690e+02   1.6725340e+02
   5.8456900e+02   1.6052590e+02
   5.8505110e+02   1.7464990e+02
   5.8553320e+02   1.8475340e+02
   5.8601530e+02   1.7308690e+02
   5.8649740e+02   1.3807080e+02
   5.8697960e+02   1.0988670e+02
   5.8746170e+02   1.0191260e+02
   5.8794380e+02   9.6451170e+01
   5.8842590e+02   8.1933590e+01
   5.8890800e+02   4.5736330e+01
   5.8939010e+02   2.8465820e+01
   5.8987230e+02   3.9050290e+01
   5.9035440e+02   5.9546390e+01
   5.9083650e+02   6.5131350e+01
   5.9131860e+02   5.5158200e+01
   5.9180070e+02   3.4693360e+01
   5.9228280e+02   9.5752000e-01
   5.9276500e+02   4.0818850e+01
   5.9324710e+02   5.6720700e+01
   5.9372920e+02   5.0359860e+01
   5.9421130e+02   3.8294920e+01
   5.9469340e+02   2.4208500e+01
   5.9517550e+02   1.3238280e+01
   5.9565770e+02   1.6045900e+01
   5.9613980e+02   3.3243650e+01
   5.9662190e+02   4.6180180e+01
   5.9710400e+02   3.4610350e+01
   5.9758620e+02   1.7786130e+01
   5.9806830e+02   1.5195310e+01
   5.9855040e+02   4.7816890e+01
   5.9903250e+02   6.6014160e+01
   5.9951460e+02   4.5111330e+01
   5.9999680e+02   6.6611330e+00
   6.0047890e+02   1.3780760e+01
   6.0096100e+02   4.5776370e+00
   6.0144310e+02   4.6337890e+00
   6.0192520e+02   7.2500000e+00
   6.0240730e+02   5.1684570e+00
   6.0288950e+02   9.1401370e+00
   6.0337160e+02   2.0357910e+01
   6.0385370e+02   3.2549800e+01
   6.0433580e+02   4.5297360e+01
   6.0481790e+02   5.6900880e+01
   6.0530000e+02   5.7943360e+01
   6.0578220e+02   4.7798830e+01
   6.0626430e+02   3.1339840e+01
   6.0674640e+02   3.7524410e+00
   6.0722850e+02   2.4975590e+01
   6.0771060e+02   3.6887210e+01
   6.0819270e+02   2.2691890e+01
   6.0867490e+02   2.1982420e+00
   6.0915700e+02   1.5225100e+01
   6.0963910e+02   2.9532230e+01
   6.1012120e+02   3.9991210e+01
   6.1060330e+02   5.1521970e+01
   6.1108540e+02   5.4107910e+01
   6.1156760e+02   4.0092770e+01
   6.1204970e+02   1.1626460e+01
   6.1253180e+02   1.1270510e+01
   6.1301390e+02   3.0885250e+01
   6.1349600e+02   4.1454100e+01
   6.1397810e+02   3.5959960e+01
   6.1446030e+02   1.1970700e+01
   6.1494240e+02   6.3886720e+00
   6.1542450e+02   2.3442870e+01
   6.1590660e+02   4.4949710e+01
   6.1638870e+02   5.1820310e+01
   6.1687080e+02   4.6819340e+01
   6.1735300e+02   4.7689940e+01
   6.1783510e+02   6.1955080e+01
   6.1831720e+02   6.9873540e+01
   6.1879930e+02   3.0789550e+01
   6.1928140e+02   3.1082520e+01
   6.1976350e+02   6.3952640e+01
   6.2024570e+02   2.2650880e+01
   6.2072780e+02   3.2926270e+01
   6.2120990e+02   7.7824220e+01
   6.2169200e+02   1.1056930e+02
   6.2217410e+02   1.2626950e+02
   6.2265630e+02   1.0470510e+02
   6.2313840e+02   8.2885250e+01
   6.2362050e+02   7.7068850e+01
   6.2410260e+02   9.0098630e+01
   6.2458470e+02   1.0120510e+02
   6.2506680e+02   1.1178470e+02
   6.2554900e+02   1.1836470e+02
   6.2603110e+02   1.1388620e+02
   6.2651320e+02   9.6458010e+01
   6.2699530e+02   9.8254390e+01
   6.2747740e+02   1.2833640e+02
   6.2795950e+02   1.6140090e+02
   6.2844170e+02   1.5317820e+02
   6.2892380e+02   1.1457420e+02
   6.2940590e+02   8.9263180e+01
   6.2988800e+02   9.9463870e+01
   6.3037010e+02   1.2117630e+02
   6.3085220e+02   1.3524800e+02
   6.3133440e+02   1.4110990e+02
   6.3181650e+02   1.3742090e+02
   6.3229860e+02   1.0737450e+02
   6.3278070e+02   8.1384280e+01
   6.3326280e+02   7.8177730e+01
   6.3374490e+02   1.0029640e+02
   6.3422710e+02   1.2039210e+02
   6.3470920e+02   1.4358450e+02
   6.3519130e+02   1.5692820e+02
   6.3567340e+02   1.4951660e+02
   6.3615550e+02   1.0807520e+02
   6.3663760e+02   8.9377440e+01
   6.3711980e+02   9.8853520e+01
   6.3760190e+02   1.2125240e+02
   6.3808400e+02   1.4198780e+02
   6.3856610e+02   1.6063230e+02
   6.3904820e+02   1.6956930e+02
   6.3953030e+02   1.6376420e+02
   6.4001250e+02   1.5361280e+02
   6.4049460e+02   1.4925050e+02
   6.4097670e+02   1.5250490e+02
   6.4145880e+02   1.6881200e+02
   6.4194090e+02   2.2492140e+02
   6.4242300e+02   2.7524020e+02
   6.4290520e+02   2.7838330e+02
   6.4338730e+02   2.4074320e+02
   6.4386940e+02   2.1354690e+02
   6.4435150e+02   2.1724710e+02
   6.4483360e+02   2.3108450e+02
   6.4531570e+02   2.4497270e+02
   6.4579790e+02   2.5726510e+02
   6.4628000e+02   2.7587790e+02
   6.4676210e+02   3.0367240e+02
   6.4724420e+02   3.3307810e+02
   6.4772630e+02   3.5929200e+02
   6.4820840e+02   3.8314450e+02
   6.4869060e+02   3.9656790e+02
   6.4917270e+02   3.9663820e+02
   6.4965480e+02   3.9083200e+02
   6.5013690e+02   3.8503080e+02
   6.5061900e+02   3.7965670e+02
   6.5110110e+02   3.8249710e+02
   6.5158330e+02   4.0206590e+02
   6.5206540e+02   4.2672460e+02
   6.5254750e+02   4.4397610e+02
   6.5302960e+02   4.5669580e+02
   6.5351170e+02   4.7280470e+02
   6.5399380e+02   4.9538870e+02
   6.5447600e+02   5.2127250e+02
   6.5495810e+02   5.5195260e+02
   6.5544020e+02   5.8784770e+02
   6.5592230e+02   6.2096480e+02
   6.5640440e+02   6.5071240e+02
   6.5688650e+02   6.7415190e+02
   6.5736870e+02   6.8968210e+02
   6.5785080e+02   6.9530180e+02
   6.5833290e+02   7.1204640e+02
   6.5881500e+02   7.4119430e+02
   6.5929710e+02   7.7179000e+02
   6.5977920e+02   7.9247510e+02
   6.6026140e+02   8.0523930e+02
   6.6074350e+02   8.1597510e+02
   6.6122560e+02   8.2420170e+02
   6.6170770e+02   8.3407520e+02
   6.6218980e+02   8.4764160e+02
   6.6267190e+02   8.6657520e+02
   6.6315410e+02   8.9462700e+02
   6.6363620e+02   9.4240670e+02
   6.6411830e+02   9.9228220e+02
   6.6460040e+02   1.0317140e+03
   6.6508250e+02   1.0652030e+03
   6.6556460e+02   1.1103550e+03
   6.6604680e+02   1.1707200e+03
   6.6652890e+02   1.2424460e+03
   6.6701100e+02   1.3298170e+03
   6.6749310e+02   1.4323340e+03
   6.6797520e+02   1.5154110e+03
   6.6845730e+02   1.5709250e+03
   6.6893950e+02   1.6300250e+03
   6.6942160e+02   1.7156990e+03
   6.6990370e+02   1.8252250e+03
   6.7038580e+02   1.9400530e+03
   6.7086790e+02   2.0588220e+03
   6.7135000e+02   2.1810200e+03
   6.7183220e+02   2.3051860e+03
   6.7231430e+02   2.4307970e+03
   6.7279640e+02   2.5574380e+03
   6.7327850e+02   2.6810530e+03
   6.7376060e+02   2.8169430e+03
   6.7424270e+02   2.9781050e+03
   6.7472490e+02   3.1536710e+03
   6.7520700e+02   3.3285390e+03
   6.7568910e+02   3.5115770e+03
   6.7617120e+02   3.6757850e+03
   6.7665330e+02   3.8069330e+03
   6.7713540e+02   3.9171540e+03
   6.7761760e+02   4.0531310e+03
   6.7809970e+02   4.2291300e+03
   6.7858180e+02   4.3968100e+03
   6.7906390e+02   4.5331110e+03
   6.7954600e+02   4.6471930e+03
   6.8002810e+02   4.7876420e+03
   6.8051030e+02   4.9518050e+03
   6.8099240e+02   5.0991100e+03
   6.8147450e+02   5.1943680e+03
   6.8195660e+02   5.2583490e+03
   6.8243870e+02   5.3250610e+03
   6.8292080e+02   5.3980300e+03
   6.8340300e+02   5.4316680e+03
   6.8388510e+02   5.3897930e+03
   6.8436720e+02   5.3051670e+03
   6.8484930e+02   5.2011840e+03
   6.8533140e+02   5.0697800e+03
   6.8581350e+02   4.9415060e+03
   6.8629570e+02   4.8178180e+03
   6.8677780e+02   4.6968090e+03
   6.8725990e+02   4.5706600e+03
   6.8774200e+02   4.4294670e+03
   6.8822410e+02   4.3270830e+03
   6.8870620e+02   4.2766600e+03
   6.8918840e+02   4.2580160e+03
   6.8967050e+02   4.2289330e+03
   6.9015260e+02   4.1955970e+03
   6.9063470e+02   4.1962810e+03
   6.9111680e+02   4.2494640e+03
   6.9159890e+02   4.3401820e+03
   6.9208110e+02   4.4550000e+03
   6.9256320e+02   4.5935340e+03
   6.9304530e+02   4.7545960e+03
   6.9352740e+02   4.9322760e+03
   6.9400950e+02   5.1377760e+03
   6.9449160e+02   5.3880580e+03
   6.9497380e+02   5.6858590e+03
   6.9545590e+02   5.9662170e+03
   6.9593800e+02   6.1987710e+03
   6.9642010e+02   6.4518150e+03
   6.9690220e+02   6.7632260e+03
   6.9738430e+02   7.1367700e+03
   6.9786650e+02   7.5181330e+03
   6.9834860e+02   7.9095980e+03
   6.9883070e+02   8.3026260e+03
   6.9931280e+02   8.6830700e+03
   6.9979490e+02   9.0558610e+03
   7.0027700e+02   9.4319320e+03
   7.0075920e+02   9.8133200e+03
   7.0124130e+02   1.0195660e+04
   7.0172340e+02   1.0570780e+04
   7.0220550e+02   1.0945150e+04
   7.0268760e+02   1.1332860e+04
   7.0316970e+02   1.1774640e+04
   7.0365190e+02   1.2168610e+04
   7.0413400e+02   1.2504320e+04
   7.0461610e+02   1.2767210e+04
   7.0509820e+02   1.2941600e+04
   7.0558030e+02   1.3032810e+04
   7.0606240e+02   1.3026900e+04
   7.0654460e+02   1.2909830e+04
   7.0702670e+02   1.2701620e+04
   7.0750880e+02   1.2465300e+04
   7.0799090e+02   1.2201780e+04
   7.0847300e+02   1.1849220e+04
   7.0895510e+02   1.1349150e+04
   7.0943730e+02   1.0761580e+04
   7.0991940e+02   1.0182220e+04
   7.1040150e+02   9.6126860e+03
   7.1088360e+02   9.0532830e+03
   7.1136570e+02   8.5051250e+03
   7.1184780e+02   7.9604020e+03
   7.1233000e+02   7.4106970e+03
   7.1281210e+02   6.8501060e+03
   7.1329420e+02   6.3268750e+03
   7.1377630e+02   5.8545350e+03
   7.1425840e+02   5.4230390e+03
   7.1474050e+02   5.0427040e+03
   7.1522270e+02   4.7199330e+03
   7.1570480e+02   4.3994400e+03
   7.1618690e+02   4.0782820e+03
   7.1666900e+02   3.7738140e+03
   7.1715110e+02   3.5160100e+03
   7.1763320e+02   3.2957060e+03
   7.1811540e+02   3.0715700e+03
   7.1859750e+02   2.8318820e+03
   7.1907960e+02   2.6119020e+03
   7.1956170e+02   2.4556350e+03
   7.2004380e+02   2.3386110e+03
   7.2052590e+02   2.2206880e+03
   7.2100810e+02   2.0921310e+03
   7.2149020e+02   1.9588550e+03
   7.2197230e+02   1.8124970e+03
   7.2245440e+02   1.6648710e+03
   7.2293650e+02   1.5318900e+03
   7.2341860e+02   1.4113960e+03
   7.2390080e+02   1.3126570e+03
   7.2438290e+02   1.2422230e+03
   7.2486500e+02   1.1915710e+03
   7.2534710e+02   1.1318840e+03
   7.2582920e+02   1.0614870e+03
   7.2631130e+02   1.0012480e+03
   7.2679350e+02   9.6805220e+02
   7.2727560e+02   9.4531100e+02
   7.2775770e+02   8.9824760e+02
   7.2823980e+02   8.3128760e+02
   7.2872190e+02   7.6769480e+02
   7.2920400e+02   7.1686770e+02
   7.2968620e+02   6.7747220e+02
   7.3016830e+02   6.5659810e+02
   7.3065040e+02   6.5480470e+02
   7.3113250e+02   6.3439750e+02
   7.3161460e+02   5.6573540e+02
   7.3209670e+02   4.9819040e+02
   7.3257890e+02   4.5449660e+02
   7.3306100e+02   4.3808450e+02
   7.3354310e+02   4.2239310e+02
   7.3402520e+02   4.0776120e+02
   7.3450730e+02   3.9354690e+02
   7.3498940e+02   3.8392190e+02
   7.3547160e+02   3.7495120e+02
   7.3595370e+02   3.4514550e+02
   7.3643580e+02   2.8852440e+02
   7.3691790e+02   2.3941600e+02
   7.3740000e+02   2.3722560e+02
   7.3788210e+02   2.5705520e+02
   7.3836430e+02   2.6950730e+02
   7.3884640e+02   2.6779690e+02
   7.3932860e+02   2.5743020e+02
   7.3981070e+02   2.3312400e+02
   7.4029280e+02   2.0390430e+02
   7.4077490e+02   1.8151320e+02
   7.4125700e+02   1.6968070e+02
   7.4173910e+02   1.5530370e+02
   7.4222130e+02   1.3443750e+02
   7.4270340e+02   1.1311230e+02
   7.4318550e+02   1.0457670e+02
   7.4366760e+02   1.0770410e+02
   7.4414970e+02   1.1160060e+02
   7.4463180e+02   1.1454250e+02
   7.4511400e+02   1.1393210e+02
   7.4559610e+02   1.0513770e+02
   7.4607820e+02   9.0118650e+01
   7.4656030e+02   7.3923830e+01
   7.4704240e+02   4.9081050e+01
   7.4752450e+02   3.3178220e+01
   7.4800670e+02   4.4292480e+01
   7.4848880e+02   7.5248050e+01
   7.4897090e+02   8.0336910e+01
   7.4945300e+02   4.2624510e+01
   7.4993510e+02   5.1567380e+00
   7.5041720e+02   1.9790530e+01
   7.5089940e+02   3.2469730e+01
   7.5138150e+02   2.7182130e+01
   7.5186360e+02   2.5830080e+00
   7.5234570e+02   1.4523440e+01
   7.5282780e+02   2.8666990e+00
   7.5330990e+02   3.5206540e+01
   7.5379210e+02   4.6895020e+01
   7.5427420e+02   3.8066890e+01
   7.5475630e+02   2.6871580e+01
   7.5523840e+02   1.8948730e+01
   7.5572050e+02   1.6160640e+01
   7.5620260e+02   2.1437010e+01
   7.5668480e+02   3.7431640e+01
   7.5716690e+02   4.9177730e+01
   7.5764900e+02   5.2831540e+01
   7.5813110e+02   5.5895510e+01
   7.5861320e+02   6.6599610e+01
   7.5909530e+02   8.7831050e+01
   7.5957750e+02   8.6409180e+01
   7.6005960e+02   5.7147950e+01
   7.6054170e+02   2.7239260e+01
   7.6102380e+02   3.4739260e+01
   7.6150590e+02   6.1357420e+01
   7.6198800e+02   6.2045900e+01
   7.6247020e+02   2.3197750e+01
   7.6295230e+02   1.2198240e+01
   7.6343440e+02   1.0291990e+01
   7.6391650e+02   8.9169920e+00
   7.6439860e+02   2.3644040e+01
   7.6488070e+02   2.9015620e+01
   7.6536290e+02   3.0697750e+01
   7.6584500e+02   2.7683590e+01
   7.6632710e+02   2.2435550e+01
   7.6680920e+02   1.9570310e+01
   7.6729130e+02   2.0669920e+01
   7.6777340e+02   1.1777830e+01
   7.6825560e+02   1.2231450e+01
   7.6873770e+02   4.0368160e+01
   7.6921980e+02   5.5582520e+01
   7.6970190e+02   6.0844240e+01
   7.7018400e+02   6.4153320e+01
   7.7066610e+02   6.3413570e+01
   7.7114830e+02   6.8647460e+01
   7.7163040e+02   9.1042480e+01
   7.7211250e+02   1.2371390e+02
   7.7259460e+02   1.5342040e+02
   7.7307670e+02   1.7198390e+02
   7.7355880e+02   1.9387500e+02
   7.7404100e+02   2.2405760e+02
   7.7452310e+02   2.5838180e+02
   7.7500520e+02   2.8348730e+02
   7.7548730e+02   2.9716650e+02
   7.7596940e+02   3.1625980e+02
   7.7645150e+02   3.4926370e+02
   7.7693370e+02   3.8878560e+02
   7.7741580e+02   4.1577980e+02
   7.7789790e+02   4.3421730e+02
   7.7838000e+02   4.6052440e+02
   7.7886210e+02   5.1806450e+02
   7.7934420e+02   5.7392480e+02
   7.7982640e+02   6.0497070e+02
   7.8030850e+02   6.1413720e+02
   7.8079060e+02   6.2053910e+02
   7.8127270e+02   6.2046730e+02
   7.8175480e+02   6.2685940e+02
   7.8223690e+02   6.4637300e+02
   7.8271910e+02   6.7691460e+02
   7.8320120e+02   6.9810250e+02
   7.8368330e+02   7.0835500e+02
   7.8416540e+02   7.1891850e+02
   7.8464750e+02   7.4436470e+02
   7.8512960e+02   7.7307080e+02
   7.8561180e+02   7.6876170e+02
   7.8609390e+02   7.3559180e+02
   7.8657600e+02   7.1086520e+02
   7.8705810e+02   7.2057080e+02
   7.8754020e+02   7.4603710e+02
   7.8802230e+02   7.8023290e+02
   7.8850450e+02   8.2341990e+02
   7.8898660e+02   8.5308060e+02
   7.8946870e+02   8.6106590e+02
   7.8995080e+02   8.6218900e+02
   7.9043290e+02   8.6351900e+02
   7.9091500e+02   8.6527880e+02
   7.9139720e+02   8.6008450e+02
   7.9187930e+02   8.4686330e+02
   7.9236140e+02   8.3415920e+02
   7.9284350e+02   8.3074560e+02
   7.9332560e+02   8.3210350e+02
   7.9380770e+02   8.2589310e+02
   7.9428990e+02   8.1056250e+02
   7.9477200e+02   8.0531450e+02
   7.9525410e+02   8.3132810e+02
   7.9573620e+02   8.6512210e+02
   7.9621830e+02   8.8788040e+02
   7.9670040e+02   8.9223490e+02
   7.9718260e+02   9.0325100e+02
   7.9766470e+02   9.2674760e+02
   7.9814680e+02   9.4993260e+02
   7.9862890e+02   9.5445310e+02
   7.9911100e+02   9.3964210e+02
   7.9959310e+02   9.6513180e+02
   8.0007530e+02   1.0379220e+03
   8.0055740e+02   1.1222350e+03
   8.0103950e+02   1.1834390e+03
   8.0152160e+02   1.2320260e+03
   8.0200370e+02   1.2854580e+03
   8.0248580e+02   1.3469410e+03
   8.0296800e+02   1.4087930e+03
   8.0345010e+02   1.4654860e+03
   8.0393220e+02   1.5219590e+03
   8.0441430e+02   1.5816770e+03
   8.0489640e+02   1.6358260e+03
   8.0537850e+02   1.7128110e+03
   8.0586070e+02   1.8173980e+03
   8.0634280e+02   1.9368310e+03
   8.0682490e+02   2.0631300e+03
   8.0730700e+02   2.1951900e+03
   8.0778910e+02   2.3210060e+03
   8.0827120e+02   2.4376260e+03
   8.0875340e+02   2.5487900e+03
   8.0923550e+02   2.6526950e+03
   8.0971760e+02   2.7580200e+03
   8.1019970e+02   2.8730150e+03
   8.1068180e+02   2.9999130e+03
   8.1116390e+02   3.1360830e+03
   8.1164610e+02   3.2853860e+03
   8.1212820e+02   3.4448740e+03
   8.1261030e+02   3.6081660e+03
   8.1309240e+02   3.7755620e+03
   8.1357450e+02   3.9490890e+03
   8.1405660e+02   4.1288590e+03
   8.1453880e+02   4.3090440e+03
   8.1502090e+02   4.4823270e+03
   8.1550300e+02   4.6505030e+03
   8.1598510e+02   4.8141450e+03
   8.1646720e+02   4.9727430e+03
   8.1694930e+02   5.1307190e+03
   8.1743150e+02   5.2913240e+03
   8.1791360e+02   5.4557740e+03
   8.1839570e+02   5.6248330e+03
   8.1887780e+02   5.8037850e+03
   8.1935990e+02   5.9757000e+03
   8.1984200e+02   6.1551110e+03
   8.2032420e+02   6.3185000e+03
   8.2080630e+02   6.4192170e+03
   8.2128840e+02   6.4454630e+03
   8.2177050e+02   6.5063380e+03
   8.2225260e+02   6.6319880e+03
   8.2273470e+02   6.7580710e+03
   8.2321690e+02   6.8001410e+03
   8.2369900e+02   6.7782720e+03
   8.2418110e+02   6.7357330e+03
   8.2466320e+02   6.6887670e+03
   8.2514530e+02   6.6149000e+03
   8.2562740e+02   6.4890440e+03
   8.2610960e+02   6.3352150e+03
   8.2659170e+02   6.1856330e+03
   8.2707380e+02   6.0796480e+03
   8.2755590e+02   5.9066320e+03
   8.2803800e+02   5.6390040e+03
   8.2852010e+02   5.3291650e+03
   8.2900230e+02   5.0602930e+03
   8.2948440e+02   4.8309680e+03
   8.2996650e+02   4.5963650e+03
   8.3044860e+02   4.3454380e+03
   8.3093070e+02   4.0978350e+03
   8.3141280e+02   3.8815470e+03
   8.3189500e+02   3.6844180e+03
   8.3237710e+02   3.4845830e+03
   8.3285920e+02   3.2687220e+03
   8.3334130e+02   3.0654380e+03
   8.3382340e+02   2.8748200e+03
   8.3430550e+02   2.7014570e+03
   8.3478770e+02   2.5559780e+03
   8.3526980e+02   2.4459660e+03
   8.3575190e+02   2.3275850e+03
   8.3623400e+02   2.1892420e+03
   8.3671610e+02   2.0515780e+03
   8.3719820e+02   1.9440620e+03
   8.3768040e+02   1.8590970e+03
   8.3816250e+02   1.7734450e+03
   8.3864460e+02   1.6787220e+03
   8.3912670e+02   1.5900870e+03
   8.3960880e+02   1.5205600e+03
   8.4009090e+02   1.4589300e+03
   8.4057310e+02   1.3940790e+03
   8.4105520e+02   1.3301460e+03
   8.4153730e+02   1.2558340e+03
   8.4201940e+02   1.1632580e+03
   8.4250150e+02   1.0689140e+03
   8.4298360e+02   9.9692720e+02
   8.4346580e+02   9.4694190e+02
   8.4394790e+02   9.0641260e+02
   8.4443000e+02   8.7677640e+02
   8.4491210e+02   8.4677150e+02
   8.4539420e+02   8.0064750e+02
   8.4587630e+02   7.4565330e+02
   8.4635850e+02   6.9178610e+02
   8.4684060e+02   6.3550240e+02
   8.4732270e+02   5.8832570e+02
   8.4780480e+02   5.6566750e+02
   8.4828690e+02   5.4808250e+02
   8.4876900e+02   5.1145800e+02
   8.4925120e+02   4.4704490e+02
   8.4973330e+02   3.9799410e+02
   8.5021540e+02   3.6998190e+02
   8.5069750e+02   3.5331980e+02
   8.5117960e+02   3.4630810e+02
   8.5166170e+02   3.4066940e+02
   8.5214390e+02   3.0734670e+02
   8.5262600e+02   2.3077490e+02
   8.5310810e+02   1.6642870e+02
   8.5359020e+02   1.5969630e+02
   8.5407230e+02   1.7798140e+02
   8.5455440e+02   1.8778030e+02
   8.5503660e+02   1.7716060e+02
   8.5551870e+02   1.7156740e+02
   8.5600080e+02   1.7178710e+02
   8.5648290e+02   1.7646000e+02
   8.5696500e+02   1.8922850e+02
   8.5744710e+02   2.0672270e+02
   8.5792930e+02   2.0177830e+02
   8.5841140e+02   1.7009810e+02
   8.5889350e+02   1.3885890e+02
   8.5937560e+02   1.3502540e+02
   8.5985770e+02   1.4109670e+02
   8.6033980e+02   1.3881590e+02
   8.6082200e+02   1.2323730e+02
   8.6130410e+02   1.0950150e+02
   8.6178620e+02   1.0149510e+02
   8.6226830e+02   9.6243650e+01
   8.6275040e+02   9.3395510e+01
   8.6323250e+02   9.4831540e+01
   8.6371470e+02   8.4965330e+01
   8.6419680e+02   6.1310060e+01
   8.6467890e+02   3.9462890e+01
   8.6516100e+02   3.3994630e+01
   8.6564310e+02   4.0107420e+01
   8.6612520e+02   5.2178220e+01
   8.6660740e+02   7.0131840e+01
   8.6708950e+02   8.1578610e+01
   8.6757160e+02   7.0250980e+01
   8.6805370e+02   5.7998050e+01
   8.6853580e+02   6.3934570e+01
   8.6901790e+02   9.3554200e+01
   8.6950010e+02   1.0341650e+02
   8.6998220e+02   8.5303220e+01
   8.7046430e+02   6.9073730e+01
   8.7094640e+02   7.9490230e+01
   8.7142850e+02   1.0935840e+02
   8.7191060e+02   1.3171340e+02
   8.7239280e+02   1.4630860e+02
   8.7287490e+02   1.5688720e+02
   8.7335700e+02   1.6614500e+02
   8.7383910e+02   1.7240280e+02
   8.7432120e+02   1.7134280e+02
   8.7480330e+02   1.6248880e+02
   8.7528550e+02   1.6413380e+02
   8.7576760e+02   1.9211620e+02
   8.7624970e+02   2.0739700e+02
   8.7673180e+02   1.8652100e+02
   8.7721390e+02   1.3714600e+02
   8.7769600e+02   1.1804150e+02
   8.7817820e+02   1.2821530e+02
   8.7866030e+02   1.3737700e+02
   8.7914240e+02   1.1709570e+02
   8.7962450e+02   9.3706050e+01
   8.8010670e+02   1.0189360e+02
   8.8058880e+02   1.3434810e+02
   8.8107090e+02   1.5349070e+02
   8.8155300e+02   1.3868260e+02
   8.8203520e+02   1.1803960e+02
   8.8251730e+02   9.7565920e+01
   8.8299940e+02   7.8070310e+01
   8.8348150e+02   6.2768070e+01
   8.8396360e+02   5.1641600e+01
   8.8444570e+02   4.4757320e+01
   8.8492790e+02   4.1446290e+01
   8.8541000e+02   4.3152340e+01
   8.8589210e+02   5.9799800e+01
   8.8637420e+02   8.3595210e+01
   8.8685630e+02   9.4056640e+01
   8.8733840e+02   6.8255860e+01
   8.8782060e+02   4.3528810e+01
   8.8830270e+02   3.7231930e+01
   8.8878480e+02   4.0145020e+01
   8.8926690e+02   3.1526370e+01
   8.8974900e+02   6.5605470e+00
   8.9023110e+02   1.0200200e+01
   8.9071330e+02   1.1818850e+01
   8.9119540e+02   6.4877930e+00
   8.9167750e+02   4.5224610e+00
   8.9215960e+02   6.6616210e+00
   8.9264170e+02   1.6073240e+01
   8.9312380e+02   4.0747070e+01
   8.9360600e+02   5.9742190e+01
   8.9408810e+02   5.9678220e+01
   8.9457020e+02   4.8606450e+01
   8.9505230e+02   3.6808110e+01
   8.9553440e+02   2.0973140e+01
   8.9601650e+02   1.4910640e+01
   8.9649870e+02   2.4125000e+01
   8.9698080e+02   3.3541020e+01
   8.9746290e+02   1.7404300e+01
   8.9794500e+02   1.5195800e+01
   8.9842710e+02   2.8271480e+01
   8.9890920e+02   1.3084470e+01
   8.9939140e+02   3.8701170e+00
   8.9987350e+02   6.9726600e-01
   9.0035560e+02   9.2470700e+00
   9.0083770e+02   1.4215330e+01
   9.0131980e+02   1.3795900e+01
   9.0180190e+02   2.7988280e+00
   9.0228410e+02   2.4436040e+01
   9.0276620e+02   5.2594240e+01
   9.0324830e+02   7.2605960e+01
   9.0373040e+02   8.3844730e+01
   9.0421250e+02   7.7216800e+01
   9.0469460e+02   5.2546390e+01
   9.0517680e+02   2.7878420e+01
   9.0565890e+02   1.9570310e+01
   9.0614100e+02   1.5132810e+01
   9.0662310e+02   5.1318400e-01
   9.0710520e+02   2.8914060e+01
   9.0758730e+02   4.1513180e+01
   9.0806950e+02   2.2683590e+01
   9.0855160e+02   4.0869140e+00
   9.0903370e+02   2.2158200e+00
   9.0951580e+02   2.2651370e+00
   9.0999790e+02   1.1596680e+01
   9.1048000e+02   2.5282710e+01
   9.1096220e+02   3.2481930e+01
   9.1144430e+02   1.9484380e+01
   9.1192640e+02   2.7509770e+00
   9.1240850e+02   1.6425780e+00
   9.1289060e+02   1.1125000e+01
   9.1337270e+02   1.3439940e+01
   9.1385490e+02   8.3227540e+00
   9.1433700e+02   2.2428710e+01
   9.1481910e+02   1.7730960e+01
   9.1530120e+02   3.3383790e+00
   9.1578330e+02   7.4375000e+00
   9.1626540e+02   2.9710940e+01
   9.1674760e+02   3.8380370e+01
   9.1722970e+02   1.8653320e+01
   9.1771180e+02   8.9179690e+00
   9.1819390e+02   1.9908200e+01
   9.1867600e+02   2.2243160e+01
   9.1915810e+02   2.9283690e+01
   9.1964030e+02   6.1663570e+01
   9.2012240e+02   7.5177730e+01
   9.2060450e+02   4.7834960e+01
   9.2108660e+02   1.3145020e+01
   9.2156870e+02   1.3161130e+01
   9.2205080e+02   4.9935060e+01
   9.2253300e+02   8.3200680e+01
   9.2301510e+02   1.1018990e+02
   9.2349720e+02   1.2583940e+02
   9.2397930e+02   1.1196340e+02
   9.2446140e+02   8.9418460e+01
   9.2494350e+02   8.7820310e+01
   9.2542570e+02   1.1599320e+02
   9.2590780e+02   1.4581250e+02
   9.2638990e+02   1.7766600e+02
   9.2687200e+02   2.0062940e+02
   9.2735410e+02   2.0418900e+02
   9.2783620e+02   1.8683740e+02
   9.2831840e+02   1.8794970e+02
   9.2880050e+02   2.0953080e+02
   9.2928260e+02   2.2482760e+02
   9.2976470e+02   1.9971140e+02
   9.3024680e+02   1.6560890e+02
   9.3072890e+02   1.6764700e+02
   9.3121110e+02   2.0323140e+02
   9.3169320e+02   2.3891700e+02
   9.3217530e+02   2.6527540e+02
   9.3265740e+02   2.8711040e+02
   9.3313950e+02   3.0562700e+02
   9.3362160e+02   3.2130810e+02
   9.3410380e+02   3.3469290e+02
   9.3458590e+02   3.4511820e+02
   9.3506800e+02   3.6554300e+02
   9.3555010e+02   4.0843950e+02
   9.3603220e+02   4.5397270e+02
   9.3651430e+02   4.7376420e+02
   9.3699650e+02   4.7644730e+02
   9.3747860e+02   4.8097120e+02
   9.3796070e+02   4.8314010e+02
   9.3844280e+02   5.0212350e+02
   9.3892490e+02   5.4481050e+02
   9.3940700e+02   6.0319920e+02
   9.3988920e+02   6.6784910e+02
   9.4037130e+02   7.3948340e+02
   9.4085340e+02   8.1484620e+02
   9.4133550e+02   8.9359570e+02
   9.4181760e+02   9.7472950e+02
   9.4229970e+02   1.0523410e+03
   9.4278190e+02   1.1315370e+03
   9.4326400e+02   1.2167840e+03
   9.4374610e+02   1.3054820e+03
   9.4422820e+02   1.4131760e+03
   9.4471030e+02   1.5586510e+03
   9.4519240e+02   1.7093360e+03
   9.4567460e+02   1.8440690e+03
   9.4615670e+02   1.9607390e+03
   9.4663880e+02   2.0970430e+03
   9.4712090e+02   2.2545980e+03
   9.4760300e+02   2.4147050e+03
   9.4808510e+02   2.5633840e+03
   9.4856730e+02   2.7089430e+03
   9.4904940e+02   2.8603720e+03
   9.4953150e+02   3.0162660e+03
   9.5001360e+02   3.1739010e+03
   9.5049570e+02   3.3463360e+03
   9.5097780e+02   3.5015880e+03
   9.5146000e+02   3.6321430e+03
   9.5194210e+02   3.7408420e+03
   9.5242420e+02   3.8350110e+03
   9.5290630e+02   3.9144220e+03
   9.5338840e+02   3.9730410e+03
   9.5387050e+02   4.0043910e+03
   9.5435270e+02   4.0168240e+03
   9.5483480e+02   4.0284580e+03
   9.5531690e+02   4.0269860e+03
   9.5579900e+02   3.9899530e+03
   9.5628110e+02   3.8831010e+03
   9.5676320e+02   3.7715580e+03
   9.5724540e+02   3.6502650e+03
   9.5772750e+02   3.5389690e+03
   9.5820960e+02   3.4728800e+03
   9.5869170e+02   3.4447960e+03
   9.5917380e+02   3.3888080e+03
   9.5965590e+02   3.2938410e+03
   9.6013810e+02   3.2004280e+03
   9.6062020e+02   3.1428960e+03
   9.6110230e+02   3.1066990e+03
   9.6158440e+02   3.0792010e+03
   9.6206650e+02   3.0604950e+03
   9.6254860e+02   3.0530100e+03
   9.6303080e+02   3.0589970e+03
   9.6351290e+02   3.0710670e+03
   9.6399500e+02   3.0941000e+03
   9.6447710e+02   3.1210980e+03
   9.6495920e+02   3.0994420e+03
   9.6544130e+02   3.0367490e+03
   9.6592350e+02   2.9915470e+03
   9.6640560e+02   3.0146430e+03
   9.6688770e+02   3.0489690e+03
   9.6736980e+02   3.0582360e+03
   9.6785190e+02   3.0493940e+03
   9.6833400e+02   3.0479660e+03
   9.6881620e+02   3.0530690e+03
   9.6929830e+02   3.0715910e+03
   9.6978040e+02   3.1088990e+03
   9.7026250e+02   3.1532980e+03
   9.7074460e+02   3.1877630e+03
   9.7122670e+02   3.2130160e+03
   9.7170890e+02   3.2278890e+03
   9.7219100e+02   3.2275960e+03
   9.7267310e+02   3.2312090e+03
   9.7315520e+02   3.2481630e+03
   9.7363730e+02   3.2738880e+03
   9.7411940e+02   3.3058170e+03
   9.7460160e+02   3.3499540e+03
   9.7508370e+02   3.3789520e+03
   9.7556580e+02   3.3888290e+03
   9.7604790e+02   3.3965010e+03
   9.7653000e+02   3.4223790e+03
   9.7701210e+02   3.4540430e+03
   9.7749430e+02   3.4666880e+03
   9.7797640e+02   3.4608100e+03
   9.7845850e+02   3.4510460e+03
   9.7894060e+02   3.4469960e+03
   9.7942270e+02   3.4371750e+03
   9.7990480e+02   3.4185600e+03
   9.8038700e+02   3.3908920e+03
   9.8086910e+02   3.3550210e+03
   9.8135120e+02   3.3123270e+03
   9.8183330e+02   3.2420300e+03
   9.8231540e+02   3.1286840e+03
   9.8279750e+02   2.9991250e+03
   9.8327970e+02   2.8955220e+03
   9.8376180e+02   2.8002920e+03
   9.8424390e+02   2.6834960e+03
   9.8472600e+02   2.5200950e+03
   9.8520810e+02   2.3589810e+03
   9.8569020e+02   2.2095200e+03
   9.8617240e+02   2.0601580e+03
   9.8665450e+02   1.8924080e+03
   9.8713660e+02   1.7096450e+03
   9.8761870e+02   1.5517160e+03
   9.8810080e+02   1.4216280e+03
   9.8858290e+02   1.3076330e+03
   9.8906510e+02   1.2039000e+03
   9.8954720e+02   1.1092010e+03
   9.9002930e+02   1.0234710e+03
   9.9051140e+02   9.4660350e+02
   9.9099350e+02   8.7374560e+02
   9.9147560e+02   8.0241060e+02
   9.9195780e+02   7.3850200e+02
   9.9243990e+02   6.8126510e+02
   9.9292200e+02   6.3510060e+02
   9.9340410e+02   6.2319780e+02
   9.9388620e+02   6.3704300e+02
   9.9436830e+02   6.4049850e+02
   9.9485050e+02   6.1229250e+02
   9.9533260e+02   5.7674220e+02
   9.9581470e+02   5.3414400e+02
   9.9629680e+02   4.9769140e+02
   9.9677890e+02   4.8833540e+02
   9.9726100e+02   5.1363530e+02
   9.9774320e+02   5.4185940e+02
   9.9822530e+02   5.7170020e+02
   9.9870740e+02   6.0214750e+02
   9.9918950e+02   6.3391850e+02
   9.9967160e+02   6.6327930e+02
   1.0001540e+03   6.7692870e+02
   1.0006360e+03   6.7258350e+02
   1.0011180e+03   6.9493510e+02
   1.0016000e+03   7.9525000e+02
   1.0020820e+03   8.9062600e+02
   1.0025640e+03   9.3640280e+02
   1.0030460e+03   9.4122070e+02
   1.0035290e+03   9.7464260e+02
   1.0040110e+03   1.0373620e+03
   1.0044930e+03   1.0971220e+03
   1.0049750e+03   1.1316710e+03
   1.0054570e+03   1.1645350e+03
   1.0059390e+03   1.2244270e+03
   1.0064210e+03   1.3006780e+03
   1.0069030e+03   1.3716270e+03
   1.0073850e+03   1.4282330e+03
   1.0078680e+03   1.4865210e+03
   1.0083500e+03   1.5504400e+03
   1.0088320e+03   1.6106910e+03
   1.0093140e+03   1.6565830e+03
   1.0097960e+03   1.6880230e+03
   1.0102780e+03   1.7053760e+03
   1.0107600e+03   1.7085020e+03
   1.0112420e+03   1.6954980e+03
   1.0117250e+03   1.6550350e+03
   1.0122070e+03   1.6054460e+03
   1.0126890e+03   1.5635460e+03
   1.0131710e+03   1.5302740e+03
   1.0136530e+03   1.4713960e+03
   1.0141350e+03   1.3773310e+03
   1.0146170e+03   1.2952440e+03
   1.0150990e+03   1.2561430e+03
   1.0155810e+03   1.2333570e+03
   1.0160640e+03   1.1745390e+03
   1.0165460e+03   1.0906850e+03
   1.0170280e+03   1.0103150e+03
   1.0175100e+03   9.4445510e+02
   1.0179920e+03   8.8412160e+02
   1.0184740e+03   8.3304350e+02
   1.0189560e+03   7.8176860e+02
   1.0194380e+03   7.1473970e+02
   1.0199210e+03   6.3148580e+02
   1.0204030e+03   5.6518120e+02
   1.0208850e+03   5.2038040e+02
   1.0213670e+03   4.8362060e+02
   1.0218490e+03   4.5355910e+02
   1.0223310e+03   4.1864890e+02
   1.0228130e+03   3.5789450e+02
   1.0232950e+03   2.6769870e+02
   1.0237780e+03   2.1693160e+02
   1.0242600e+03   2.2855570e+02
   1.0247420e+03   2.3919380e+02
   1.0252240e+03   2.2439260e+02
   1.0257060e+03   1.9210160e+02
   1.0261880e+03   1.5290820e+02
   1.0266700e+03   1.1324850e+02
   1.0271520e+03   9.6824710e+01
   1.0276340e+03   1.4144380e+02
   1.0281170e+03   1.7174900e+02
   1.0285990e+03   1.3072610e+02
   1.0290810e+03   7.1205570e+01
   1.0295630e+03   6.0157230e+01
   1.0300450e+03   1.0985890e+02
   1.0305270e+03   1.4035500e+02
   1.0310090e+03   1.4612700e+02
   1.0314910e+03   1.4319380e+02
   1.0319740e+03   1.4448240e+02
   1.0324560e+03   1.4691550e+02
   1.0329380e+03   1.4485350e+02
   1.0334200e+03   1.3889110e+02
   1.0339020e+03   1.3942480e+02
   1.0343840e+03   1.5163430e+02
   1.0348660e+03   1.6691210e+02
   1.0353480e+03   1.8662060e+02
   1.0358300e+03   2.0594680e+02
   1.0363130e+03   2.0811770e+02
   1.0367950e+03   1.9710690e+02
   1.0372770e+03   1.9154830e+02
   1.0377590e+03   2.0076950e+02
   1.0382410e+03   2.1150340e+02
   1.0387230e+03   2.1720950e+02
   1.0392050e+03   2.1745120e+02
   1.0396870e+03   2.1038280e+02
   1.0401690e+03   1.9131880e+02
   1.0406520e+03   1.8949020e+02
   1.0411340e+03   2.0969730e+02
   1.0416160e+03   2.2898390e+02
   1.0420980e+03   2.2959670e+02
   1.0425800e+03   2.1668650e+02
   1.0430620e+03   1.9020260e+02
   1.0435440e+03   1.5447800e+02
   1.0440260e+03   1.3285500e+02
   1.0445090e+03   1.5680570e+02
   1.0449910e+03   1.6801030e+02
   1.0454730e+03   1.5048780e+02
   1.0459550e+03   1.1478960e+02
   1.0464370e+03   7.6576170e+01
   1.0469190e+03   3.8863770e+01
   1.0474010e+03   2.9908690e+01
   1.0478830e+03   6.5218750e+01
   1.0483650e+03   9.2385250e+01
   1.0488480e+03   5.1599610e+01
   1.0493300e+03   1.5786130e+00
   1.0498120e+03   6.7514650e+00
   1.0502940e+03   4.8907230e+01
   1.0507760e+03   7.0397950e+01
   1.0512580e+03   5.1549800e+01
   1.0517400e+03   2.7385740e+01
   1.0522220e+03   1.8448240e+01
   1.0527040e+03   1.8592770e+01
   1.0531870e+03   2.0102540e+01
   1.0536690e+03   2.1998050e+01
   1.0541510e+03   2.1986330e+01
   1.0546330e+03   2.6082030e+01
   1.0551150e+03   1.9430660e+01
   1.0555970e+03   7.8403320e+00
   1.0560790e+03   3.7933110e+01
   1.0565610e+03   4.1402830e+01
   1.0570440e+03   2.3229000e+01
   1.0575260e+03   2.0811040e+01
   1.0580080e+03   3.9950680e+01
   1.0584900e+03   5.3611330e+01
   1.0589720e+03   3.2070310e+01
   1.0594540e+03   5.7548830e+00
   1.0599360e+03   3.7231450e+00
   1.0604180e+03   2.4390140e+01
   1.0609010e+03   1.2708980e+01
   1.0613830e+03   4.1711910e+01
   1.0618650e+03   7.0889650e+01
   1.0623470e+03   3.6159670e+01
   1.0628290e+03   1.7838380e+01
   1.0633110e+03   1.8986820e+01
   1.0637930e+03   9.9179690e+00
   1.0642750e+03   2.5051270e+01
   1.0647570e+03   1.6850590e+00
   1.0652400e+03   1.5688230e+01
   1.0657220e+03   5.1616210e+00
   1.0662040e+03   8.8833010e+00
   1.0666860e+03   4.0327150e+00
   1.0671680e+03   1.4374020e+01
   1.0676500e+03   1.0816410e+01
   1.0681320e+03   1.4488530e+01
   1.0686140e+03   4.1854740e+01
   1.0690960e+03   6.6230470e+01
   1.0695790e+03   8.2604980e+01
   1.0700610e+03   8.3673830e+01
   1.0705430e+03   7.4822270e+01
   1.0710250e+03   7.0741210e+01
   1.0715070e+03   7.2036130e+01
   1.0719890e+03   7.3514650e+01
   1.0724710e+03   7.3548100e+01
   1.0729530e+03   7.4766850e+01
   1.0734360e+03   8.1377200e+01
   1.0739180e+03   9.1636720e+01
   1.0744000e+03   1.0225560e+02
   1.0748820e+03   1.0926200e+02
   1.0753640e+03   1.2153170e+02
   1.0758460e+03   1.4905270e+02
   1.0763280e+03   1.6521460e+02
   1.0768100e+03   1.5012260e+02
   1.0772920e+03   1.1674660e+02
   1.0777750e+03   1.0278640e+02
   1.0782570e+03   1.0449850e+02
   1.0787390e+03   1.0830980e+02
   1.0792210e+03   1.1003980e+02
   1.0797030e+03   1.1042920e+02
   1.0801850e+03   1.0835180e+02
   1.0806670e+03   1.0622190e+02
   1.0811490e+03   1.0785690e+02
   1.0816310e+03   1.1342140e+02
   1.0821140e+03   1.1083790e+02
   1.0825960e+03   9.9336910e+01
   1.0830780e+03   8.6612550e+01
   1.0835600e+03   8.0729000e+01
   1.0840420e+03   7.4802250e+01
   1.0845240e+03   6.2320070e+01
   1.0850060e+03   4.3986820e+01
   1.0854880e+03   2.6466060e+01
   1.0859710e+03   5.4274900e+00
   1.0864530e+03   1.2141110e+00
   1.0869350e+03   2.4952150e+01
   1.0874170e+03   5.4242920e+01
   1.0878990e+03   5.1069090e+01
   1.0883810e+03   3.0905030e+01
   1.0888630e+03   2.2699220e+01
   1.0893450e+03   3.8554930e+01
   1.0898280e+03   4.3825200e+01
   1.0903100e+03   2.2157960e+01
   1.0907920e+03   1.1826170e+00
   1.0912740e+03   7.9418900e-01
   1.0917560e+03   1.0184080e+01
   1.0922380e+03   1.4777830e+00
   1.0927200e+03   3.0087160e+01
   1.0932020e+03   4.5173830e+01
   1.0936840e+03   1.3877440e+01
   1.0941670e+03   1.5136470e+01
   1.0946490e+03   1.5292720e+01
   1.0951310e+03   1.4155270e+00
   1.0956130e+03   8.3759770e+00
   1.0960950e+03   1.4623290e+01
   1.0965770e+03   8.3698730e+00
   1.0970590e+03   1.2405520e+01
   1.0975410e+03   2.7464110e+01
   1.0980240e+03   1.0567380e+01
   1.0985060e+03   1.4037840e+01
   1.0989880e+03   2.2146730e+01
   1.0994700e+03   1.4208010e+01
   1.0999520e+03   9.5583500e+00
   1.1004340e+03   1.3467290e+01
   1.1009160e+03   1.0590090e+01
   1.1013980e+03   5.4946290e+00
   1.1018800e+03   2.4753910e+01
   1.1023630e+03   3.4699220e+01
   1.1028450e+03   3.4613530e+01
   1.1033270e+03   1.8808590e+01
   1.1038090e+03   2.0548100e+01
   1.1042910e+03   4.5842770e+01
   1.1047730e+03   4.2276120e+01
   1.1052550e+03   2.8262210e+01
   1.1057370e+03   9.7280270e+00
   1.1062190e+03   1.1673830e+01
   1.1067020e+03   2.7703860e+01
   1.1071840e+03   3.8214600e+01
   1.1076660e+03   4.3289310e+01
   1.1081480e+03   3.9205810e+01
   1.1086300e+03   3.5244380e+01
   1.1091120e+03   3.9896730e+01
   1.1095940e+03   4.4187010e+01
   1.1100760e+03   3.4505860e+01
   1.1105590e+03   7.5908200e+00
   1.1110410e+03   1.5488280e+00
   1.1115230e+03   1.8697510e+01
   1.1120050e+03   3.6718510e+01
   1.1124870e+03   3.7297610e+01
   1.1129690e+03   3.1523440e+01
   1.1134510e+03   2.3982670e+01
   1.1139330e+03   1.7226560e+01
   1.1144160e+03   2.5214360e+01
   1.1148980e+03   5.6609620e+01
   1.1153800e+03   7.9352540e+01
   1.1158620e+03   8.8025150e+01
   1.1163440e+03   8.4568360e+01
   1.1168260e+03   6.1228760e+01
   1.1173080e+03   3.0979000e+01
   1.1177900e+03   1.4470210e+01
   1.1182720e+03   1.4996340e+01
   1.1187550e+03   2.3055180e+01
   1.1192370e+03   4.2131100e+01
   1.1197190e+03   5.9365970e+01
   1.1202010e+03   7.1958980e+01
   1.1206830e+03   7.7061040e+01
   1.1211650e+03   6.4236080e+01
   1.1216470e+03   4.1068600e+01
   1.1221290e+03   2.6187260e+01
   1.1226110e+03   2.6261720e+01
   1.1230940e+03   3.4888430e+01
   1.1235760e+03   5.9837400e+01
   1.1240580e+03   8.5047120e+01
   1.1245400e+03   1.0050000e+02
   1.1250220e+03   1.0626980e+02
   1.1255040e+03   9.6013670e+01
   1.1259860e+03   7.1818360e+01
   1.1264680e+03   5.4645020e+01
   1.1269510e+03   6.5335940e+01
   1.1274330e+03   7.8861330e+01
   1.1279150e+03   8.3860600e+01
   1.1283970e+03   8.0166020e+01
   1.1288790e+03   6.6024170e+01
   1.1293610e+03   3.8324710e+01
   1.1298430e+03   2.4786380e+01
   1.1303250e+03   2.9458010e+01
   1.1308070e+03   3.5052980e+01
   1.1312900e+03   1.2770260e+01
   1.1317720e+03   6.7136230e+00
   1.1322540e+03   1.7598630e+01
   1.1327360e+03   8.1126460e+01
   1.1332180e+03   1.1171040e+02
   1.1337000e+03   9.3901860e+01
   1.1341820e+03   8.2062990e+01
   1.1346640e+03   8.8567140e+01
   1.1351460e+03   1.0846040e+02
   1.1356290e+03   1.5314970e+02
   1.1361110e+03   1.9830620e+02
   1.1365930e+03   1.9975050e+02
   1.1370750e+03   1.3917990e+02
   1.1375570e+03   9.3016850e+01
   1.1380390e+03   6.9326420e+01
   1.1385210e+03   6.4568850e+01
   1.1390030e+03   8.5387450e+01
   1.1394860e+03   1.1715380e+02
   1.1399680e+03   1.1501780e+02
   1.1404500e+03   9.1484380e+01
   1.1409320e+03   8.1746830e+01
   1.1414140e+03   1.0812840e+02
   1.1418960e+03   1.3312330e+02
   1.1423780e+03   1.5131320e+02
   1.1428600e+03   1.5935110e+02
   1.1433430e+03   1.5104610e+02
   1.1438250e+03   1.2820260e+02
   1.1443070e+03   1.0535250e+02
   1.1447890e+03   8.4216060e+01
   1.1452710e+03   7.3581790e+01
   1.1457530e+03   8.8900630e+01
   1.1462350e+03   1.0453080e+02
   1.1467170e+03   1.1083450e+02
   1.1471990e+03   1.0929710e+02
   1.1476820e+03   9.8300290e+01
   1.1481640e+03   7.7407710e+01
   1.1486460e+03   6.8840090e+01
   1.1491280e+03   7.5250490e+01
   1.1496100e+03   8.5727290e+01
   1.1500920e+03   8.8431880e+01
   1.1505740e+03   9.1146000e+01
   1.1510560e+03   1.0683200e+02
   1.1515380e+03   1.3277590e+02
   1.1520210e+03   1.4341500e+02
   1.1525030e+03   1.3548360e+02
   1.1529850e+03   1.2126590e+02
   1.1534670e+03   1.0166820e+02
   1.1539490e+03   8.4891360e+01
   1.1544310e+03   8.3511230e+01
   1.1549130e+03   8.9036870e+01
   1.1553950e+03   9.2002930e+01
   1.1558780e+03   9.0836670e+01
   1.1563600e+03   7.8026610e+01
   1.1568420e+03   4.6636230e+01
   1.1573240e+03   3.8250490e+01
   1.1578060e+03   8.0646240e+01
   1.1582880e+03   1.3306760e+02
   1.1587700e+03   1.3343750e+02
   1.1592520e+03   1.0390600e+02
   1.1597340e+03   7.7389890e+01
   1.1602170e+03   5.7928710e+01
   1.1606990e+03   5.0696040e+01
   1.1611810e+03   5.9001220e+01
   1.1616630e+03   6.7822270e+01
   1.1621450e+03   7.2154790e+01
   1.1626270e+03   7.2402340e+01
   1.1631090e+03   5.8504640e+01
   1.1635910e+03   3.8687010e+01
   1.1640730e+03   3.5102540e+01
   1.1645560e+03   8.0289310e+01
   1.1650380e+03   1.0239700e+02
   1.1655200e+03   8.5227290e+01
   1.1660020e+03   6.0045650e+01
   1.1664840e+03   5.8355710e+01
   1.1669660e+03   7.3232180e+01
   1.1674480e+03   8.5159670e+01
   1.1679300e+03   9.2983150e+01
   1.1684130e+03   9.5739990e+01
   1.1688950e+03   9.0221190e+01
   1.1693770e+03   8.5979740e+01
   1.1698590e+03   8.5839110e+01
   1.1703410e+03   8.6322750e+01
   1.1708230e+03   8.3858150e+01
   1.1713050e+03   7.7789060e+01
   1.1717870e+03   6.4501220e+01
   1.1722700e+03   4.4037600e+01
   1.1727520e+03   2.3780030e+01
   1.1732340e+03   7.3779300e-01
   1.1737160e+03   1.5441890e+01
   1.1741980e+03   1.2449710e+01
   1.1746800e+03   2.9355470e+00
   1.1751620e+03   2.1251220e+01
   1.1756440e+03   3.9887700e+01
   1.1761260e+03   4.2462160e+01
   1.1766090e+03   2.2158940e+01
   1.1770910e+03   2.1713870e+00
   1.1775730e+03   1.3182620e+01
   1.1780550e+03   1.2205570e+01
   1.1785370e+03   2.1266110e+01
   1.1790190e+03   7.8350590e+01
   1.1795010e+03   9.7196780e+01
   1.1799830e+03   8.0093020e+01
   1.1804650e+03   7.0872560e+01
   1.1809480e+03   9.3996830e+01
   1.1814300e+03   1.1149850e+02
   1.1819120e+03   7.9661620e+01
   1.1823940e+03   1.4104980e+01
   1.1828760e+03   4.8498540e+01
   1.1833580e+03   6.8647950e+01
   1.1838400e+03   7.5250490e+01
   1.1843220e+03   2.8144290e+01
   1.1848050e+03   5.0544430e+01
   1.1852870e+03   4.5129150e+01
   1.1857690e+03   3.8405520e+01
   1.1862510e+03   7.0278320e+01
   1.1867330e+03   3.0876950e+01
   1.1872150e+03   6.1697510e+01
   1.1876970e+03   6.3671140e+01
   1.1881790e+03   6.7113040e+01
   1.1886610e+03   6.8562260e+01
   1.1891440e+03   6.5911130e+01
   1.1896260e+03   5.1683590e+01
   1.1901080e+03   4.0433110e+01
   1.1905900e+03   4.9489260e+01
   1.1910720e+03   6.7547360e+01
   1.1915540e+03   6.5390140e+01
   1.1920360e+03   3.3863770e+01
   1.1925180e+03   1.9647950e+01
   1.1930000e+03   2.8195310e+01
   1.1934830e+03   4.4633790e+01
   1.1939650e+03   6.6568360e+01
   1.1944470e+03   8.0904300e+01
   1.1949290e+03   6.2059080e+01
   1.1954110e+03   2.0366210e+01
   1.1958930e+03   1.7299320e+01
   1.1963750e+03   7.1148440e+01
   1.1968570e+03   9.7625490e+01
   1.1973400e+03   7.7265620e+01
   1.1978220e+03   4.5956050e+01
   1.1983040e+03   3.9831540e+01
   1.1987860e+03   4.6974610e+01
   1.1992680e+03   5.8202150e+01
   1.1997500e+03   7.1635740e+01
   1.2002320e+03   7.3351070e+01
   1.2007140e+03   5.8429690e+01
   1.2011970e+03   4.9001460e+01
   1.2016790e+03   5.2021970e+01
   1.2021610e+03   5.9462400e+01
   1.2026430e+03   5.6967290e+01
   1.2031250e+03   5.4684080e+01
   1.2036070e+03   7.0812990e+01
   1.2040890e+03   1.1289310e+02
   1.2045710e+03   1.2758400e+02
   1.2050530e+03   1.0698580e+02
   1.2055360e+03   8.4718260e+01
   1.2060180e+03   7.2781740e+01
   1.2065000e+03   6.7713380e+01
   1.2069820e+03   6.6506840e+01
   1.2074640e+03   6.8143070e+01
   1.2079460e+03   7.1773930e+01
   1.2084280e+03   7.9691410e+01
   1.2089100e+03   7.9144530e+01
   1.2093920e+03   6.6357420e+01
   1.2098750e+03   5.8821290e+01
   1.2103570e+03   7.1806150e+01
   1.2108390e+03   8.8494140e+01
   1.2113210e+03   7.6122560e+01
   1.2118030e+03   5.0374510e+01
   1.2122850e+03   3.9935060e+01
   1.2127670e+03   5.8925290e+01
   1.2132490e+03   8.0691410e+01
   1.2137320e+03   1.0926760e+02
   1.2142140e+03   1.2749220e+02
   1.2146960e+03   1.1834670e+02
   1.2151780e+03   9.4611330e+01
   1.2156600e+03   6.7262210e+01
   1.2161420e+03   4.2465330e+01
   1.2166240e+03   3.6027830e+01
   1.2171060e+03   7.1580080e+01
   1.2175890e+03   8.2029790e+01
   1.2180710e+03   5.8328610e+01
   1.2185530e+03   3.4361330e+01
   1.2190350e+03   4.4725590e+01
   1.2195170e+03   6.9237790e+01
   1.2199990e+03   8.1371090e+01
   1.2204810e+03   8.1860350e+01
   1.2209630e+03   7.5464840e+01
   1.2214450e+03   5.8165040e+01
   1.2219270e+03   4.4378910e+01
   1.2224100e+03   3.4074220e+01
   1.2228920e+03   3.3455080e+01
   1.2233740e+03   6.1803220e+01
   1.2238560e+03   9.5137210e+01
   1.2243380e+03   9.8610350e+01
   1.2248200e+03   7.5173340e+01
   1.2253020e+03   5.0291020e+01
   1.2257840e+03   1.8937990e+01
   1.2262670e+03   1.0807130e+01
   1.2267490e+03   3.5280270e+01
   1.2272310e+03   6.5302250e+01
   1.2277130e+03   6.7344240e+01
   1.2281950e+03   5.6418950e+01
   1.2286770e+03   5.2700680e+01
   1.2291590e+03   5.6125490e+01
   1.2296410e+03   4.4850590e+01
   1.2301240e+03   6.8823240e+00
   1.2306060e+03   7.5966800e+00
   1.2310880e+03   1.6593750e+01
   1.2315700e+03   4.9400880e+01
   1.2320520e+03   5.5351070e+01
   1.2325340e+03   5.1050290e+01
   1.2330160e+03   5.6136230e+01
   1.2334980e+03   7.2602540e+01
   1.2339800e+03   6.9753910e+01
   1.2344630e+03   3.9172360e+01
   1.2349450e+03   2.2320800e+01
   1.2354270e+03   3.4379880e+01
   1.2359090e+03   5.1783690e+01
   1.2363910e+03   3.5716800e+01
   1.2368730e+03   1.3349610e+01
   1.2373550e+03   2.3750000e+01
   1.2378370e+03   7.4073730e+01
   1.2383200e+03   9.3407230e+01
   1.2388020e+03   7.6995610e+01
   1.2392840e+03   5.7136720e+01
   1.2397660e+03   4.3657230e+01
   1.2402480e+03   3.4545900e+01
   1.2407300e+03   3.3051760e+01
   1.2412120e+03   3.2556640e+01
   1.2416940e+03   2.0995120e+01
   1.2421770e+03   4.6137700e+00
   1.2426590e+03   4.9805000e-02
   1.2431410e+03   3.8506350e+01
   1.2436230e+03   6.4755370e+01
   1.2441050e+03   5.3506350e+01
   1.2445870e+03   3.3705080e+01
   1.2450690e+03   3.4530760e+01
   1.2455510e+03   4.3176270e+01
   1.2460330e+03   4.2782710e+01
   1.2465160e+03   3.1541020e+01
   1.2469980e+03   3.5409180e+01
   1.2474800e+03   5.4968750e+01
   1.2479620e+03   6.5276370e+01
   1.2484440e+03   4.6268070e+01
   1.2489260e+03   2.4423830e+01
   1.2494080e+03   2.3451170e+01
   1.2498900e+03   3.2463870e+01
   1.2503720e+03   4.0671390e+01
   1.2508550e+03   4.8562500e+01
   1.2513370e+03   4.6351560e+01
   1.2518190e+03   3.4557620e+01
   1.2523010e+03   3.0141110e+01
   1.2527830e+03   5.3950680e+01
   1.2532650e+03   7.2581540e+01
   1.2537470e+03   5.6287600e+01
   1.2542290e+03   2.9090330e+01
   1.2547120e+03   1.6841310e+01
   1.2551940e+03   1.9996580e+01
   1.2556760e+03   3.1700200e+01
   1.2561580e+03   5.0590820e+01
   1.2566400e+03   6.2326660e+01
   1.2571220e+03   5.2218750e+01
   1.2576040e+03   4.0559080e+01
   1.2580860e+03   3.7363280e+01
   1.2585680e+03   3.6377930e+01
   1.2590510e+03   2.8179690e+01
   1.2595330e+03   1.4723140e+01
   1.2600150e+03   2.5964840e+01
   1.2604970e+03   5.7333010e+01
   1.2609790e+03   7.5026860e+01
   1.2614610e+03   4.4462890e+01
   1.2619430e+03   1.7068850e+01
   1.2624250e+03   7.8032230e+00
   1.2629070e+03   1.1034180e+01
   1.2633900e+03   2.7490230e+01
   1.2638720e+03   5.1091800e+01
   1.2643540e+03   5.1050780e+01
   1.2648360e+03   3.1321780e+01
   1.2653180e+03   1.7907230e+01
   1.2658000e+03   2.6321290e+01
   1.2662820e+03   3.8329100e+01
   1.2667640e+03   5.7777340e+01
   1.2672470e+03   7.1286130e+01
   1.2677290e+03   5.4041500e+01
   1.2682110e+03   2.2341800e+01
   1.2686930e+03   2.4250490e+01
   1.2691750e+03   5.5209960e+01
   1.2696570e+03   7.3043950e+01
   1.2701390e+03   5.0667480e+01
   1.2706210e+03   3.4409670e+01
   1.2711040e+03   2.9897950e+01
   1.2715860e+03   3.1506840e+01
   1.2720680e+03   3.6387210e+01
   1.2725500e+03   4.1468750e+01
   1.2730320e+03   4.0057620e+01
   1.2735140e+03   3.2094730e+01
   1.2739960e+03   2.0670410e+01
   1.2744780e+03   2.2387700e+00
   1.2749600e+03   3.7583010e+00
   1.2754430e+03   2.5891110e+01
   1.2759250e+03   5.5589360e+01
   1.2764070e+03   4.2324710e+01
   1.2768890e+03   1.7867680e+01
   1.2773710e+03   2.5601070e+01
   1.2778530e+03   5.9404790e+01
   1.2783350e+03   7.1907230e+01
   1.2788170e+03   5.3913570e+01
   1.2792990e+03   5.1776860e+01
   1.2797820e+03   7.4871580e+01
   1.2802640e+03   9.4587400e+01
   1.2807460e+03   7.5213870e+01
   1.2812280e+03   4.7701170e+01
   1.2817100e+03   4.1394040e+01
   1.2821920e+03   5.0175780e+01
   1.2826740e+03   4.7802730e+01
   1.2831560e+03   3.3642090e+01
   1.2836390e+03   1.7356930e+01
   1.2841210e+03   2.6220700e-01
   1.2846030e+03   8.5351560e+00
   1.2850850e+03   1.1460940e+01
   1.2855670e+03   3.2902340e+01
   1.2860490e+03   3.7079100e+01
   1.2865310e+03   3.0414060e+01
   1.2870130e+03   2.2974610e+01
   1.2874950e+03   1.6170410e+01
   1.2879780e+03   3.0416990e+01
   1.2884600e+03   6.8933590e+01
   1.2889420e+03   8.9757810e+01
   1.2894240e+03   3.0474120e+01
   1.2899060e+03   7.8940430e+00
   1.2903880e+03   2.5942870e+01
   1.2908700e+03   9.0691410e+01
   1.2913520e+03   1.0319480e+02
   1.2918340e+03   7.6635740e+01
   1.2923170e+03   4.3307620e+01
   1.2927990e+03   7.6386720e+00
   1.2932810e+03   6.9482400e-01
   1.2937630e+03   9.3520020e+01
   1.2942450e+03   1.4790330e+02
   1.2947270e+03   1.2257280e+02
   1.2952090e+03   6.1942870e+01
   1.2956910e+03   2.2738770e+01
   1.2961740e+03   1.9863280e+00
   1.2966560e+03   4.2124020e+00
   1.2971380e+03   3.6213380e+01
   1.2976200e+03   5.7345210e+01
   1.2981020e+03   6.6021480e+01
   1.2985840e+03   6.8099120e+01
   1.2990660e+03   6.1282230e+01
   1.2995480e+03   5.2954590e+01
   1.3000310e+03   3.6062010e+01
   1.3005130e+03   1.6719240e+01
   1.3009950e+03   4.3315430e+00
   1.3014770e+03   0.0000000e+00
   1.5000000e+03   0.0000000e+00
