   1.0000000e+02   0.0000000e+00
   1.1975660e+02   0.0000000e+00
   1.2023870e+02   2.2853710e+02
   1.2072090e+02   2.7955080e+01
   1.2120300e+02   8.4988280e+01
   1.2168510e+02   7.5198240e+01
   1.2216720e+02   4.1678560e+02
   1.2264930e+02   9.3907230e+02
   1.2313140e+02   1.6412330e+03
   1.2361360e+02   2.4989930e+03
   1.2409570e+02   3.4914070e+03
   1.2457780e+02   4.6235000e+03
   1.2505990e+02   5.8704090e+03
   1.2554200e+02   7.2005970e+03
   1.2602410e+02   8.6157790e+03
   1.2650630e+02   1.0094690e+04
   1.2698840e+02   1.1654370e+04
   1.2747050e+02   1.3268260e+04
   1.2795260e+02   1.4872300e+04
   1.2843470e+02   1.6449380e+04
   1.2891680e+02   1.7997680e+04
   1.2939900e+02   1.9482300e+04
   1.2988110e+02   2.0898310e+04
   1.3036320e+02   2.2281760e+04
   1.3084530e+02   2.3677770e+04
   1.3132740e+02   2.5074070e+04
   1.3180950e+02   2.6478000e+04
   1.3229170e+02   2.7884190e+04
   1.3277380e+02   2.9297270e+04
   1.3325590e+02   3.0732950e+04
   1.3373800e+02   3.2190560e+04
   1.3422010e+02   3.3683390e+04
   1.3470220e+02   3.5259810e+04
   1.3518430e+02   3.6928640e+04
   1.3566650e+02   3.8648470e+04
   1.3614860e+02   4.0381450e+04
   1.3663070e+02   4.2110780e+04
   1.3711280e+02   4.3886620e+04
   1.3759490e+02   4.5709050e+04
   1.3807700e+02   4.7575270e+04
   1.3855920e+02   4.9575850e+04
   1.3904130e+02   5.1741280e+04
   1.3952340e+02   5.4020210e+04
   1.4000550e+02   5.6307270e+04
   1.4048760e+02   5.8615440e+04
   1.4096970e+02   6.0939810e+04
   1.4145190e+02   6.3299480e+04
   1.4193400e+02   6.5792140e+04
   1.4241610e+02   6.8062160e+04
   1.4289820e+02   7.0237230e+04
   1.4338030e+02   7.2186180e+04
   1.4386240e+02   7.3441280e+04
   1.4434460e+02   7.4030610e+04
   1.4482670e+02   7.3702200e+04
   1.4530880e+02   7.2014010e+04
   1.4579090e+02   6.9426310e+04
   1.4627300e+02   6.6358560e+04
   1.4675510e+02   6.2802360e+04
   1.4723730e+02   5.8725870e+04
   1.4771940e+02   5.4639000e+04
   1.4820150e+02   5.0405070e+04
   1.4868360e+02   4.6228760e+04
   1.4916570e+02   4.2213540e+04
   1.4964780e+02   3.8237120e+04
   1.5013000e+02   3.4557140e+04
   1.5061210e+02   3.1227020e+04
   1.5109420e+02   2.8299500e+04
   1.5157630e+02   2.5584710e+04
   1.5205840e+02   2.3079300e+04
   1.5254050e+02   2.0798880e+04
   1.5302270e+02   1.8720340e+04
   1.5350480e+02   1.6874430e+04
   1.5398690e+02   1.5207630e+04
   1.5446900e+02   1.3702670e+04
   1.5495110e+02   1.2402210e+04
   1.5543320e+02   1.1199410e+04
   1.5591540e+02   1.0064190e+04
   1.5639750e+02   9.0099780e+03
   1.5687960e+02   8.0615620e+03
   1.5736170e+02   7.2471310e+03
   1.5784380e+02   6.5178540e+03
   1.5832590e+02   5.8601610e+03
   1.5880800e+02   5.2767300e+03
   1.5929020e+02   4.7470250e+03
   1.5977230e+02   4.2719530e+03
   1.6025440e+02   3.8524420e+03
   1.6073650e+02   3.4635020e+03
   1.6121860e+02   3.1061970e+03
   1.6170070e+02   2.7788940e+03
   1.6218290e+02   2.4766120e+03
   1.6266500e+02   2.1979840e+03
   1.6314710e+02   1.9457370e+03
   1.6362920e+02   1.7216020e+03
   1.6411130e+02   1.5271430e+03
   1.6459340e+02   1.3503180e+03
   1.6507560e+02   1.1875720e+03
   1.6555770e+02   1.0380390e+03
   1.6603980e+02   8.9890140e+02
   1.6652190e+02   7.6709940e+02
   1.6700400e+02   6.4843360e+02
   1.6748610e+02   5.4900930e+02
   1.6796830e+02   4.8023220e+02
   1.6845040e+02   4.1166460e+02
   1.6893250e+02   3.1760910e+02
   1.6941460e+02   2.0615210e+02
   1.6989670e+02   1.0579960e+02
   1.7037880e+02   3.6557130e+01
   1.7086100e+02   1.3123290e+01
   1.7134310e+02   5.4598630e+01
   1.7182520e+02   8.2551510e+01
   1.7230730e+02   1.1219820e+02
   1.7278940e+02   1.5882060e+02
   1.7327150e+02   2.2149560e+02
   1.7375370e+02   2.8178030e+02
   1.7423580e+02   3.2812520e+02
   1.7471790e+02   3.6280300e+02
   1.7520000e+02   3.8985450e+02
   1.7568210e+02   4.0452880e+02
   1.7616420e+02   4.1633110e+02
   1.7664640e+02   4.3859350e+02
   1.7712850e+02   4.7240820e+02
   1.7761060e+02   5.0890410e+02
   1.7809270e+02   5.3092660e+02
   1.7857480e+02   5.3775170e+02
   1.7905690e+02   5.3111400e+02
   1.7953900e+02   5.1144490e+02
   1.8002120e+02   4.8316080e+02
   1.8050330e+02   4.4898300e+02
   1.8098540e+02   4.0716820e+02
   1.8146750e+02   3.6665560e+02
   1.8194960e+02   3.4199780e+02
   1.8243170e+02   3.3116280e+02
   1.8291390e+02   3.1905880e+02
   1.8339600e+02   2.9433350e+02
   1.8387810e+02   2.6141600e+02
   1.8436020e+02   2.3224630e+02
   1.8484230e+02   2.1143550e+02
   1.8532440e+02   1.9296500e+02
   1.8580660e+02   1.6582950e+02
   1.8628870e+02   1.3004960e+02
   1.8677080e+02   9.2632450e+01
   1.8725290e+02   5.9162960e+01
   1.8773500e+02   2.9116700e+01
   1.8821710e+02   4.3957500e-01
   1.8869930e+02   2.9367680e+01
   1.8918140e+02   5.8554570e+01
   1.8966350e+02   8.9051270e+01
   1.9014560e+02   1.2024820e+02
   1.9062770e+02   1.5632850e+02
   1.9110980e+02   2.0423080e+02
   1.9159200e+02   2.6305730e+02
   1.9207410e+02   3.2189540e+02
   1.9255620e+02   3.7203500e+02
   1.9303830e+02   4.1682950e+02
   1.9352040e+02   4.7808080e+02
   1.9400250e+02   5.5735530e+02
   1.9448470e+02   6.4923390e+02
   1.9496680e+02   7.4831480e+02
   1.9544890e+02   8.5482260e+02
   1.9593100e+02   9.6316560e+02
   1.9641310e+02   1.0795420e+03
   1.9689520e+02   1.2020830e+03
   1.9737740e+02   1.2976670e+03
   1.9785950e+02   1.3673550e+03
   1.9834160e+02   1.4045770e+03
   1.9882370e+02   1.3875450e+03
   1.9930580e+02   1.3121500e+03
   1.9978790e+02   1.2158180e+03
   2.0027010e+02   1.1177380e+03
   2.0075220e+02   1.0173590e+03
   2.0123430e+02   9.2482660e+02
   2.0171640e+02   8.4042540e+02
   2.0219850e+02   7.6510480e+02
   2.0268060e+02   7.0195180e+02
   2.0316280e+02   6.5244070e+02
   2.0364490e+02   6.1353630e+02
   2.0412700e+02   5.8605120e+02
   2.0460910e+02   5.7119800e+02
   2.0509120e+02   5.5819020e+02
   2.0557330e+02   5.4386790e+02
   2.0605550e+02   5.2915080e+02
   2.0653760e+02   5.2294240e+02
   2.0701970e+02   5.2732580e+02
   2.0750180e+02   5.3584800e+02
   2.0798390e+02   5.4126360e+02
   2.0846600e+02   5.4256730e+02
   2.0894820e+02   5.4532380e+02
   2.0943030e+02   5.5177770e+02
   2.0991240e+02   5.6206210e+02
   2.1039450e+02   5.7071460e+02
   2.1087660e+02   5.7682710e+02
   2.1135870e+02   5.8260090e+02
   2.1184090e+02   5.9144870e+02
   2.1232300e+02   6.0485220e+02
   2.1280510e+02   6.1711220e+02
   2.1328720e+02   6.2514320e+02
   2.1376930e+02   6.2715200e+02
   2.1425140e+02   6.3558060e+02
   2.1473360e+02   6.5303370e+02
   2.1521570e+02   6.7498350e+02
   2.1569780e+02   6.9225820e+02
   2.1617990e+02   7.0382290e+02
   2.1666200e+02   7.1311650e+02
   2.1714410e+02   7.2108420e+02
   2.1762630e+02   7.2686720e+02
   2.1810840e+02   7.3447310e+02
   2.1859050e+02   7.4449830e+02
   2.1907260e+02   7.5624010e+02
   2.1955470e+02   7.6784860e+02
   2.2003680e+02   7.8012190e+02
   2.2051900e+02   7.9075140e+02
   2.2100110e+02   7.9775500e+02
   2.2148320e+02   7.9878230e+02
   2.2196530e+02   8.0215300e+02
   2.2244740e+02   8.0841750e+02
   2.2292950e+02   8.1749530e+02
   2.2341170e+02   8.2931880e+02
   2.2389380e+02   8.4665250e+02
   2.2437590e+02   8.6290100e+02
   2.2485800e+02   8.7232680e+02
   2.2534010e+02   8.6986350e+02
   2.2582220e+02   8.7221170e+02
   2.2630430e+02   8.8319000e+02
   2.2678650e+02   9.0229030e+02
   2.2726860e+02   9.1872780e+02
   2.2775070e+02   9.3177810e+02
   2.2823280e+02   9.4244200e+02
   2.2871490e+02   9.5052690e+02
   2.2919700e+02   9.5723860e+02
   2.2967920e+02   9.6004100e+02
   2.3016130e+02   9.5683670e+02
   2.3064340e+02   9.4599560e+02
   2.3112550e+02   9.3458580e+02
   2.3160760e+02   9.2348270e+02
   2.3208970e+02   9.1234220e+02
   2.3257190e+02   9.0120950e+02
   2.3305400e+02   8.9359850e+02
   2.3353610e+02   8.8185860e+02
   2.3401820e+02   8.6339170e+02
   2.3450030e+02   8.3617410e+02
   2.3498240e+02   8.0818750e+02
   2.3546460e+02   7.8070570e+02
   2.3594670e+02   7.5248230e+02
   2.3642880e+02   7.2073720e+02
   2.3691090e+02   6.8342000e+02
   2.3739300e+02   6.4848830e+02
   2.3787510e+02   6.1890460e+02
   2.3835730e+02   5.9635680e+02
   2.3883940e+02   5.7572960e+02
   2.3932150e+02   5.5685560e+02
   2.3980360e+02   5.3879140e+02
   2.4028570e+02   5.2075560e+02
   2.4076780e+02   5.0248290e+02
   2.4125000e+02   4.8555440e+02
   2.4173210e+02   4.7141340e+02
   2.4221420e+02   4.6279810e+02
   2.4269630e+02   4.4876360e+02
   2.4317840e+02   4.2488690e+02
   2.4366050e+02   3.9682610e+02
   2.4414270e+02   3.7930000e+02
   2.4462480e+02   3.7756370e+02
   2.4510690e+02   3.7898320e+02
   2.4558900e+02   3.7759290e+02
   2.4607110e+02   3.7201940e+02
   2.4655320e+02   3.6626630e+02
   2.4703530e+02   3.5957270e+02
   2.4751750e+02   3.5252700e+02
   2.4799960e+02   3.4790610e+02
   2.4848170e+02   3.4717140e+02
   2.4896380e+02   3.4737040e+02
   2.4944590e+02   3.4638280e+02
   2.4992800e+02   3.4145970e+02
   2.5041020e+02   3.3997520e+02
   2.5089230e+02   3.4297630e+02
   2.5137440e+02   3.4985580e+02
   2.5185650e+02   3.5658270e+02
   2.5233860e+02   3.6349730e+02
   2.5282070e+02   3.6975950e+02
   2.5330290e+02   3.7463420e+02
   2.5378500e+02   3.7812720e+02
   2.5426710e+02   3.8003010e+02
   2.5474920e+02   3.7902310e+02
   2.5523130e+02   3.7568280e+02
   2.5571340e+02   3.7730670e+02
   2.5619560e+02   3.8732890e+02
   2.5667770e+02   3.9801330e+02
   2.5715980e+02   4.0279360e+02
   2.5764190e+02   3.9835940e+02
   2.5812400e+02   3.9533340e+02
   2.5860610e+02   3.9527940e+02
   2.5908830e+02   3.9800230e+02
   2.5957040e+02   4.0221520e+02
   2.6005250e+02   4.1049420e+02
   2.6053460e+02   4.1681750e+02
   2.6101670e+02   4.1416140e+02
   2.6149880e+02   3.9696760e+02
   2.6198100e+02   3.8450390e+02
   2.6246310e+02   3.8283740e+02
   2.6294520e+02   3.9220770e+02
   2.6342730e+02   3.9488140e+02
   2.6390940e+02   3.8878820e+02
   2.6439150e+02   3.7889190e+02
   2.6487370e+02   3.7016760e+02
   2.6535580e+02   3.6260610e+02
   2.6583790e+02   3.5674190e+02
   2.6632000e+02   3.5401230e+02
   2.6680210e+02   3.5485190e+02
   2.6728420e+02   3.4899760e+02
   2.6776640e+02   3.3288330e+02
   2.6824850e+02   3.1496640e+02
   2.6873060e+02   3.0619900e+02
   2.6921270e+02   3.0999160e+02
   2.6969480e+02   3.1302550e+02
   2.7017690e+02   3.1163260e+02
   2.7065910e+02   3.0527790e+02
   2.7114120e+02   2.9749000e+02
   2.7162330e+02   2.8718970e+02
   2.7210540e+02   2.7695040e+02
   2.7258750e+02   2.7070060e+02
   2.7306960e+02   2.6971390e+02
   2.7355180e+02   2.6825040e+02
   2.7403390e+02   2.6427610e+02
   2.7451600e+02   2.5741470e+02
   2.7499810e+02   2.4960830e+02
   2.7548020e+02   2.4021290e+02
   2.7596230e+02   2.3111350e+02
   2.7644450e+02   2.2536190e+02
   2.7692660e+02   2.2352060e+02
   2.7740870e+02   2.2192230e+02
   2.7789080e+02   2.1911950e+02
   2.7837290e+02   2.1497920e+02
   2.7885500e+02   2.1147610e+02
   2.7933720e+02   2.0897150e+02
   2.7981930e+02   2.0720530e+02
   2.8030140e+02   2.0565970e+02
   2.8078350e+02   2.0417120e+02
   2.8126560e+02   1.9948050e+02
   2.8174770e+02   1.8872860e+02
   2.8222980e+02   1.7213370e+02
   2.8271190e+02   1.6076530e+02
   2.8319410e+02   1.5482770e+02
   2.8367620e+02   1.5282530e+02
   2.8415830e+02   1.5423100e+02
   2.8464040e+02   1.5960780e+02
   2.8512250e+02   1.6291560e+02
   2.8560460e+02   1.5950390e+02
   2.8608680e+02   1.4988660e+02
   2.8656890e+02   1.4443300e+02
   2.8705100e+02   1.4442950e+02
   2.8753310e+02   1.4653090e+02
   2.8801520e+02   1.4546340e+02
   2.8849730e+02   1.4116620e+02
   2.8897950e+02   1.3571720e+02
   2.8946160e+02   1.2904300e+02
   2.8994370e+02   1.2164300e+02
   2.9042580e+02   1.1732770e+02
   2.9090790e+02   1.1700390e+02
   2.9139000e+02   1.1794250e+02
   2.9187220e+02   1.1603650e+02
   2.9235430e+02   1.1134590e+02
   2.9283640e+02   1.0569050e+02
   2.9331850e+02   9.8928620e+01
   2.9380060e+02   9.1784240e+01
   2.9428270e+02   8.7045290e+01
   2.9476490e+02   8.4995330e+01
   2.9524700e+02   8.4986540e+01
   2.9572910e+02   8.6927640e+01
   2.9621120e+02   9.0658660e+01
   2.9669330e+02   9.4167600e+01
   2.9717540e+02   9.7218990e+01
   2.9765760e+02   9.9348050e+01
   2.9813970e+02   9.9596740e+01
   2.9862180e+02   9.8042660e+01
   2.9910390e+02   9.3920590e+01
   2.9958600e+02   8.2796510e+01
   3.0006810e+02   6.6848270e+01
   3.0055030e+02   5.5568630e+01
   3.0103240e+02   5.7920260e+01
   3.0151450e+02   6.7891480e+01
   3.0199660e+02   7.4835510e+01
   3.0247870e+02   7.7915370e+01
   3.0296080e+02   7.7866520e+01
   3.0344300e+02   7.3063750e+01
   3.0392510e+02   6.5091490e+01
   3.0440720e+02   5.9291750e+01
   3.0488930e+02   6.0019470e+01
   3.0537140e+02   6.4078190e+01
   3.0585350e+02   6.8052550e+01
   3.0633570e+02   7.2195680e+01
   3.0681780e+02   7.3599090e+01
   3.0729990e+02   6.6736850e+01
   3.0778200e+02   5.4478880e+01
   3.0826410e+02   4.4423000e+01
   3.0874620e+02   4.1721950e+01
   3.0922840e+02   4.2710690e+01
   3.0971050e+02   4.3772160e+01
   3.1019260e+02   4.4437740e+01
   3.1067470e+02   4.5342530e+01
   3.1115680e+02   4.7903930e+01
   3.1163890e+02   5.1058040e+01
   3.1212110e+02   5.2514770e+01
   3.1260320e+02   4.9427190e+01
   3.1308530e+02   4.5213010e+01
   3.1356740e+02   4.2892270e+01
   3.1404950e+02   4.3460330e+01
   3.1453160e+02   4.3570070e+01
   3.1501380e+02   4.0559270e+01
   3.1549590e+02   3.5722900e+01
   3.1597800e+02   3.1471370e+01
   3.1646010e+02   2.9146790e+01
   3.1694220e+02   2.7553530e+01
   3.1742430e+02   2.5549320e+01
   3.1790650e+02   2.2442440e+01
   3.1838860e+02   2.1383970e+01
   3.1887070e+02   2.7530760e+01
   3.1935280e+02   3.5920470e+01
   3.1983490e+02   3.8871640e+01
   3.2031700e+02   2.8608090e+01
   3.2079920e+02   1.6590270e+01
   3.2128130e+02   7.4580690e+00
   3.2176340e+02   1.8300780e+00
   3.2224550e+02   1.3443600e+00
   3.2272760e+02   7.2869900e-01
   3.2320970e+02   1.8179320e+00
   3.2369190e+02   3.7106930e+00
   3.2417400e+02   3.7807010e+00
   3.2465610e+02   3.6099240e+00
   3.2513820e+02   4.1647340e+00
   3.2562030e+02   6.2031250e+00
   3.2610240e+02   5.8272090e+00
   3.2658450e+02   1.6497800e+00
   3.2706670e+02   1.0476750e+01
   3.2754880e+02   1.3569700e+01
   3.2803090e+02   6.4879999e-02
   3.2851300e+02   9.6260990e+00
   3.2899510e+02   8.7100220e+00
   3.2947720e+02   6.1239620e+00
   3.2995940e+02   1.8044490e+01
   3.3044150e+02   2.6884160e+01
   3.3092360e+02   3.2767400e+01
   3.3140570e+02   3.5661620e+01
   3.3188780e+02   3.2205020e+01
   3.3236990e+02   2.9983830e+01
   3.3285210e+02   3.1059450e+01
   3.3333420e+02   3.6111690e+01
   3.3381630e+02   3.9364010e+01
   3.3429840e+02   4.0118160e+01
   3.3478050e+02   3.9621460e+01
   3.3526260e+02   3.8768550e+01
   3.3574480e+02   3.5703740e+01
   3.3622690e+02   3.6163880e+01
   3.3670900e+02   4.4075500e+01
   3.3719110e+02   5.9613100e+01
   3.3767320e+02   6.2774600e+01
   3.3815530e+02   4.7144230e+01
   3.3863750e+02   2.7927980e+01
   3.3911960e+02   2.0674010e+01
   3.3960170e+02   2.9564030e+01
   3.4008380e+02   3.6615300e+01
   3.4056590e+02   3.7638610e+01
   3.4104800e+02   3.3404480e+01
   3.4153020e+02   3.0697200e+01
   3.4201230e+02   3.0154420e+01
   3.4249440e+02   2.9431820e+01
   3.4297650e+02   2.5929750e+01
   3.4345860e+02   1.9353150e+01
   3.4394070e+02   1.3805970e+01
   3.4442290e+02   1.0369380e+01
   3.4490500e+02   8.5797730e+00
   3.4538710e+02   7.4658810e+00
   3.4586920e+02   7.2374270e+00
   3.4635130e+02   6.3303830e+00
   3.4683340e+02   3.1163940e+00
   3.4731560e+02   2.2131350e+00
   3.4779770e+02   7.4705810e+00
   3.4827980e+02   1.2332280e+01
   3.4876190e+02   1.6880430e+01
   3.4924400e+02   2.1012820e+01
   3.4972610e+02   2.4804810e+01
   3.5020830e+02   2.9569640e+01
   3.5069040e+02   3.6345340e+01
   3.5117250e+02   4.4919130e+01
   3.5165460e+02   5.5048520e+01
   3.5213670e+02   6.7745240e+01
   3.5261880e+02   7.9833920e+01
   3.5310100e+02   8.4735720e+01
   3.5358310e+02   8.3825930e+01
   3.5406520e+02   8.4628910e+01
   3.5454730e+02   9.3196590e+01
   3.5502940e+02   1.0629780e+02
   3.5551150e+02   1.1927260e+02
   3.5599370e+02   1.3152760e+02
   3.5647580e+02   1.4271030e+02
   3.5695790e+02   1.5132650e+02
   3.5744000e+02   1.5841260e+02
   3.5792210e+02   1.6662490e+02
   3.5840420e+02   1.7986970e+02
   3.5888640e+02   1.9362220e+02
   3.5936850e+02   2.0237960e+02
   3.5985060e+02   2.0326560e+02
   3.6033270e+02   2.0682160e+02
   3.6081480e+02   2.2035620e+02
   3.6129690e+02   2.4094060e+02
   3.6177910e+02   2.6319230e+02
   3.6226120e+02   2.8509280e+02
   3.6274330e+02   3.0787960e+02
   3.6322540e+02   3.3331630e+02
   3.6370750e+02   3.6320100e+02
   3.6418960e+02   3.8878630e+02
   3.6467180e+02   4.0466970e+02
   3.6515390e+02   4.1554760e+02
   3.6563600e+02   4.2763570e+02
   3.6611810e+02   4.3870620e+02
   3.6660020e+02   4.5473610e+02
   3.6708230e+02   4.7867850e+02
   3.6756450e+02   5.1157560e+02
   3.6804660e+02   5.4625400e+02
   3.6852870e+02   5.8523130e+02
   3.6901080e+02   6.2386080e+02
   3.6949290e+02   6.5689700e+02
   3.6997500e+02   6.7604720e+02
   3.7045710e+02   6.9829540e+02
   3.7093920e+02   7.2445850e+02
   3.7142140e+02   7.5440560e+02
   3.7190350e+02   7.9505940e+02
   3.7238560e+02   8.5564190e+02
   3.7286770e+02   9.1921200e+02
   3.7334980e+02   9.7249570e+02
   3.7383190e+02   1.0104760e+03
   3.7431410e+02   1.0455460e+03
   3.7479620e+02   1.0751080e+03
   3.7527830e+02   1.1015290e+03
   3.7576040e+02   1.1443780e+03
   3.7624250e+02   1.2106030e+03
   3.7672460e+02   1.2809380e+03
   3.7720680e+02   1.3409230e+03
   3.7768890e+02   1.3882360e+03
   3.7817100e+02   1.4369270e+03
   3.7865310e+02   1.4872750e+03
   3.7913520e+02   1.5403890e+03
   3.7961730e+02   1.6004880e+03
   3.8009950e+02   1.6709460e+03
   3.8058160e+02   1.7357800e+03
   3.8106370e+02   1.7817430e+03
   3.8154580e+02   1.8099090e+03
   3.8202790e+02   1.8494930e+03
   3.8251000e+02   1.9043260e+03
   3.8299220e+02   1.9687120e+03
   3.8347430e+02   2.0366640e+03
   3.8395640e+02   2.1079420e+03
   3.8443850e+02   2.1772930e+03
   3.8492060e+02   2.2482070e+03
   3.8540270e+02   2.3157580e+03
   3.8588490e+02   2.3640380e+03
   3.8636700e+02   2.3884090e+03
   3.8684910e+02   2.4094510e+03
   3.8733120e+02   2.4542540e+03
   3.8781330e+02   2.5152090e+03
   3.8829540e+02   2.5700710e+03
   3.8877760e+02   2.6067400e+03
   3.8925970e+02   2.6330110e+03
   3.8974180e+02   2.6589790e+03
   3.9022390e+02   2.6848020e+03
   3.9070600e+02   2.7057280e+03
   3.9118810e+02   2.7137530e+03
   3.9167030e+02   2.7160140e+03
   3.9215240e+02   2.7229440e+03
   3.9263450e+02   2.7457920e+03
   3.9311660e+02   2.7680280e+03
   3.9359870e+02   2.7825310e+03
   3.9408080e+02   2.7890720e+03
   3.9456300e+02   2.7844080e+03
   3.9504510e+02   2.7590970e+03
   3.9552720e+02   2.7250480e+03
   3.9600930e+02   2.6931320e+03
   3.9649140e+02   2.6771290e+03
   3.9697350e+02   2.6486770e+03
   3.9745570e+02   2.5958770e+03
   3.9793780e+02   2.5240660e+03
   3.9841990e+02   2.4534860e+03
   3.9890200e+02   2.3907460e+03
   3.9938410e+02   2.3277960e+03
   3.9986620e+02   2.2603840e+03
   4.0034840e+02   2.1851570e+03
   4.0083050e+02   2.1089820e+03
   4.0131260e+02   2.0308970e+03
   4.0179470e+02   1.9526170e+03
   4.0227680e+02   1.8776450e+03
   4.0275890e+02   1.8094510e+03
   4.0324110e+02   1.7394460e+03
   4.0372320e+02   1.6648180e+03
   4.0420530e+02   1.5845220e+03
   4.0468740e+02   1.5038160e+03
   4.0516950e+02   1.4199230e+03
   4.0565160e+02   1.3390510e+03
   4.0613380e+02   1.2710860e+03
   4.0661590e+02   1.2192540e+03
   4.0709800e+02   1.1670050e+03
   4.0758010e+02   1.1085750e+03
   4.0806220e+02   1.0440740e+03
   4.0854430e+02   9.8616370e+02
   4.0902650e+02   9.3504450e+02
   4.0950860e+02   8.8828070e+02
   4.0999070e+02   8.4435610e+02
   4.1047280e+02   8.0283260e+02
   4.1095490e+02   7.6032250e+02
   4.1143700e+02   7.1397040e+02
   4.1191920e+02   6.6710850e+02
   4.1240130e+02   6.2996310e+02
   4.1288340e+02   6.0248840e+02
   4.1336550e+02   5.7729360e+02
   4.1384760e+02   5.4537890e+02
   4.1432970e+02   5.1175560e+02
   4.1481190e+02   4.8933980e+02
   4.1529390e+02   4.8414750e+02
   4.1577610e+02   4.8325980e+02
   4.1625820e+02   4.7303560e+02
   4.1674030e+02   4.5429490e+02
   4.1722240e+02   4.3050630e+02
   4.1770450e+02   3.9667990e+02
   4.1818660e+02   3.6212690e+02
   4.1866880e+02   3.3658770e+02
   4.1915090e+02   3.2284700e+02
   4.1963300e+02   3.1250990e+02
   4.2011510e+02   3.0126760e+02
   4.2059720e+02   2.8996400e+02
   4.2107930e+02   2.7979770e+02
   4.2156150e+02   2.7342310e+02
   4.2204360e+02   2.6658340e+02
   4.2252570e+02   2.5677750e+02
   4.2300780e+02   2.4363230e+02
   4.2348990e+02   2.3101210e+02
   4.2397200e+02   2.1930000e+02
   4.2445420e+02   2.0912340e+02
   4.2493630e+02   2.0129850e+02
   4.2541840e+02   1.9946680e+02
   4.2590050e+02   1.9605800e+02
   4.2638260e+02   1.8851400e+02
   4.2686470e+02   1.7728650e+02
   4.2734690e+02   1.6905020e+02
   4.2782900e+02   1.6773070e+02
   4.2831110e+02   1.6571770e+02
   4.2879320e+02   1.5812650e+02
   4.2927530e+02   1.4030190e+02
   4.2975740e+02   1.2706160e+02
   4.3023960e+02   1.2068170e+02
   4.3072170e+02   1.1874270e+02
   4.3120380e+02   1.1452040e+02
   4.3168590e+02   1.0638920e+02
   4.3216800e+02   1.0024950e+02
   4.3265010e+02   1.0057820e+02
   4.3313230e+02   1.0812630e+02
   4.3361440e+02   1.0865360e+02
   4.3409650e+02   1.0060630e+02
   4.3457860e+02   8.9409910e+01
   4.3506070e+02   8.3223820e+01
   4.3554280e+02   8.1770940e+01
   4.3602500e+02   7.9348510e+01
   4.3650710e+02   7.2648740e+01
   4.3698920e+02   6.3789250e+01
   4.3747130e+02   5.8331540e+01
   4.3795340e+02   5.6315920e+01
   4.3843550e+02   5.5869020e+01
   4.3891770e+02   5.7884030e+01
   4.3939980e+02   6.0097290e+01
   4.3988190e+02   5.7185180e+01
   4.4036400e+02   4.3735530e+01
   4.4084610e+02   2.9840580e+01
   4.4132820e+02   2.6683900e+01
   4.4181040e+02   3.2029480e+01
   4.4229250e+02   3.6898860e+01
   4.4277460e+02   3.6956420e+01
   4.4325670e+02   3.3957820e+01
   4.4373880e+02   2.8568910e+01
   4.4422090e+02   1.9041810e+01
   4.4470310e+02   1.2007510e+01
   4.4518520e+02   1.2524170e+01
   4.4566730e+02   1.7018130e+01
   4.4614940e+02   1.9378170e+01
   4.4663150e+02   1.4834590e+01
   4.4711360e+02   1.0655270e+01
   4.4759580e+02   1.0120480e+01
   4.4807790e+02   1.4504700e+01
   4.4856000e+02   1.6422490e+01
   4.4904210e+02   1.2305180e+01
   4.4952420e+02   7.1834720e+00
   4.5000630e+02   5.7257690e+00
   4.5048850e+02   1.3743230e+01
   4.5097060e+02   1.6228520e+01
   4.5145270e+02   8.8845210e+00
   4.5193480e+02   6.4035030e+00
   4.5241690e+02   1.7226870e+01
   4.5289900e+02   2.4115780e+01
   4.5338120e+02   2.5693790e+01
   4.5386330e+02   1.7902340e+01
   4.5434540e+02   1.8289790e+00
   4.5482750e+02   1.0548950e+01
   4.5530960e+02   3.8751830e+00
   4.5579170e+02   1.0720830e+01
   4.5627390e+02   2.0466740e+01
   4.5675600e+02   2.5444210e+01
   4.5723810e+02   2.6420230e+01
   4.5772020e+02   2.1349300e+01
   4.5820230e+02   1.2394350e+01
   4.5868440e+02   7.2667240e+00
   4.5916660e+02   6.3941650e+00
   4.5964870e+02   6.3223880e+00
   4.6013080e+02   3.6718140e+00
   4.6061290e+02   7.9504400e-01
   4.6109500e+02   5.6093750e+00
   4.6157710e+02   1.2716860e+01
   4.6205920e+02   1.7761660e+01
   4.6254140e+02   1.3794070e+01
   4.6302350e+02   2.5470580e+00
   4.6350560e+02   5.2570800e+00
   4.6398770e+02   7.0556600e-01
   4.6446980e+02   8.2597050e+00
   4.6495190e+02   1.5347840e+01
   4.6543410e+02   1.9182250e+01
   4.6591620e+02   2.1053100e+01
   4.6639830e+02   1.9377380e+01
   4.6688040e+02   1.6104490e+01
   4.6736250e+02   1.5283940e+01
   4.6784460e+02   2.0736690e+01
   4.6832680e+02   2.5986630e+01
   4.6880890e+02   2.8356630e+01
   4.6929100e+02   2.6627690e+01
   4.6977310e+02   2.6851500e+01
   4.7025520e+02   3.0859500e+01
   4.7073730e+02   3.5525700e+01
   4.7121950e+02   3.7036190e+01
   4.7170160e+02   3.1241760e+01
   4.7218370e+02   3.1591310e+01
   4.7266580e+02   4.2909790e+01
   4.7314790e+02   6.2436220e+01
   4.7363000e+02   7.4635010e+01
   4.7411220e+02   7.8421510e+01
   4.7459430e+02   7.8584840e+01
   4.7507640e+02   7.5560120e+01
   4.7555850e+02   6.9772460e+01
   4.7604060e+02   7.2942380e+01
   4.7652270e+02   8.8208620e+01
   4.7700490e+02   1.0782060e+02
   4.7748700e+02   1.1977520e+02
   4.7796910e+02   1.2503380e+02
   4.7845120e+02   1.2944720e+02
   4.7893330e+02   1.3553610e+02
   4.7941540e+02   1.4267820e+02
   4.7989760e+02   1.5033840e+02
   4.8037970e+02   1.5851750e+02
   4.8086180e+02   1.6617140e+02
   4.8134390e+02   1.7372640e+02
   4.8182600e+02   1.7980040e+02
   4.8230810e+02   1.8214840e+02
   4.8279030e+02   1.7391070e+02
   4.8327240e+02   1.6885660e+02
   4.8375450e+02   1.7560710e+02
   4.8423660e+02   1.9188200e+02
   4.8471870e+02   2.0949040e+02
   4.8520080e+02   2.2731760e+02
   4.8568300e+02   2.4420120e+02
   4.8616510e+02   2.5979950e+02
   4.8664720e+02   2.7521560e+02
   4.8712930e+02   2.8685150e+02
   4.8761140e+02   2.8851510e+02
   4.8809350e+02   2.8830770e+02
   4.8857570e+02   2.9701650e+02
   4.8905780e+02   3.2181120e+02
   4.8953990e+02   3.4466030e+02
   4.9002200e+02   3.6106130e+02
   4.9050410e+02   3.7138950e+02
   4.9098620e+02   3.8367210e+02
   4.9146840e+02   3.9683480e+02
   4.9195050e+02   4.1425780e+02
   4.9243260e+02   4.3941060e+02
   4.9291470e+02   4.7290260e+02
   4.9339680e+02   5.0747030e+02
   4.9387890e+02   5.4343610e+02
   4.9436110e+02   5.7872980e+02
   4.9484320e+02   6.0561980e+02
   4.9532530e+02   6.2526340e+02
   4.9580740e+02   6.5047040e+02
   4.9628950e+02   6.9373770e+02
   4.9677160e+02   7.4580310e+02
   4.9725380e+02   7.8940960e+02
   4.9773590e+02   8.2297580e+02
   4.9821800e+02   8.5479270e+02
   4.9870010e+02   8.9147220e+02
   4.9918220e+02   9.3060710e+02
   4.9966430e+02   9.6841660e+02
   5.0014650e+02   1.0012160e+03
   5.0062860e+02   1.0351860e+03
   5.0111070e+02   1.0733390e+03
   5.0159280e+02   1.1156320e+03
   5.0207490e+02   1.1621520e+03
   5.0255700e+02   1.2186210e+03
   5.0303920e+02   1.2756430e+03
   5.0352130e+02   1.3286410e+03
   5.0400340e+02   1.3772160e+03
   5.0448550e+02   1.4224750e+03
   5.0496760e+02   1.4599790e+03
   5.0544970e+02   1.4962450e+03
   5.0593180e+02   1.5400870e+03
   5.0641390e+02   1.5953740e+03
   5.0689610e+02   1.6495810e+03
   5.0737820e+02   1.7028450e+03
   5.0786030e+02   1.7547970e+03
   5.0834240e+02   1.8017030e+03
   5.0882450e+02   1.8409850e+03
   5.0930660e+02   1.8787850e+03
   5.0978880e+02   1.9221780e+03
   5.1027090e+02   1.9713260e+03
   5.1075300e+02   2.0150960e+03
   5.1123510e+02   2.0529730e+03
   5.1171720e+02   2.0833480e+03
   5.1219930e+02   2.1000210e+03
   5.1268150e+02   2.1045490e+03
   5.1316360e+02   2.1080730e+03
   5.1364570e+02   2.1233650e+03
   5.1412780e+02   2.1372410e+03
   5.1460990e+02   2.1261740e+03
   5.1509200e+02   2.0901650e+03
   5.1557420e+02   2.0540530e+03
   5.1605630e+02   2.0382980e+03
   5.1653840e+02   2.0301470e+03
   5.1702050e+02   2.0153440e+03
   5.1750260e+02   1.9881110e+03
   5.1798470e+02   1.9552550e+03
   5.1846690e+02   1.9195400e+03
   5.1894900e+02   1.8813160e+03
   5.1943110e+02   1.8403840e+03
   5.1991320e+02   1.7922980e+03
   5.2039530e+02   1.7444430e+03
   5.2087740e+02   1.6990490e+03
   5.2135960e+02   1.6558700e+03
   5.2184170e+02   1.6145150e+03
   5.2232380e+02   1.5784720e+03
   5.2280590e+02   1.5428210e+03
   5.2328800e+02   1.5016810e+03
   5.2377010e+02   1.4530070e+03
   5.2425230e+02   1.4017120e+03
   5.2473440e+02   1.3480360e+03
   5.2521650e+02   1.2930780e+03
   5.2569860e+02   1.2408590e+03
   5.2618070e+02   1.1906300e+03
   5.2666280e+02   1.1454170e+03
   5.2714500e+02   1.1112140e+03
   5.2762710e+02   1.0841460e+03
   5.2810920e+02   1.0479180e+03
   5.2859130e+02   9.9954860e+02
   5.2907340e+02   9.5059110e+02
   5.2955550e+02   9.1295610e+02
   5.3003770e+02   8.8360050e+02
   5.3051980e+02   8.5661130e+02
   5.3100190e+02   8.3171670e+02
   5.3148400e+02   8.0555750e+02
   5.3196610e+02   7.7295880e+02
   5.3244820e+02   7.3531370e+02
   5.3293040e+02   7.0187870e+02
   5.3341250e+02   6.7908120e+02
   5.3389460e+02   6.5991670e+02
   5.3437670e+02   6.3990550e+02
   5.3485880e+02   6.1823120e+02
   5.3534090e+02   5.9616230e+02
   5.3582310e+02   5.7439970e+02
   5.3630520e+02   5.5223050e+02
   5.3678730e+02   5.2883890e+02
   5.3726940e+02   5.0075080e+02
   5.3775150e+02   4.7660460e+02
   5.3823360e+02   4.6000920e+02
   5.3871580e+02   4.4990870e+02
   5.3919790e+02   4.3368530e+02
   5.3968000e+02   4.0913790e+02
   5.4016210e+02   3.8419990e+02
   5.4064420e+02   3.6531920e+02
   5.4112630e+02   3.5211900e+02
   5.4160850e+02   3.3648220e+02
   5.4209060e+02   3.1671020e+02
   5.4257270e+02   2.9697470e+02
   5.4305480e+02   2.8350130e+02
   5.4353690e+02   2.7532570e+02
   5.4401900e+02   2.6870630e+02
   5.4450120e+02   2.6413700e+02
   5.4498330e+02   2.5896370e+02
   5.4546540e+02   2.4880830e+02
   5.4594750e+02   2.3430410e+02
   5.4642960e+02   2.2071920e+02
   5.4691170e+02   2.1292830e+02
   5.4739390e+02   2.0658210e+02
   5.4787600e+02   1.9784640e+02
   5.4835810e+02   1.8452340e+02
   5.4884020e+02   1.7164080e+02
   5.4932230e+02   1.6133350e+02
   5.4980440e+02   1.5208320e+02
   5.5028660e+02   1.4123340e+02
   5.5076870e+02   1.2544930e+02
   5.5125080e+02   1.1154170e+02
   5.5173290e+02   1.0110220e+02
   5.5221500e+02   9.4079040e+01
   5.5269710e+02   8.8195860e+01
   5.5317930e+02   8.3996770e+01
   5.5366140e+02   7.9902220e+01
   5.5414350e+02   7.4422180e+01
   5.5462560e+02   6.7379580e+01
   5.5510770e+02   6.2080810e+01
   5.5558980e+02   5.9205570e+01
   5.5607200e+02   5.7279660e+01
   5.5655410e+02   5.4087830e+01
   5.5703620e+02   4.9783810e+01
   5.5751830e+02   4.5218440e+01
   5.5800040e+02   4.0701050e+01
   5.5848250e+02   3.6211000e+01
   5.5896470e+02   3.1196960e+01
   5.5944680e+02   2.5841250e+01
   5.5992890e+02   2.2063660e+01
   5.6041100e+02   2.3168400e+01
   5.6089310e+02   2.5319950e+01
   5.6137520e+02   2.5024900e+01
   5.6185740e+02   2.1208860e+01
   5.6233950e+02   1.5707280e+01
   5.6282160e+02   4.8994750e+00
   5.6330370e+02   6.3862920e+00
   5.6378580e+02   1.0362180e+01
   5.6426790e+02   7.0974120e+00
   5.6475010e+02   1.7194520e+01
   5.6523220e+02   1.0328920e+01
   5.6571430e+02   1.1723750e+01
   5.6619640e+02   2.2768620e+01
   5.6667850e+02   1.8605830e+01
   5.6716060e+02   1.1188960e+01
   5.6764280e+02   7.9293820e+00
   5.6812490e+02   9.1866460e+00
   5.6860700e+02   9.4780270e+00
   5.6908910e+02   7.8224490e+00
   5.6957120e+02   6.8666990e+00
   5.7005330e+02   1.2186400e+01
   5.7053550e+02   2.2267400e+01
   5.7101760e+02   2.9515140e+01
   5.7149970e+02   2.8438420e+01
   5.7198180e+02   2.4957760e+01
   5.7246390e+02   2.8672490e+01
   5.7294600e+02   3.8155940e+01
   5.7342810e+02   4.4773500e+01
   5.7391020e+02   4.2955630e+01
   5.7439230e+02   3.6388180e+01
   5.7487450e+02   2.6453490e+01
   5.7535660e+02   1.0688350e+01
   5.7583870e+02   6.9213900e-01
   5.7632080e+02   3.6616820e+00
   5.7680290e+02   1.3096130e+01
   5.7728500e+02   2.1120480e+01
   5.7776720e+02   3.0260440e+01
   5.7824930e+02   3.3579770e+01
   5.7873140e+02   2.6862730e+01
   5.7921350e+02   1.3162480e+01
   5.7969560e+02   7.8800050e+00
   5.8017770e+02   1.4974240e+01
   5.8065990e+02   2.0726560e+01
   5.8114200e+02   1.6758970e+01
   5.8162410e+02   3.2405400e+00
   5.8210620e+02   7.0385130e+00
   5.8258830e+02   1.3520260e+01
   5.8307040e+02   1.9072140e+01
   5.8355260e+02   2.8019230e+01
   5.8403470e+02   3.8710080e+01
   5.8451680e+02   4.5646610e+01
   5.8499890e+02   4.5312070e+01
   5.8548100e+02   4.3542540e+01
   5.8596310e+02   4.6491150e+01
   5.8644530e+02   5.2857360e+01
   5.8692740e+02   5.8858460e+01
   5.8740950e+02   6.0566470e+01
   5.8789160e+02   6.3069580e+01
   5.8837370e+02   7.0351380e+01
   5.8885580e+02   8.3543460e+01
   5.8933800e+02   9.4194890e+01
   5.8982010e+02   9.7034120e+01
   5.9030220e+02   9.9158690e+01
   5.9078430e+02   1.0581330e+02
   5.9126640e+02   1.1898650e+02
   5.9174850e+02   1.3325380e+02
   5.9223070e+02   1.4967680e+02
   5.9271280e+02   1.6621220e+02
   5.9319490e+02   1.7718540e+02
   5.9367700e+02   1.8145660e+02
   5.9415910e+02   1.8780880e+02
   5.9464120e+02   1.9927920e+02
   5.9512340e+02   2.1538280e+02
   5.9560550e+02   2.3649970e+02
   5.9608760e+02   2.6272900e+02
   5.9656970e+02   2.8639270e+02
   5.9705180e+02   2.9764710e+02
   5.9753390e+02   3.0382810e+02
   5.9801610e+02   3.1776970e+02
   5.9849820e+02   3.4345920e+02
   5.9898030e+02   3.6963160e+02
   5.9946240e+02   3.8774080e+02
   5.9994450e+02   4.0170020e+02
   6.0042660e+02   4.1754960e+02
   6.0090880e+02   4.3487320e+02
   6.0139090e+02   4.5653500e+02
   6.0187300e+02   4.8574730e+02
   6.0235510e+02   5.2125370e+02
   6.0283720e+02   5.5258370e+02
   6.0331930e+02   5.7439030e+02
   6.0380150e+02   5.9804720e+02
   6.0428360e+02   6.2925200e+02
   6.0476570e+02   6.6877550e+02
   6.0524780e+02   7.0648880e+02
   6.0572990e+02   7.4206410e+02
   6.0621200e+02   7.7681850e+02
   6.0669420e+02   8.0924030e+02
   6.0717630e+02   8.4038390e+02
   6.0765840e+02   8.8438100e+02
   6.0814050e+02   9.4814500e+02
   6.0862260e+02   1.0192940e+03
   6.0910470e+02   1.0842160e+03
   6.0958690e+02   1.1434550e+03
   6.1006900e+02   1.2010110e+03
   6.1055110e+02   1.2547100e+03
   6.1103320e+02   1.3100030e+03
   6.1151530e+02   1.3699430e+03
   6.1199740e+02   1.4354330e+03
   6.1247960e+02   1.5046820e+03
   6.1296170e+02   1.5759380e+03
   6.1344380e+02   1.6522470e+03
   6.1392590e+02   1.7346260e+03
   6.1440800e+02   1.8250870e+03
   6.1489010e+02   1.9202070e+03
   6.1537230e+02   2.0172250e+03
   6.1585440e+02   2.1213410e+03
   6.1633650e+02   2.2393630e+03
   6.1681860e+02   2.3757780e+03
   6.1730070e+02   2.5085990e+03
   6.1778280e+02   2.6298170e+03
   6.1826500e+02   2.7439950e+03
   6.1874710e+02   2.8627710e+03
   6.1922920e+02   2.9871830e+03
   6.1971130e+02   3.1206820e+03
   6.2019340e+02   3.2631110e+03
   6.2067550e+02   3.4151000e+03
   6.2115770e+02   3.5838630e+03
   6.2163980e+02   3.7706330e+03
   6.2212190e+02   3.9543090e+03
   6.2260400e+02   4.1103290e+03
   6.2308610e+02   4.2576000e+03
   6.2356820e+02   4.4158220e+03
   6.2405040e+02   4.5971680e+03
   6.2453250e+02   4.7818660e+03
   6.2501460e+02   4.9624110e+03
   6.2549670e+02   5.1428540e+03
   6.2597880e+02   5.3333890e+03
   6.2646090e+02   5.5442100e+03
   6.2694310e+02   5.7501630e+03
   6.2742520e+02   5.9424760e+03
   6.2790730e+02   6.1234830e+03
   6.2838940e+02   6.3159870e+03
   6.2887150e+02   6.5256010e+03
   6.2935360e+02   6.7291080e+03
   6.2983580e+02   6.9048770e+03
   6.3031790e+02   7.0582150e+03
   6.3080000e+02   7.2221970e+03
   6.3128210e+02   7.4018370e+03
   6.3176420e+02   7.5805470e+03
   6.3224630e+02   7.7556250e+03
   6.3272850e+02   7.9182710e+03
   6.3321060e+02   8.0495010e+03
   6.3369270e+02   8.1360260e+03
   6.3417480e+02   8.1997030e+03
   6.3465690e+02   8.2451220e+03
   6.3513900e+02   8.2768900e+03
   6.3562120e+02   8.3063900e+03
   6.3610330e+02   8.3419390e+03
   6.3658540e+02   8.3714890e+03
   6.3706750e+02   8.3961140e+03
   6.3754960e+02   8.4163200e+03
   6.3803170e+02   8.4060560e+03
   6.3851390e+02   8.3622750e+03
   6.3899600e+02   8.2940640e+03
   6.3947810e+02   8.2026920e+03
   6.3996020e+02   8.0882490e+03
   6.4044230e+02   7.9732380e+03
   6.4092440e+02   7.8618970e+03
   6.4140660e+02   7.7399080e+03
   6.4188870e+02   7.5776010e+03
   6.4237080e+02   7.3852610e+03
   6.4285290e+02   7.2019010e+03
   6.4333500e+02   7.0471530e+03
   6.4381710e+02   6.8972170e+03
   6.4429930e+02   6.7367190e+03
   6.4478140e+02   6.5639040e+03
   6.4526350e+02   6.3788620e+03
   6.4574560e+02   6.1627510e+03
   6.4622770e+02   5.9487850e+03
   6.4670980e+02   5.7517240e+03
   6.4719200e+02   5.5750040e+03
   6.4767410e+02   5.3984660e+03
   6.4815620e+02   5.2220350e+03
   6.4863830e+02   5.0436340e+03
   6.4912040e+02   4.8623160e+03
   6.4960250e+02   4.6718100e+03
   6.5008470e+02   4.4965240e+03
   6.5056680e+02   4.3409500e+03
   6.5104890e+02   4.1931850e+03
   6.5153100e+02   4.0412460e+03
   6.5201310e+02   3.8843970e+03
   6.5249520e+02   3.7322860e+03
   6.5297740e+02   3.5879630e+03
   6.5345950e+02   3.4493490e+03
   6.5394160e+02   3.3148780e+03
   6.5442370e+02   3.1854860e+03
   6.5490580e+02   3.0642570e+03
   6.5538790e+02   2.9582360e+03
   6.5587010e+02   2.8565530e+03
   6.5635220e+02   2.7500730e+03
   6.5683430e+02   2.6370540e+03
   6.5731640e+02   2.5351550e+03
   6.5779850e+02   2.4596390e+03
   6.5828060e+02   2.3877210e+03
   6.5876280e+02   2.3057970e+03
   6.5924490e+02   2.2079900e+03
   6.5972700e+02   2.1137490e+03
   6.6020910e+02   2.0207690e+03
   6.6069120e+02   1.9345110e+03
   6.6117330e+02   1.8649000e+03
   6.6165550e+02   1.8120210e+03
   6.6213750e+02   1.7584990e+03
   6.6261960e+02   1.6996450e+03
   6.6310170e+02   1.6392380e+03
   6.6358390e+02   1.5851970e+03
   6.6406600e+02   1.5354820e+03
   6.6454810e+02   1.4831040e+03
   6.6503020e+02   1.4200110e+03
   6.6551230e+02   1.3567920e+03
   6.6599440e+02   1.3005280e+03
   6.6647660e+02   1.2510650e+03
   6.6695870e+02   1.2076310e+03
   6.6744080e+02   1.1777670e+03
   6.6792290e+02   1.1464810e+03
   6.6840500e+02   1.1047560e+03
   6.6888710e+02   1.0480110e+03
   6.6936930e+02   9.9562620e+02
   6.6985140e+02   9.4432300e+02
   6.7033350e+02   8.9994080e+02
   6.7081560e+02   8.7350760e+02
   6.7129770e+02   8.6702610e+02
   6.7177980e+02   8.5318530e+02
   6.7226200e+02   8.2657850e+02
   6.7274410e+02   7.9280000e+02
   6.7322620e+02   7.5864030e+02
   6.7370830e+02   7.2456460e+02
   6.7419040e+02   6.9364190e+02
   6.7467250e+02   6.6853470e+02
   6.7515470e+02   6.4663510e+02
   6.7563680e+02   6.2721280e+02
   6.7611890e+02   6.0981840e+02
   6.7660100e+02   5.9048680e+02
   6.7708310e+02   5.6251980e+02
   6.7756520e+02   5.3588110e+02
   6.7804740e+02   5.1709410e+02
   6.7852950e+02   5.0902090e+02
   6.7901160e+02   4.9826570e+02
   6.7949370e+02   4.8374980e+02
   6.7997580e+02   4.6789010e+02
   6.8045790e+02   4.5279470e+02
   6.8094010e+02   4.3845980e+02
   6.8142220e+02   4.2283010e+02
   6.8190430e+02   4.0612070e+02
   6.8238640e+02   3.8914520e+02
   6.8286850e+02   3.7264650e+02
   6.8335060e+02   3.5624940e+02
   6.8383280e+02   3.3968370e+02
   6.8431490e+02   3.2044250e+02
   6.8479700e+02   3.0350780e+02
   6.8527910e+02   2.9642810e+02
   6.8576120e+02   2.9605350e+02
   6.8624330e+02   2.9175090e+02
   6.8672550e+02   2.7273850e+02
   6.8720760e+02   2.5450640e+02
   6.8768970e+02   2.4463160e+02
   6.8817180e+02   2.4430690e+02
   6.8865390e+02   2.4167910e+02
   6.8913600e+02   2.3624600e+02
   6.8961820e+02   2.3009700e+02
   6.9010030e+02   2.2336160e+02
   6.9058240e+02   2.1544590e+02
   6.9106450e+02   2.1012100e+02
   6.9154660e+02   2.0822050e+02
   6.9202870e+02   2.0532260e+02
   6.9251090e+02   1.9546770e+02
   6.9299300e+02   1.8065830e+02
   6.9347510e+02   1.6609460e+02
   6.9395720e+02   1.5185040e+02
   6.9443930e+02   1.4129170e+02
   6.9492140e+02   1.4013340e+02
   6.9540360e+02   1.4399240e+02
   6.9588570e+02   1.4536850e+02
   6.9636780e+02   1.3999880e+02
   6.9684990e+02   1.3357480e+02
   6.9733200e+02   1.2720090e+02
   6.9781410e+02   1.2123890e+02
   6.9829630e+02   1.1650210e+02
   6.9877840e+02   1.1303080e+02
   6.9926050e+02   1.1058050e+02
   6.9974260e+02   1.1007460e+02
   7.0022470e+02   1.1113710e+02
   7.0070680e+02   1.0655160e+02
   7.0118900e+02   9.5513310e+01
   7.0167110e+02   8.4960510e+01
   7.0215320e+02   8.0883480e+01
   7.0263530e+02   8.1093260e+01
   7.0311740e+02   8.1290530e+01
   7.0359950e+02   8.1167910e+01
   7.0408170e+02   7.9637210e+01
   7.0456380e+02   7.5669800e+01
   7.0504590e+02   6.9993650e+01
   7.0552800e+02   6.3040530e+01
   7.0601010e+02   5.1168090e+01
   7.0649220e+02   4.3334530e+01
   7.0697440e+02   4.4054020e+01
   7.0745650e+02   4.8896850e+01
   7.0793860e+02   5.1315460e+01
   7.0842070e+02   5.1227050e+01
   7.0890280e+02   4.8689450e+01
   7.0938490e+02   4.3239110e+01
   7.0986710e+02   3.5679780e+01
   7.1034920e+02   2.6759160e+01
   7.1083130e+02   1.6609250e+01
   7.1131340e+02   1.1354310e+01
   7.1179550e+02   1.8721590e+01
   7.1227760e+02   3.0881680e+01
   7.1275980e+02   3.6030640e+01
   7.1324190e+02   3.4403080e+01
   7.1372400e+02   3.0254670e+01
   7.1420610e+02   2.2792510e+01
   7.1468820e+02   1.5948460e+01
   7.1517030e+02   1.2863430e+01
   7.1565250e+02   1.5384000e+01
   7.1613460e+02   1.6326750e+01
   7.1661670e+02   1.3367160e+01
   7.1709880e+02   1.0154600e+01
   7.1758090e+02   9.7025450e+00
   7.1806300e+02   1.2862640e+01
   7.1854520e+02   1.5400210e+01
   7.1902730e+02   1.7598390e+01
   7.1950940e+02   1.7748870e+01
   7.1999150e+02   1.1200440e+01
   7.2047360e+02   2.2348000e-01
   7.2095570e+02   8.1949770e+00
   7.2143790e+02   8.2688290e+00
   7.2192000e+02   6.7133180e+00
   7.2240210e+02   1.0346620e+01
   7.2288420e+02   1.7150420e+01
   7.2336630e+02   2.2117950e+01
   7.2384840e+02   2.3895810e+01
   7.2433060e+02   2.2896940e+01
   7.2481270e+02   1.6601960e+01
   7.2529480e+02   6.0219120e+00
   7.2577690e+02   2.8089600e+00
   7.2625900e+02   1.1311000e+01
   7.2674110e+02   1.9550600e+01
   7.2722330e+02   2.1654480e+01
   7.2770540e+02   1.7948180e+01
   7.2818750e+02   1.5869690e+01
   7.2866960e+02   1.5550290e+01
   7.2915170e+02   1.5626740e+01
   7.2963390e+02   1.5351960e+01
   7.3011600e+02   1.4592010e+01
   7.3059810e+02   1.2594700e+01
   7.3108020e+02   8.9280400e+00
   7.3156230e+02   6.2657780e+00
   7.3204440e+02   6.7477110e+00
   7.3252660e+02   8.9163820e+00
   7.3300870e+02   1.1308900e+01
   7.3349080e+02   1.5217650e+01
   7.3397290e+02   1.7006810e+01
   7.3445500e+02   1.5246000e+01
   7.3493710e+02   1.2032200e+01
   7.3541930e+02   1.0604370e+01
   7.3590140e+02   1.1431490e+01
   7.3638350e+02   1.2112950e+01
   7.3686560e+02   1.2469790e+01
   7.3734770e+02   1.1988160e+01
   7.3782980e+02   8.1105040e+00
   7.3831200e+02   1.7596740e+00
   7.3879410e+02   2.0437930e+00
   7.3927620e+02   1.7569270e+00
   7.3975830e+02   7.3995670e+00
   7.4024040e+02   9.8342590e+00
   7.4072250e+02   9.4129640e+00
   7.4120470e+02   8.2361450e+00
   7.4168680e+02   5.4778750e+00
   7.4216890e+02   3.5783080e+00
   7.4265100e+02   4.7565610e+00
   7.4313310e+02   9.5122680e+00
   7.4361520e+02   9.8087460e+00
   7.4409740e+02   3.9298400e+00
   7.4457950e+02   2.9316410e+00
   7.4506160e+02   8.3745420e+00
   7.4554370e+02   1.2210240e+01
   7.4602580e+02   1.0422360e+01
   7.4650790e+02   2.1498720e+00
   7.4699010e+02   6.0822140e+00
   7.4747220e+02   7.9781190e+00
   7.4795430e+02   5.3907170e+00
   7.4843640e+02   7.4383500e-01
   7.4891850e+02   6.4266660e+00
   7.4940060e+02   1.2959660e+01
   7.4988280e+02   1.8438810e+01
   7.5036490e+02   2.2066770e+01
   7.5084700e+02   2.2598420e+01
   7.5132910e+02   1.5042050e+01
   7.5181120e+02   1.1977230e+01
   7.5229330e+02   1.5746920e+01
   7.5277540e+02   2.3567840e+01
   7.5325750e+02   3.1074950e+01
   7.5373960e+02   3.8493380e+01
   7.5422170e+02   4.1038020e+01
   7.5470390e+02   3.4873140e+01
   7.5518600e+02   2.5425140e+01
   7.5566810e+02   2.3064240e+01
   7.5615020e+02   2.6292720e+01
   7.5663230e+02   2.9454440e+01
   7.5711440e+02   2.7742830e+01
   7.5759660e+02   2.6487520e+01
   7.5807870e+02   3.0549040e+01
   7.5856080e+02   3.9373540e+01
   7.5904290e+02   4.4947570e+01
   7.5952500e+02   4.3229520e+01
   7.6000710e+02   4.0881770e+01
   7.6048930e+02   4.0503600e+01
   7.6097140e+02   4.2210170e+01
   7.6145350e+02   4.1906680e+01
   7.6193560e+02   3.8748780e+01
   7.6241770e+02   3.7483060e+01
   7.6289980e+02   4.4245060e+01
   7.6338200e+02   5.5721340e+01
   7.6386410e+02   6.2437130e+01
   7.6434620e+02   6.3351440e+01
   7.6482830e+02   6.2613560e+01
   7.6531040e+02   6.1188110e+01
   7.6579250e+02   6.0863710e+01
   7.6627470e+02   6.4052490e+01
   7.6675680e+02   7.4542760e+01
   7.6723890e+02   8.1481570e+01
   7.6772100e+02   7.8125850e+01
   7.6820310e+02   7.3215000e+01
   7.6868520e+02   7.7096770e+01
   7.6916740e+02   9.4428470e+01
   7.6964950e+02   1.0241520e+02
   7.7013160e+02   9.5892120e+01
   7.7061370e+02   8.3442960e+01
   7.7109580e+02   7.7307020e+01
   7.7157790e+02   7.7155040e+01
   7.7206010e+02   8.2126980e+01
   7.7254220e+02   9.5798780e+01
   7.7302430e+02   1.0915600e+02
   7.7350640e+02   1.1273340e+02
   7.7398850e+02   1.0983020e+02
   7.7447060e+02   1.0810660e+02
   7.7495280e+02   1.1037190e+02
   7.7543490e+02   1.1379310e+02
   7.7591700e+02   1.1803180e+02
   7.7639910e+02   1.2281070e+02
   7.7688120e+02   1.2723660e+02
   7.7736330e+02   1.3159980e+02
   7.7784550e+02   1.3465520e+02
   7.7832760e+02   1.3531770e+02
   7.7880970e+02   1.3418920e+02
   7.7929180e+02   1.3401710e+02
   7.7977390e+02   1.3485890e+02
   7.8025600e+02   1.3649680e+02
   7.8073820e+02   1.4002780e+02
   7.8122030e+02   1.4329630e+02
   7.8170240e+02   1.4316820e+02
   7.8218450e+02   1.3967000e+02
   7.8266660e+02   1.3936600e+02
   7.8314870e+02   1.4956790e+02
   7.8363090e+02   1.5906100e+02
   7.8411300e+02   1.6074140e+02
   7.8459510e+02   1.5260350e+02
   7.8507720e+02   1.4676090e+02
   7.8555930e+02   1.4385760e+02
   7.8604140e+02   1.4268650e+02
   7.8652360e+02   1.4166280e+02
   7.8700570e+02   1.4125880e+02
   7.8748780e+02   1.4487800e+02
   7.8796990e+02   1.5343410e+02
   7.8845200e+02   1.6148740e+02
   7.8893410e+02   1.6389500e+02
   7.8941630e+02   1.6312990e+02
   7.8989840e+02   1.6213470e+02
   7.9038050e+02   1.6201120e+02
   7.9086260e+02   1.6059020e+02
   7.9134470e+02   1.5540810e+02
   7.9182680e+02   1.4970100e+02
   7.9230900e+02   1.4711480e+02
   7.9279110e+02   1.4853610e+02
   7.9327320e+02   1.5060900e+02
   7.9375530e+02   1.5276390e+02
   7.9423740e+02   1.5530270e+02
   7.9471950e+02   1.6017050e+02
   7.9520170e+02   1.6632660e+02
   7.9568380e+02   1.6855560e+02
   7.9616590e+02   1.6337920e+02
   7.9664800e+02   1.5658020e+02
   7.9713010e+02   1.5149780e+02
   7.9761220e+02   1.4833010e+02
   7.9809440e+02   1.4810080e+02
   7.9857650e+02   1.5824930e+02
   7.9905860e+02   1.6330350e+02
   7.9954070e+02   1.5631900e+02
   8.0002280e+02   1.4217450e+02
   8.0050490e+02   1.3550750e+02
   8.0098710e+02   1.3780630e+02
   8.0146920e+02   1.4096030e+02
   8.0195130e+02   1.4294340e+02
   8.0243340e+02   1.4389430e+02
   8.0291550e+02   1.4293240e+02
   8.0339760e+02   1.4040460e+02
   8.0387980e+02   1.3878270e+02
   8.0436190e+02   1.4235480e+02
   8.0484400e+02   1.4442140e+02
   8.0532610e+02   1.3888780e+02
   8.0580820e+02   1.2682020e+02
   8.0629030e+02   1.1745970e+02
   8.0677250e+02   1.1324740e+02
   8.0725460e+02   1.1187480e+02
   8.0773670e+02   1.1336590e+02
   8.0821880e+02   1.1756400e+02
   8.0870090e+02   1.1992380e+02
   8.0918300e+02   1.2028800e+02
   8.0966520e+02   1.1884720e+02
   8.1014730e+02   1.1399850e+02
   8.1062940e+02   1.0808170e+02
   8.1111150e+02   1.0752140e+02
   8.1159360e+02   1.1232950e+02
   8.1207570e+02   1.1566640e+02
   8.1255790e+02   1.1123800e+02
   8.1304000e+02   1.0493950e+02
   8.1352210e+02   1.0142490e+02
   8.1400420e+02   1.0226190e+02
   8.1448630e+02   1.0182700e+02
   8.1496840e+02   9.8460720e+01
   8.1545060e+02   9.5384950e+01
   8.1593270e+02   9.5802490e+01
   8.1641480e+02   1.0005420e+02
   8.1689690e+02   9.9804570e+01
   8.1737900e+02   9.4053340e+01
   8.1786110e+02   8.8240520e+01
   8.1834330e+02   8.8753830e+01
   8.1882540e+02   9.2642970e+01
   8.1930750e+02   9.5360350e+01
   8.1978960e+02   9.6168180e+01
   8.2027170e+02   9.5256770e+01
   8.2075380e+02   9.1242520e+01
   8.2123600e+02   8.6465090e+01
   8.2171810e+02   8.3224460e+01
   8.2220020e+02   8.2597140e+01
   8.2268230e+02   8.1390030e+01
   8.2316440e+02   7.9235230e+01
   8.2364650e+02   7.6997040e+01
   8.2412870e+02   7.5505310e+01
   8.2461080e+02   7.4776570e+01
   8.2509290e+02   7.5526090e+01
   8.2557500e+02   7.8383510e+01
   8.2605710e+02   8.0915340e+01
   8.2653920e+02   8.0498840e+01
   8.2702140e+02   7.8193740e+01
   8.2750350e+02   7.5524260e+01
   8.2798560e+02   7.0672000e+01
   8.2846770e+02   6.8673310e+01
   8.2894980e+02   7.3988590e+01
   8.2943190e+02   8.1260280e+01
   8.2991410e+02   8.3348570e+01
   8.3039620e+02   7.8892530e+01
   8.3087830e+02   7.3968440e+01
   8.3136040e+02   6.9057460e+01
   8.3184250e+02   6.5130720e+01
   8.3232460e+02   6.4888310e+01
   8.3280680e+02   6.7121610e+01
   8.3328890e+02   6.7686160e+01
   8.3377100e+02   6.3906370e+01
   8.3425310e+02   5.9845980e+01
   8.3473520e+02   5.7818470e+01
   8.3521730e+02   5.7574140e+01
   8.3569950e+02   5.8520100e+01
   8.3618160e+02   6.3472660e+01
   8.3666370e+02   6.5706330e+01
   8.3714580e+02   6.3269260e+01
   8.3762790e+02   5.8421450e+01
   8.3811000e+02   5.5699980e+01
   8.3859220e+02   5.5317200e+01
   8.3907430e+02   5.6522480e+01
   8.3955640e+02   5.9938950e+01
   8.4003850e+02   6.3593950e+01
   8.4052060e+02   6.4502470e+01
   8.4100270e+02   6.3498170e+01
   8.4148480e+02   6.2012070e+01
   8.4196690e+02   6.0303240e+01
   8.4244900e+02   5.8954270e+01
   8.4293120e+02   5.8160550e+01
   8.4341330e+02   5.7894070e+01
   8.4389540e+02   5.8044680e+01
   8.4437750e+02   5.8894940e+01
   8.4485960e+02   5.9418560e+01
   8.4534170e+02   5.9100850e+01
   8.4582390e+02   5.8417940e+01
   8.4630600e+02   5.9611850e+01
   8.4678810e+02   6.2118100e+01
   8.4727020e+02   6.2412200e+01
   8.4775230e+02   5.5622830e+01
   8.4823440e+02   4.8423200e+01
   8.4871660e+02   4.7033020e+01
   8.4919870e+02   5.0089580e+01
   8.4968080e+02   5.2465650e+01
   8.5016290e+02   5.2156650e+01
   8.5064500e+02   5.1724180e+01
   8.5112710e+02   5.2206620e+01
   8.5160930e+02   5.3377720e+01
   8.5209140e+02   5.3005460e+01
   8.5257350e+02   5.1152310e+01
   8.5305560e+02   4.8080230e+01
   8.5353770e+02   4.2514300e+01
   8.5401980e+02   3.6539490e+01
   8.5450200e+02   3.4437900e+01
   8.5498410e+02   3.5527100e+01
   8.5546620e+02   3.6744200e+01
   8.5594830e+02   3.7339830e+01
   8.5643040e+02   3.6938630e+01
   8.5691250e+02   3.3635640e+01
   8.5739470e+02   2.8324080e+01
   8.5787680e+02   2.9019820e+01
   8.5835890e+02   3.8929860e+01
   8.5884100e+02   4.7127110e+01
   8.5932310e+02   4.9251650e+01
   8.5980520e+02   4.6797520e+01
   8.6028740e+02   4.5506120e+01
   8.6076950e+02   4.5254900e+01
   8.6125160e+02   4.4683410e+01
   8.6173370e+02   4.1696490e+01
   8.6221580e+02   3.9160680e+01
   8.6269790e+02   4.0877470e+01
   8.6318010e+02   4.5902790e+01
   8.6366220e+02   4.7730260e+01
   8.6414430e+02   4.1536940e+01
   8.6462640e+02   3.5488340e+01
   8.6510850e+02   3.1775090e+01
   8.6559060e+02   3.0181560e+01
   8.6607280e+02   2.8386840e+01
   8.6655490e+02   2.6118800e+01
   8.6703700e+02   2.6263780e+01
   8.6751910e+02   3.4025360e+01
   8.6800120e+02   4.3314250e+01
   8.6848330e+02   4.3280720e+01
   8.6896550e+02   3.5690000e+01
   8.6944760e+02   2.9384060e+01
   8.6992970e+02   2.9128020e+01
   8.7041180e+02   2.9980240e+01
   8.7089390e+02   3.0004970e+01
   8.7137600e+02   2.9270750e+01
   8.7185820e+02   2.8588960e+01
   8.7234030e+02   2.8085630e+01
   8.7282240e+02   2.7183880e+01
   8.7330450e+02   2.5023070e+01
   8.7378660e+02   2.2551480e+01
   8.7426870e+02   2.3411790e+01
   8.7475090e+02   2.6952560e+01
   8.7523300e+02   2.9303530e+01
   8.7571510e+02   2.7575060e+01
   8.7619720e+02   2.4443130e+01
   8.7667930e+02   2.1470030e+01
   8.7716140e+02   1.8583370e+01
   8.7764360e+02   1.5616590e+01
   8.7812570e+02   1.1687180e+01
   8.7860780e+02   9.0719910e+00
   8.7908990e+02   8.4495090e+00
   8.7957200e+02   9.7113950e+00
   8.8005410e+02   1.3405350e+01
   8.8053630e+02   1.9359620e+01
   8.8101840e+02   2.3806090e+01
   8.8150050e+02   2.3832290e+01
   8.8198260e+02   2.1967850e+01
   8.8246470e+02   2.0597490e+01
   8.8294680e+02   1.9612840e+01
   8.8342900e+02   1.8437060e+01
   8.8391110e+02   1.7243180e+01
   8.8439320e+02   1.5212630e+01
   8.8487530e+02   1.0741150e+01
   8.8535740e+02   5.2357330e+00
   8.8583950e+02   6.6571500e+00
   8.8632170e+02   1.5963610e+01
   8.8680380e+02   2.2900590e+01
   8.8728590e+02   2.2216980e+01
   8.8776800e+02   1.7166490e+01
   8.8825010e+02   1.1488860e+01
   8.8873220e+02   5.8538360e+00
   8.8921440e+02   2.2790990e+00
   8.8969650e+02   3.1985320e+00
   8.9017860e+02   4.8449100e+00
   8.9066070e+02   6.3354340e+00
   8.9114280e+02   7.3511960e+00
   8.9162490e+02   6.6961360e+00
   8.9210710e+02   2.8790740e+00
   8.9258920e+02   8.8316300e-01
   8.9307130e+02   3.9567410e+00
   8.9355340e+02   8.8224640e+00
   8.9403550e+02   6.3274380e+00
   8.9451760e+02   1.2648320e+00
   8.9499980e+02   5.6329190e+00
   8.9548190e+02   1.1284180e+00
   8.9596400e+02   8.3697200e+00
   8.9644610e+02   1.0860350e+01
   8.9692820e+02   9.3328860e+00
   8.9741030e+02   5.5995640e+00
   8.9789250e+02   3.3300020e+00
   8.9837460e+02   7.9835660e+00
   8.9885670e+02   5.3259580e+00
   8.9933880e+02   1.2816310e+00
   8.9982090e+02   4.7197110e+00
   9.0030300e+02   5.2929380e+00
   9.0078520e+02   4.6533660e+00
   9.0126730e+02   2.6728520e+00
   9.0174940e+02   7.6278700e-01
   9.0223150e+02   8.8088997e-02
   9.0271360e+02   3.1403001e-02
   9.0319570e+02   9.9733000e-01
   9.0367790e+02   4.4631810e+00
   9.0416000e+02   6.3955080e+00
   9.0464210e+02   5.7026060e+00
   9.0512420e+02   3.9084010e+00
   9.0560630e+02   3.8089450e+00
   9.0608840e+02   5.3359830e+00
   9.0657060e+02   7.1946110e+00
   9.0705270e+02   9.9160610e+00
   9.0753480e+02   1.1023730e+01
   9.0801690e+02   5.3288270e+00
   9.0849900e+02   3.2631230e+00
   9.0898110e+02   8.4024510e+00
   9.0946330e+02   5.0233760e+00
   9.0994540e+02   2.6120450e+00
   9.1042750e+02   3.6328280e+00
   9.1090960e+02   5.4459690e+00
   9.1139170e+02   4.7643740e+00
   9.1187380e+02   1.3582920e+00
   9.1235600e+02   1.6990360e+00
   9.1283810e+02   3.5307010e+00
   9.1332020e+02   5.2911380e+00
   9.1380230e+02   9.4060360e+00
   9.1428440e+02   1.3831450e+01
   9.1476650e+02   1.5375260e+01
   9.1524870e+02   1.2860820e+01
   9.1573080e+02   8.6920170e+00
   9.1621290e+02   6.1720300e-01
   9.1669500e+02   6.6987760e+00
   9.1717710e+02   8.9887540e+00
   9.1765920e+02   5.0138850e+00
   9.1814140e+02   1.8278500e+00
   9.1862350e+02   2.8686500e-01
   9.1910560e+02   1.9541930e+00
   9.1958770e+02   3.9771120e+00
   9.2006980e+02   5.8619840e+00
   9.2055190e+02   6.6164250e+00
   9.2103410e+02   6.0269010e+00
   9.2151620e+02   5.2548520e+00
   9.2199830e+02   5.0099330e+00
   9.2248040e+02   4.6235810e+00
   9.2296250e+02   3.0391540e+00
   9.2344460e+02   5.5625900e-01
   9.2392680e+02   1.2888640e+00
   9.2440890e+02   1.0289380e+01
   9.2489100e+02   1.7552430e+01
   9.2537310e+02   1.4062620e+01
   9.2585520e+02   4.5776670e+00
   9.2633730e+02   9.0412900e-01
   9.2681950e+02   2.0241240e+00
   9.2730160e+02   1.2996220e+00
   9.2778370e+02   1.8010860e+00
   9.2826580e+02   4.7369380e+00
   9.2874790e+02   5.8567350e+00
   9.2923000e+02   5.3851470e+00
   9.2971220e+02   4.5669560e+00
   9.3019430e+02   2.8553770e+00
   9.3067640e+02   1.9398500e+00
   9.3115840e+02   3.2408750e+00
   9.3164060e+02   5.6203000e+00
   9.3212270e+02   6.0487820e+00
   9.3260480e+02   4.8043670e+00
   9.3308690e+02   3.2643890e+00
   9.3356900e+02   1.2372440e+00
   9.3405110e+02   1.0040000e-02
   9.3453330e+02   8.3990500e-01
   9.3501540e+02   3.2050480e+00
   9.3549750e+02   4.2950130e+00
   9.3597960e+02   3.3069460e+00
   9.3646170e+02   3.5357970e+00
   9.3694380e+02   6.7017520e+00
   9.3742600e+02   1.0757570e+01
   9.3790810e+02   1.0303380e+01
   9.3839020e+02   6.8020630e+00
   9.3887230e+02   5.0286250e+00
   9.3935440e+02   9.3810120e+00
   9.3983650e+02   1.2844700e+01
   9.4031870e+02   1.0193950e+01
   9.4080080e+02   4.5824130e+00
   9.4128290e+02   2.2029880e+00
   9.4176500e+02   4.5594330e+00
   9.4224710e+02   6.8137820e+00
   9.4272920e+02   8.6862790e+00
   9.4321140e+02   9.5949860e+00
   9.4369350e+02   7.7869870e+00
   9.4417560e+02   4.2727660e+00
   9.4465770e+02   1.8880770e+00
   9.4513980e+02   1.1814190e+00
   9.4562190e+02   2.1618800e+00
   9.4610410e+02   6.5948790e+00
   9.4658620e+02   1.1797760e+01
   9.4706830e+02   1.4870960e+01
   9.4755040e+02   1.6369340e+01
   9.4803250e+02   1.3567170e+01
   9.4851460e+02   4.6601100e+00
   9.4899680e+02   3.6877670e+00
   9.4947890e+02   3.6746440e+00
   9.4996100e+02   2.0330890e+00
   9.5044310e+02   5.9946290e+00
   9.5092520e+02   7.4166260e+00
   9.5140730e+02   7.6250690e+00
   9.5188950e+02   6.0315170e+00
   9.5237160e+02   4.5657040e+00
   9.5285370e+02   4.9276350e+00
   9.5333580e+02   7.8554380e+00
   9.5381790e+02   9.4333950e+00
   9.5430000e+02   9.2754670e+00
   9.5478220e+02   8.8753280e+00
   9.5526430e+02   9.0317230e+00
   9.5574640e+02   9.5662080e+00
   9.5622850e+02   1.0633550e+01
   9.5671060e+02   1.2420520e+01
   9.5719270e+02   1.3418670e+01
   9.5767490e+02   1.0939800e+01
   9.5815700e+02   8.8023300e+00
   9.5863910e+02   9.6043700e+00
   9.5912120e+02   1.2766810e+01
   9.5960330e+02   1.4542930e+01
   9.6008540e+02   1.4590840e+01
   9.6056760e+02   1.4590900e+01
   9.6104970e+02   1.5227450e+01
   9.6153180e+02   1.6016550e+01
   9.6201390e+02   1.6538500e+01
   9.6249600e+02   1.6402990e+01
   9.6297810e+02   1.4522340e+01
   9.6346030e+02   8.2471080e+00
   9.6394240e+02   2.6218260e+00
   9.6442450e+02   8.2175400e-01
   9.6490660e+02   2.1907270e+00
   9.6538870e+02   1.5892110e+00
   9.6587080e+02   1.1708370e+00
   9.6635300e+02   5.4875260e+00
   9.6683510e+02   1.2107730e+01
   9.6731720e+02   1.7858120e+01
   9.6779930e+02   1.7073170e+01
   9.6828140e+02   1.1973970e+01
   9.6876350e+02   6.5217060e+00
   9.6924570e+02   9.6525600e-01
   9.6972780e+02   1.7289810e+00
   9.7020990e+02   1.4565660e+00
   9.7069200e+02   6.3340230e+00
   9.7117410e+02   9.9376980e+00
   9.7165630e+02   1.2359680e+01
   9.7213840e+02   1.2190780e+01
   9.7262050e+02   8.9421230e+00
   9.7310260e+02   6.3681560e+00
   9.7358470e+02   8.9753420e+00
   9.7406680e+02   1.3527060e+01
   9.7454900e+02   1.5427040e+01
   9.7503110e+02   1.4571960e+01
   9.7551320e+02   1.2393470e+01
   9.7599530e+02   6.7475280e+00
   9.7647740e+02   2.2531740e+00
   9.7695950e+02   1.0375440e+00
   9.7744170e+02   2.6433560e+00
   9.7792380e+02   3.6516880e+00
   9.7840590e+02   4.0479280e+00
   9.7888800e+02   4.2727050e+00
   9.7937010e+02   4.2904970e+00
   9.7985220e+02   4.4786300e+00
   9.8033440e+02   5.6808400e+00
   9.8081650e+02   7.4072490e+00
   9.8129860e+02   8.2987670e+00
   9.8178070e+02   7.6273570e+00
   9.8226280e+02   6.5925060e+00
   9.8274490e+02   4.9611430e+00
   9.8322710e+02   3.4125440e+00
   9.8370920e+02   3.5787280e+00
   9.8419130e+02   5.1948170e+00
   9.8467340e+02   5.9122920e+00
   9.8515550e+02   5.2582090e+00
   9.8563760e+02   3.8227770e+00
   9.8611980e+02   2.1521000e-01
   9.8660190e+02   3.1336290e+00
   9.8708400e+02   3.1144940e+00
   9.8756610e+02   3.9409410e+00
   9.8804820e+02   8.3096010e+00
   9.8853030e+02   9.2995450e+00
   9.8901250e+02   8.6627960e+00
   9.8949460e+02   7.2257690e+00
   9.8997670e+02   5.3662340e+00
   9.9045880e+02   5.1752620e+00
   9.9094090e+02   6.7442930e+00
   9.9142300e+02   8.3721080e+00
   9.9190520e+02   9.1747820e+00
   9.9238730e+02   9.3971790e+00
   9.9286940e+02   8.7177890e+00
   9.9335150e+02   7.1351390e+00
   9.9383360e+02   7.2191090e+00
   9.9431570e+02   1.0093310e+01
   9.9479790e+02   1.1067160e+01
   9.9528000e+02   6.8647230e+00
   9.9576210e+02   2.7352900e-01
   9.9624420e+02   1.5619890e+00
   9.9672630e+02   2.4124100e-01
   9.9720840e+02   1.9357910e+00
   9.9769060e+02   1.1299060e+00
   9.9817270e+02   5.6839800e-01
   9.9865480e+02   1.8362660e+00
   9.9913690e+02   3.8636860e+00
   9.9961900e+02   4.5484310e+00
   1.0001010e+03   3.5115810e+00
   1.0005830e+03   3.6394960e+00
   1.0010650e+03   5.7142790e+00
   1.0015470e+03   7.9184190e+00
   1.0020300e+03   7.9923250e+00
   1.0025120e+03   6.7123720e+00
   1.0029940e+03   4.9566500e+00
   1.0034760e+03   2.2876050e+00
   1.0039580e+03   1.5234070e+00
   1.0044400e+03   5.8086550e+00
   1.0049220e+03   9.7802280e+00
   1.0054040e+03   9.5581510e+00
   1.0058870e+03   5.0388110e+00
   1.0063690e+03   2.2152860e+00
   1.0068510e+03   7.9907200e-01
   1.0073330e+03   3.0918900e-01
   1.0078150e+03   5.0703400e-01
   1.0082970e+03   1.3634260e+00
   1.0087790e+03   3.6824040e+00
   1.0092610e+03   7.1988370e+00
   1.0097430e+03   9.4314500e+00
   1.0102260e+03   9.9204560e+00
   1.0107080e+03   9.4728550e+00
   1.0111900e+03   7.9701390e+00
   1.0116720e+03   5.9715040e+00
   1.0121540e+03   4.8091960e+00
   1.0126360e+03   4.3649980e+00
   1.0131180e+03   4.2286220e+00
   1.0136000e+03   4.4316480e+00
   1.0140830e+03   4.6426240e+00
   1.0145650e+03   4.1065900e+00
   1.0150470e+03   3.6147770e+00
   1.0155290e+03   4.5514070e+00
   1.0160110e+03   7.6522220e+00
   1.0164930e+03   9.8624500e+00
   1.0169750e+03   1.1031580e+01
   1.0174570e+03   1.1155410e+01
   1.0179390e+03   9.1903840e+00
   1.0184220e+03   6.5289760e+00
   1.0189040e+03   6.0791850e+00
   1.0193860e+03   8.2803500e+00
   1.0198680e+03   1.0166430e+01
   1.0203500e+03   1.0980260e+01
   1.0208320e+03   1.0628650e+01
   1.0213140e+03   8.2106700e+00
   1.0217960e+03   4.1908650e+00
   1.0222780e+03   5.1517410e+00
   1.0227610e+03   1.1232750e+01
   1.0232430e+03   1.5643350e+01
   1.0237250e+03   1.3604420e+01
   1.0242070e+03   9.1636810e+00
   1.0246890e+03   5.3186570e+00
   1.0251710e+03   2.3448790e+00
   1.0256530e+03   1.0666350e+00
   1.0261350e+03   2.7698440e+00
   1.0266180e+03   4.5048070e+00
   1.0271000e+03   5.8710400e+00
   1.0275820e+03   7.0452650e+00
   1.0280640e+03   9.0713580e+00
   1.0285460e+03   1.1509710e+01
   1.0290280e+03   1.3128180e+01
   1.0295100e+03   1.3558240e+01
   1.0299920e+03   1.3751390e+01
   1.0304740e+03   1.5218120e+01
   1.0309570e+03   1.6051380e+01
   1.0314390e+03   1.4282140e+01
   1.0319210e+03   9.3846360e+00
   1.0324030e+03   5.2061080e+00
   1.0328850e+03   1.3680880e+00
   1.0333670e+03   5.7068001e-02
   1.0338490e+03   5.2241520e+00
   1.0343310e+03   1.2575490e+01
   1.0348130e+03   1.5001760e+01
   1.0352960e+03   1.3227780e+01
   1.0357780e+03   1.1125310e+01
   1.0362600e+03   9.6718670e+00
   1.0367420e+03   8.8179930e+00
   1.0372240e+03   8.6700590e+00
   1.0377060e+03   8.6528400e+00
   1.0381880e+03   6.5720140e+00
   1.0386700e+03   2.7146990e+00
   1.0391530e+03   1.0180590e+00
   1.0396350e+03   2.8324660e+00
   1.0401170e+03   5.8695450e+00
   1.0405990e+03   1.0180780e+01
   1.0410810e+03   1.3534520e+01
   1.0415630e+03   1.2947250e+01
   1.0420450e+03   5.3783490e+00
   1.0425270e+03   1.7009050e+00
   1.0430100e+03   2.8335040e+00
   1.0434920e+03   5.3992690e+00
   1.0439740e+03   7.2839280e+00
   1.0444560e+03   8.2540050e+00
   1.0449380e+03   7.6758040e+00
   1.0454200e+03   6.0683520e+00
   1.0459020e+03   5.6748050e+00
   1.0463840e+03   9.3480760e+00
   1.0468660e+03   1.2671890e+01
   1.0473490e+03   1.4145310e+01
   1.0478310e+03   1.3867830e+01
   1.0483130e+03   1.1020970e+01
   1.0487950e+03   5.5452800e+00
   1.0492770e+03   3.0547870e+00
   1.0497590e+03   6.2979970e+00
   1.0502410e+03   1.0524550e+01
   1.0507230e+03   1.1043930e+01
   1.0512050e+03   9.1359100e+00
   1.0516880e+03   6.3567120e+00
   1.0521700e+03   1.5213700e+00
   1.0526520e+03   1.0099790e+00
   1.0531340e+03   4.6674300e-01
   1.0536160e+03   8.8729100e-01
   1.0540980e+03   8.2067100e-01
   1.0545800e+03   1.8588300e-01
   1.0550620e+03   1.4508130e+00
   1.0555450e+03   4.5420380e+00
   1.0560270e+03   7.1817780e+00
   1.0565090e+03   8.8958660e+00
   1.0569910e+03   9.0575710e+00
   1.0574730e+03   5.8807530e+00
   1.0579550e+03   9.0234400e-01
   1.0584370e+03   6.8374999e-02
   1.0589190e+03   3.4331280e+00
   1.0594010e+03   6.0464940e+00
   1.0598840e+03   5.3923420e+00
   1.0603660e+03   4.2844240e+00
   1.0608480e+03   7.0364070e+00
   1.0613300e+03   1.1140250e+01
   1.0618120e+03   1.2509420e+01
   1.0622940e+03   7.6872330e+00
   1.0627760e+03   5.1339720e+00
   1.0632580e+03   6.0720900e+00
   1.0637400e+03   7.8217620e+00
   1.0642230e+03   8.2520370e+00
   1.0647050e+03   7.6178130e+00
   1.0651870e+03   6.3929290e+00
   1.0656690e+03   4.7251430e+00
   1.0661510e+03   4.0993960e+00
   1.0666330e+03   7.0182720e+00
   1.0671150e+03   9.6004790e+00
   1.0675970e+03   9.1617510e+00
   1.0680790e+03   7.2333370e+00
   1.0685620e+03   7.0356290e+00
   1.0690440e+03   9.1913830e+00
   1.0695260e+03   1.0256790e+01
   1.0700080e+03   9.0769350e+00
   1.0704900e+03   6.7299120e+00
   1.0709720e+03   2.8596500e+00
   1.0714540e+03   6.3525400e-01
   1.0719360e+03   7.5056500e-01
   1.0724190e+03   6.3114780e+00
   1.0729010e+03   9.6896900e+00
   1.0733830e+03   7.5116420e+00
   1.0738650e+03   4.4436490e+00
   1.0743470e+03   4.2772900e+00
   1.0748290e+03   6.2563170e+00
   1.0753110e+03   7.4548650e+00
   1.0757930e+03   7.9837420e+00
   1.0762760e+03   8.7368550e+00
   1.0767580e+03   1.1819020e+01
   1.0772400e+03   1.3488210e+01
   1.0777220e+03   1.0648970e+01
   1.0782040e+03   5.5292050e+00
   1.0786860e+03   3.7179410e+00
   1.0791680e+03   5.3943100e+00
   1.0796500e+03   6.5632170e+00
   1.0801320e+03   6.1009220e+00
   1.0806150e+03   5.4338070e+00
   1.0810970e+03   6.5279460e+00
   1.0815790e+03   8.0814970e+00
   1.0820610e+03   8.3545680e+00
   1.0825430e+03   6.2413180e+00
   1.0830250e+03   5.3621520e+00
   1.0835070e+03   6.2617950e+00
   1.0839890e+03   7.1014400e+00
   1.0844710e+03   6.0520100e+00
   1.0849540e+03   4.1494520e+00
   1.0854360e+03   4.4108200e+00
   1.0859180e+03   6.6280520e+00
   1.0864000e+03   8.6272050e+00
   1.0868820e+03   1.0727200e+01
   1.0873640e+03   1.1389030e+01
   1.0878460e+03   9.0752720e+00
   1.0883280e+03   5.8255160e+00
   1.0888110e+03   6.1419600e+00
   1.0892930e+03   9.7916180e+00
   1.0897750e+03   1.1120210e+01
   1.0902570e+03   8.8958590e+00
   1.0907390e+03   5.9345630e+00
   1.0912210e+03   3.1023410e+00
   1.0917030e+03   1.3361280e+00
   1.0921850e+03   2.5562590e+00
   1.0926670e+03   7.7585600e+00
   1.0931500e+03   8.2355650e+00
   1.0936320e+03   2.5290150e+00
   1.0941140e+03   1.7511670e+00
   1.0945960e+03   8.1930500e-01
   1.0950780e+03   6.3238980e+00
   1.0955600e+03   8.2681730e+00
   1.0960420e+03   7.5377810e+00
   1.0965240e+03   6.5046690e+00
   1.0970060e+03   4.9766390e+00
   1.0974890e+03   4.8092580e+00
   1.0979710e+03   7.3114700e+00
   1.0984530e+03   9.7459950e+00
   1.0989350e+03   7.2762220e+00
   1.0994170e+03   1.4286580e+00
   1.0998990e+03   3.1526200e-01
   1.1003810e+03   4.9800950e+00
   1.1008630e+03   8.7837600e+00
   1.1013460e+03   5.9112630e+00
   1.1018280e+03   2.2853090e+00
   1.1023100e+03   1.9144820e+00
   1.1027920e+03   4.1902850e+00
   1.1032740e+03   4.2386550e+00
   1.1037560e+03   1.8269270e+00
   1.1042380e+03   1.8195500e+00
   1.1047200e+03   7.9160460e+00
   1.1052030e+03   1.3900210e+01
   1.1056850e+03   1.1061080e+01
   1.1061670e+03   4.3503270e+00
   1.1066490e+03   1.2834930e+00
   1.1071310e+03   5.8900830e+00
   1.1076130e+03   9.2422790e+00
   1.1080950e+03   1.1269530e+01
   1.1085770e+03   1.2280200e+01
   1.1090590e+03   1.1888330e+01
   1.1095420e+03   1.0665280e+01
   1.1100240e+03   1.0352740e+01
   1.1105060e+03   1.0764060e+01
   1.1109880e+03   1.0540430e+01
   1.1114700e+03   6.9502640e+00
   1.1119520e+03   4.6988140e+00
   1.1124340e+03   6.2948910e+00
   1.1129160e+03   9.4177170e+00
   1.1133980e+03   7.8142620e+00
   1.1138810e+03   2.5506130e+00
   1.1143630e+03   9.5074500e-01
   1.1148450e+03   5.8780520e+00
   1.1153270e+03   9.8652190e+00
   1.1158090e+03   5.9749150e+00
   1.1162910e+03   5.6304900e-01
   1.1167730e+03   8.5443100e-01
   1.1172550e+03   2.1490480e+00
   1.1177380e+03   2.5206680e+00
   1.1182200e+03   3.2814000e-02
   1.1187020e+03   1.8067320e+00
   1.1191840e+03   8.6001600e-01
   1.1196660e+03   1.7005160e+00
   1.1201480e+03   6.3948970e+00
   1.1206300e+03   1.1636920e+01
   1.1211120e+03   1.3485530e+01
   1.1215940e+03   8.9032440e+00
   1.1220770e+03   6.1303860e+00
   1.1225590e+03   5.9665990e+00
   1.1230410e+03   7.3138730e+00
   1.1235230e+03   1.1088750e+01
   1.1240050e+03   1.4719470e+01
   1.1244870e+03   1.1256260e+01
   1.1249690e+03   1.9999700e-01
   1.1254510e+03   6.2513280e+00
   1.1259330e+03   1.0408000e-01
   1.1264160e+03   7.4736630e+00
   1.1268980e+03   1.3099750e+01
   1.1273800e+03   1.6666020e+01
   1.1278620e+03   1.6175000e+01
   1.1283440e+03   1.2541340e+01
   1.1288260e+03   9.7886730e+00
   1.1293080e+03   9.1666490e+00
   1.1297900e+03   9.7794040e+00
   1.1302730e+03   1.3929530e+01
   1.1307550e+03   1.6956000e+01
   1.1312370e+03   1.3571990e+01
   1.1317190e+03   2.4821170e+00
   1.1322010e+03   4.7432002e-02
   1.1326830e+03   6.3939060e+00
   1.1331650e+03   1.2434480e+01
   1.1336470e+03   1.1076090e+01
   1.1341300e+03   7.7976150e+00
   1.1346120e+03   6.9887540e+00
   1.1350940e+03   8.0051040e+00
   1.1355760e+03   8.3550490e+00
   1.1360580e+03   7.3004150e+00
   1.1365400e+03   8.0800550e+00
   1.1370220e+03   1.1804020e+01
   1.1375040e+03   1.5081850e+01
   1.1379860e+03   1.2983180e+01
   1.1384690e+03   8.4396130e+00
   1.1389510e+03   5.1969680e+00
   1.1394330e+03   3.7982250e+00
   1.1399150e+03   3.4370350e+00
   1.1403970e+03   3.8312230e+00
   1.1408790e+03   5.6400300e+00
   1.1413610e+03   1.0516820e+01
   1.1418430e+03   1.5592370e+01
   1.1423250e+03   1.1805870e+01
   1.1428080e+03   2.7077870e+00
   1.1432900e+03   2.0687940e+00
   1.1437720e+03   3.4061430e+00
   1.1442540e+03   8.8877790e+00
   1.1447360e+03   1.2366900e+01
   1.1452180e+03   1.4119470e+01
   1.1457000e+03   1.4083690e+01
   1.1461820e+03   1.2338540e+01
   1.1466650e+03   9.2213670e+00
   1.1471470e+03   4.9236910e+00
   1.1476290e+03   1.1753620e+00
   1.1481110e+03   1.4776040e+00
   1.1485930e+03   2.6519970e+00
   1.1490750e+03   1.0787120e+00
   1.1495570e+03   1.7534830e+00
   1.1500390e+03   2.7004550e+00
   1.1505210e+03   1.6026040e+00
   1.1510040e+03   3.0077860e+00
   1.1514860e+03   7.9924850e+00
   1.1519680e+03   1.2582250e+01
   1.1524500e+03   1.3575520e+01
   1.1529320e+03   1.2588570e+01
   1.1534140e+03   1.0694260e+01
   1.1538960e+03   8.0165630e+00
   1.1543780e+03   5.7769200e+00
   1.1548600e+03   3.8708880e+00
   1.1553430e+03   3.1412890e+00
   1.1558250e+03   4.4329110e+00
   1.1563070e+03   6.1931570e+00
   1.1567890e+03   6.0591200e+00
   1.1572710e+03   5.0996250e+00
   1.1577530e+03   5.1140100e+00
   1.1582350e+03   8.0840840e+00
   1.1587170e+03   8.4424100e+00
   1.1591990e+03   5.0776440e+00
   1.1596820e+03   2.0212100e+00
   1.1601640e+03   3.3163600e+00
   1.1606460e+03   6.7014920e+00
   1.1611280e+03   6.6460150e+00
   1.1616100e+03   4.1088790e+00
   1.1620920e+03   3.2226790e+00
   1.1625740e+03   7.9777830e+00
   1.1630560e+03   1.1118800e+01
   1.1635390e+03   1.1444900e+01
   1.1640210e+03   9.8380580e+00
   1.1645030e+03   6.5796170e+00
   1.1649850e+03   2.4785800e+00
   1.1654670e+03   2.2189300e-01
   1.1659490e+03   1.2475430e+00
   1.1664310e+03   7.5733600e-01
   1.1669130e+03   4.1241610e+00
   1.1673960e+03   6.9504850e+00
   1.1678780e+03   3.8770900e+00
   1.1683600e+03   2.5359230e+00
   1.1688420e+03   3.0176350e+00
   1.1693240e+03   1.4405480e+00
   1.1698060e+03   4.7502630e+00
   1.1702880e+03   4.4475360e+00
   1.1707700e+03   4.3134230e+00
   1.1712520e+03   8.5008930e+00
   1.1717340e+03   1.2115140e+01
   1.1722170e+03   1.0475750e+01
   1.1726990e+03   3.4941640e+00
   1.1731810e+03   3.8139000e-01
   1.1736630e+03   1.1495060e+00
   1.1741450e+03   2.3617600e-01
   1.1746270e+03   6.5484240e+00
   1.1751090e+03   1.1533780e+01
   1.1755910e+03   8.1369780e+00
   1.1760740e+03   1.1594890e+00
   1.1765560e+03   6.4739999e-03
   1.1770380e+03   6.5467680e+00
   1.1775200e+03   9.3229450e+00
   1.1780020e+03   7.0262180e+00
   1.1784840e+03   5.1601940e+00
   1.1789660e+03   1.0414920e+01
   1.1794480e+03   1.6955320e+01
   1.1799310e+03   1.9116080e+01
   1.1804130e+03   1.7064730e+01
   1.1808950e+03   1.5036110e+01
   1.1813770e+03   1.3006100e+01
   1.1818590e+03   1.1650880e+01
   1.1823410e+03   1.1224830e+01
   1.1828230e+03   1.1188260e+01
   1.1833050e+03   1.0674050e+01
   1.1837870e+03   1.0593150e+01
   1.1842700e+03   1.0767940e+01
   1.1847520e+03   1.1195280e+01
   1.1852340e+03   1.1611570e+01
   1.1857160e+03   1.1961620e+01
   1.1861980e+03   1.2469540e+01
   1.1866800e+03   1.3488500e+01
   1.1871620e+03   1.4429640e+01
   1.1876440e+03   1.4265730e+01
   1.1881260e+03   1.3220170e+01
   1.1886090e+03   1.1678440e+01
   1.1890910e+03   8.7109790e+00
   1.1895730e+03   7.2061500e+00
   1.1900550e+03   7.4907610e+00
   1.1905370e+03   8.7793620e+00
   1.1910190e+03   1.1005110e+01
   1.1915010e+03   1.3416610e+01
   1.1919830e+03   1.3534080e+01
   1.1924660e+03   1.1990320e+01
   1.1929480e+03   1.1485770e+01
   1.1934300e+03   1.5776710e+01
   1.1939120e+03   1.7108960e+01
   1.1943940e+03   1.3373050e+01
   1.1948760e+03   7.7835920e+00
   1.1953580e+03   3.6819000e+00
   1.1958400e+03   1.2807040e+00
   1.1963230e+03   1.5533140e+00
   1.1968050e+03   4.5168460e+00
   1.1972870e+03   7.7525330e+00
   1.1977690e+03   1.0805870e+01
   1.1982510e+03   1.3280180e+01
   1.1987330e+03   1.5430900e+01
   1.1992150e+03   1.6616530e+01
   1.1996970e+03   1.3904350e+01
   1.2001790e+03   8.8761750e+00
   1.2006610e+03   7.7378620e+00
   1.2011440e+03   1.2798570e+01
   1.2016260e+03   1.7112420e+01
   1.2021080e+03   1.6540400e+01
   1.2025900e+03   1.4399010e+01
   1.2030720e+03   1.2099430e+01
   1.2035540e+03   9.7849660e+00
   1.2040360e+03   8.3467410e+00
   1.2045180e+03   7.6845470e+00
   1.2050010e+03   7.3201140e+00
   1.2054830e+03   6.9469030e+00
   1.2059650e+03   6.8615800e+00
   1.2064470e+03   8.1145820e+00
   1.2069290e+03   9.3234750e+00
   1.2074110e+03   8.7632100e+00
   1.2078930e+03   6.3972170e+00
   1.2083750e+03   6.7388610e+00
   1.2088580e+03   9.5036700e+00
   1.2093400e+03   1.1202220e+01
   1.2098220e+03   8.0486760e+00
   1.2103040e+03   5.2231560e+00
   1.2107860e+03   6.1443180e+00
   1.2112680e+03   8.4738200e+00
   1.2117500e+03   8.9755900e+00
   1.2122320e+03   7.6987840e+00
   1.2127140e+03   6.5187150e+00
   1.2131970e+03   5.6003000e+00
   1.2136790e+03   5.4052120e+00
   1.2141610e+03   7.0756260e+00
   1.2146430e+03   8.7689510e+00
   1.2151250e+03   9.1104890e+00
   1.2156070e+03   8.6108020e+00
   1.2160890e+03   9.0106740e+00
   1.2165710e+03   1.0253160e+01
   1.2170530e+03   8.6599160e+00
   1.2175360e+03   2.5857010e+00
   1.2180180e+03   1.6236340e+00
   1.2185000e+03   3.4913830e+00
   1.2189820e+03   1.0365690e+01
   1.2194640e+03   1.3072020e+01
   1.2199460e+03   1.2048950e+01
   1.2204280e+03   1.2108000e+01
   1.2209100e+03   1.3189830e+01
   1.2213930e+03   1.2374410e+01
   1.2218750e+03   7.3350410e+00
   1.2223570e+03   2.9640690e+00
   1.2228390e+03   3.6423380e+00
   1.2233210e+03   6.5289540e+00
   1.2238030e+03   8.7667430e+00
   1.2242850e+03   1.0353410e+01
   1.2247670e+03   1.2096550e+01
   1.2252500e+03   1.3906350e+01
   1.2257320e+03   1.5472940e+01
   1.2262140e+03   1.7495640e+01
   1.2266960e+03   1.8023860e+01
   1.2271780e+03   1.4292840e+01
   1.2276600e+03   8.8065570e+00
   1.2281420e+03   5.6783370e+00
   1.2286240e+03   5.1179280e+00
   1.2291060e+03   6.3405760e+00
   1.2295890e+03   9.3517000e+00
   1.2300710e+03   1.1225230e+01
   1.2305530e+03   8.2281800e+00
   1.2310350e+03   4.7876970e+00
   1.2315170e+03   3.6966020e+00
   1.2319990e+03   4.3958660e+00
   1.2324810e+03   5.5719300e+00
   1.2329630e+03   7.2101210e+00
   1.2334450e+03   9.2617190e+00
   1.2339280e+03   1.1894410e+01
   1.2344100e+03   1.3102550e+01
   1.2348920e+03   9.4210280e+00
   1.2353740e+03   5.1319960e+00
   1.2358560e+03   3.6532360e+00
   1.2363380e+03   4.4959260e+00
   1.2368200e+03   5.6431500e+00
   1.2373020e+03   7.1801450e+00
   1.2377850e+03   6.7881010e+00
   1.2382670e+03   3.4096910e+00
   1.2387490e+03   2.9805800e-01
   1.2392310e+03   1.0958900e-01
   1.2397130e+03   1.6478350e+00
   1.2401950e+03   5.0552900e+00
   1.2406770e+03   9.7663270e+00
   1.2411590e+03   8.7242130e+00
   1.2416410e+03   1.9061740e+00
   1.2421240e+03   2.2097000e-01
   1.2426060e+03   8.9668350e+00
   1.2430880e+03   1.7635130e+01
   1.2435700e+03   1.4107090e+01
   1.2440520e+03   6.6248860e+00
   1.2445340e+03   3.4328000e+00
   1.2450160e+03   4.7689740e+00
   1.2454980e+03   7.7366330e+00
   1.2459800e+03   1.2305450e+01
   1.2464630e+03   1.5046490e+01
   1.2469450e+03   1.3302020e+01
   1.2474270e+03   1.0337980e+01
   1.2479090e+03   6.6911700e+00
   1.2483910e+03   4.1591570e+00
   1.2488730e+03   5.3193510e+00
   1.2493550e+03   1.0683390e+01
   1.2498370e+03   1.4220060e+01
   1.2503190e+03   1.5814640e+01
   1.2508020e+03   1.5802020e+01
   1.2512840e+03   1.3557880e+01
   1.2517660e+03   1.0623500e+01
   1.2522480e+03   6.3120420e+00
   1.2527300e+03   2.6579280e+00
   1.2532120e+03   4.2388690e+00
   1.2536940e+03   1.0888250e+01
   1.2541760e+03   1.3307430e+01
   1.2546590e+03   1.0827480e+01
   1.2551410e+03   7.8526150e+00
   1.2556230e+03   7.1491090e+00
   1.2561050e+03   7.1546330e+00
   1.2565870e+03   7.5402830e+00
   1.2570690e+03   7.7709580e+00
   1.2575510e+03   5.8850480e+00
   1.2580330e+03   2.3341600e+00
   1.2585160e+03   2.8810200e+00
   1.2589980e+03   8.7516170e+00
   1.2594800e+03   1.3269960e+01
   1.2599620e+03   1.0710140e+01
   1.2604440e+03   7.0453030e+00
   1.2609260e+03   5.3846050e+00
   1.2614080e+03   5.0605090e+00
   1.2618900e+03   3.2902830e+00
   1.2623720e+03   8.5105900e-01
   1.2628540e+03   2.9973680e+00
   1.2633370e+03   1.2349070e+01
   1.2638190e+03   1.9054470e+01
   1.2643010e+03   1.5370740e+01
   1.2647830e+03   1.0034000e+01
   1.2652650e+03   7.2974400e+00
   1.2657470e+03   6.5107650e+00
   1.2662290e+03   5.2474060e+00
   1.2667110e+03   3.7662050e+00
   1.2671940e+03   2.9547730e+00
   1.2676760e+03   2.8521190e+00
   1.2681580e+03   4.2004320e+00
   1.2686400e+03   9.6404040e+00
   1.2691220e+03   1.3602580e+01
   1.2696040e+03   1.2126090e+01
   1.2700860e+03   7.0063670e+00
   1.2705680e+03   4.6207580e+00
   1.2710510e+03   4.5115660e+00
   1.2715330e+03   5.3880580e+00
   1.2720150e+03   8.3998220e+00
   1.2724970e+03   9.2026980e+00
   1.2729790e+03   5.6576960e+00
   1.2734610e+03   2.5486370e+00
   1.2739430e+03   5.0824240e+00
   1.2744250e+03   1.0395030e+01
   1.2749070e+03   8.8920560e+00
   1.2753900e+03   2.6915020e+00
   1.2758720e+03   1.2135510e+00
   1.2763540e+03   1.6441610e+00
   1.2768360e+03   3.9938350e+00
   1.2773180e+03   5.3612980e+00
   1.2778000e+03   5.8856740e+00
   1.2782820e+03   5.4768680e+00
   1.2787640e+03   4.4226260e+00
   1.2792460e+03   2.2280460e+00
   1.2797290e+03   3.1670000e-01
   1.2802110e+03   2.1324200e-01
   1.2806930e+03   6.8021200e+00
   1.2811750e+03   1.1764410e+01
   1.2816570e+03   1.4044270e+01
   1.2821390e+03   1.4584620e+01
   1.2826210e+03   1.2144880e+01
   1.2831030e+03   8.8871770e+00
   1.2835860e+03   7.7531170e+00
   1.2840680e+03   8.6971890e+00
   1.2845500e+03   8.8497850e+00
   1.2850320e+03   8.0586810e+00
   1.2855140e+03   6.0419460e+00
   1.2859960e+03   2.2032200e+00
   1.2864780e+03   3.0590000e-02
   1.2869600e+03   0.0000000e+00
   1.5000000e+03   0.0000000e+00
