   1.0000000e+02   0.0000000e+00
   1.2248670e+02   0.0000000e+00
   1.2296880e+02   8.0337520e+00
   1.2345090e+02   7.3168950e+00
   1.2393300e+02   2.5335080e+00
   1.2441510e+02   6.1700400e-01
   1.2489720e+02   9.7155800e-01
   1.2537940e+02   5.2460330e+00
   1.2586150e+02   1.8938110e+01
   1.2634360e+02   3.9023620e+01
   1.2682570e+02   5.6450740e+01
   1.2730780e+02   6.3437380e+01
   1.2778990e+02   6.3085570e+01
   1.2827210e+02   6.4437740e+01
   1.2875420e+02   6.7413210e+01
   1.2923630e+02   6.8122380e+01
   1.2971840e+02   7.2576540e+01
   1.3020050e+02   8.1513980e+01
   1.3068260e+02   8.6641110e+01
   1.3116480e+02   7.7468200e+01
   1.3164690e+02   5.5800900e+01
   1.3212900e+02   3.4648130e+01
   1.3261110e+02   1.7782530e+01
   1.3309320e+02   5.0426030e+00
   1.3357530e+02   4.2068480e+00
   1.3405750e+02   1.0033260e+01
   1.3453960e+02   1.2317810e+01
   1.3502170e+02   1.0398620e+01
   1.3550380e+02   4.0950930e+00
   1.3598590e+02   4.3670650e+00
   1.3646800e+02   1.3377080e+01
   1.3695010e+02   2.2831910e+01
   1.3743230e+02   3.7024780e+01
   1.3791440e+02   5.8823670e+01
   1.3839650e+02   8.3234380e+01
   1.3887860e+02   9.5297120e+01
   1.3936070e+02   9.1941040e+01
   1.3984280e+02   8.4899480e+01
   1.4032500e+02   8.0631770e+01
   1.4080710e+02   7.8714600e+01
   1.4128920e+02   8.1562740e+01
   1.4177130e+02   9.1680790e+01
   1.4225340e+02   1.0804530e+02
   1.4273550e+02   1.1777310e+02
   1.4321770e+02   1.1779480e+02
   1.4369980e+02   1.1503690e+02
   1.4418190e+02   1.1535210e+02
   1.4466400e+02   1.1903370e+02
   1.4514610e+02   1.2480690e+02
   1.4562830e+02   1.3467570e+02
   1.4611040e+02   1.5072610e+02
   1.4659250e+02   1.5658290e+02
   1.4707460e+02   1.4596280e+02
   1.4755670e+02   1.2783250e+02
   1.4803880e+02   1.1477420e+02
   1.4852100e+02   1.0856200e+02
   1.4900310e+02   1.0548330e+02
   1.4948520e+02   1.0415000e+02
   1.4996730e+02   1.0221470e+02
   1.5044940e+02   1.0672330e+02
   1.5093150e+02   1.2432420e+02
   1.5141370e+02   1.4869710e+02
   1.5189580e+02   1.6435000e+02
   1.5237790e+02   1.5747960e+02
   1.5286000e+02   1.5213100e+02
   1.5334210e+02   1.5809030e+02
   1.5382420e+02   1.9285610e+02
   1.5430640e+02   2.1956560e+02
   1.5478850e+02   2.2998350e+02
   1.5527060e+02   2.2716700e+02
   1.5575270e+02   2.3017180e+02
   1.5623480e+02   2.3763070e+02
   1.5671690e+02   2.5441040e+02
   1.5719900e+02   2.8367700e+02
   1.5768120e+02   3.2795410e+02
   1.5816330e+02   3.8299710e+02
   1.5864540e+02   4.4708870e+02
   1.5912750e+02   5.1926110e+02
   1.5960960e+02   6.0481920e+02
   1.6009170e+02   7.0261190e+02
   1.6057390e+02   8.1485000e+02
   1.6105600e+02   9.4491770e+02
   1.6153810e+02   1.0946700e+03
   1.6202020e+02   1.2592410e+03
   1.6250230e+02   1.4418690e+03
   1.6298440e+02   1.6394940e+03
   1.6346660e+02   1.8485110e+03
   1.6394870e+02   2.0708230e+03
   1.6443080e+02   2.3039040e+03
   1.6491290e+02   2.5413720e+03
   1.6539500e+02   2.7650700e+03
   1.6587710e+02   2.9983690e+03
   1.6635930e+02   3.2605850e+03
   1.6684140e+02   3.5585350e+03
   1.6732350e+02   3.8796880e+03
   1.6780560e+02   4.2159530e+03
   1.6828770e+02   4.5712310e+03
   1.6876980e+02   4.9559970e+03
   1.6925200e+02   5.4093750e+03
   1.6973410e+02   5.8818320e+03
   1.7021620e+02   6.3394190e+03
   1.7069830e+02   6.8350290e+03
   1.7118040e+02   7.2222100e+03
   1.7166250e+02   7.4128010e+03
   1.7214470e+02   7.4054120e+03
   1.7262680e+02   7.1904950e+03
   1.7310890e+02   6.6605960e+03
   1.7359100e+02   5.9382270e+03
   1.7407310e+02   5.1935390e+03
   1.7455520e+02   4.4289580e+03
   1.7503740e+02   3.6975370e+03
   1.7551950e+02   3.0764280e+03
   1.7600160e+02   2.5583890e+03
   1.7648370e+02   2.1231510e+03
   1.7696580e+02   1.7711700e+03
   1.7744790e+02   1.4927170e+03
   1.7793000e+02   1.2704390e+03
   1.7841220e+02   1.1171360e+03
   1.7889430e+02   1.0102250e+03
   1.7937640e+02   9.1448240e+02
   1.7985850e+02   8.2985290e+02
   1.8034060e+02   7.5468980e+02
   1.8082270e+02   6.9221980e+02
   1.8130490e+02   6.4145140e+02
   1.8178700e+02   5.9624660e+02
   1.8226910e+02   5.5445170e+02
   1.8275120e+02   5.1626880e+02
   1.8323330e+02   4.8244810e+02
   1.8371540e+02   4.5314100e+02
   1.8419760e+02   4.2849390e+02
   1.8467970e+02   4.1119570e+02
   1.8516180e+02   4.0029690e+02
   1.8564390e+02   3.8857750e+02
   1.8612600e+02   3.7045360e+02
   1.8660810e+02   3.4749980e+02
   1.8709030e+02   3.2575610e+02
   1.8757240e+02   3.0550480e+02
   1.8805450e+02   2.8715830e+02
   1.8853660e+02   2.7069750e+02
   1.8901870e+02   2.5623600e+02
   1.8950080e+02   2.4380550e+02
   1.8998300e+02   2.3467970e+02
   1.9046510e+02   2.2837590e+02
   1.9094720e+02   2.2084300e+02
   1.9142930e+02   2.1095730e+02
   1.9191140e+02   1.9961350e+02
   1.9239350e+02   1.8870620e+02
   1.9287570e+02   1.7830310e+02
   1.9335780e+02   1.6910170e+02
   1.9383990e+02   1.6380300e+02
   1.9432200e+02   1.6217720e+02
   1.9480410e+02   1.5449480e+02
   1.9528620e+02   1.3613040e+02
   1.9576840e+02   1.0998440e+02
   1.9625050e+02   8.9963260e+01
   1.9673260e+02   7.7114010e+01
   1.9721470e+02   6.6495120e+01
   1.9769680e+02   5.1674190e+01
   1.9817890e+02   3.2163330e+01
   1.9866100e+02   1.6329100e+01
   1.9914320e+02   7.3525390e+00
   1.9962530e+02   4.8742680e+00
   2.0010740e+02   4.5500490e+00
   2.0058950e+02   7.6561280e+00
   2.0107160e+02   1.0037350e+01
   2.0155370e+02   4.5516360e+00
   2.0203590e+02   1.0442630e+01
   2.0251800e+02   2.3765010e+01
   2.0300010e+02   3.1049320e+01
   2.0348220e+02   3.2006350e+01
   2.0396430e+02   3.2544920e+01
   2.0444640e+02   3.2577390e+01
   2.0492860e+02   3.2476320e+01
   2.0541070e+02   3.3433230e+01
   2.0589280e+02   3.6249390e+01
   2.0637490e+02   3.7315430e+01
   2.0685700e+02   3.4991090e+01
   2.0733910e+02   2.8985840e+01
   2.0782130e+02   2.0739140e+01
   2.0830340e+02   9.2121580e+00
   2.0878550e+02   3.6278080e+00
   2.0926760e+02   1.2351070e+01
   2.0974970e+02   1.5015750e+01
   2.1023180e+02   1.8948360e+01
   2.1071400e+02   2.7984990e+01
   2.1119610e+02   4.2699580e+01
   2.1167820e+02   6.0013430e+01
   2.1216030e+02   7.9874630e+01
   2.1264240e+02   1.0209830e+02
   2.1312450e+02   1.2556150e+02
   2.1360670e+02   1.4935070e+02
   2.1408880e+02   1.7780000e+02
   2.1457090e+02   2.1179380e+02
   2.1505300e+02   2.5008260e+02
   2.1553510e+02   2.9746450e+02
   2.1601720e+02   3.5594860e+02
   2.1649940e+02   4.2377670e+02
   2.1698150e+02   4.9464030e+02
   2.1746360e+02   5.6598220e+02
   2.1794570e+02   6.4157150e+02
   2.1842780e+02   7.2227030e+02
   2.1890990e+02   8.0242220e+02
   2.1939200e+02   8.9916280e+02
   2.1987420e+02   1.0190100e+03
   2.2035630e+02   1.1584300e+03
   2.2083840e+02   1.2986980e+03
   2.2132050e+02   1.4304500e+03
   2.2180260e+02   1.5737140e+03
   2.2228470e+02   1.7420240e+03
   2.2276690e+02   1.9363030e+03
   2.2324900e+02   2.1551780e+03
   2.2373110e+02   2.3980430e+03
   2.2421320e+02   2.6682430e+03
   2.2469530e+02   2.9538930e+03
   2.2517740e+02   3.2657370e+03
   2.2565960e+02   3.5861250e+03
   2.2614170e+02   3.9029930e+03
   2.2662380e+02   4.2109320e+03
   2.2710590e+02   4.5211750e+03
   2.2758800e+02   4.8415310e+03
   2.2807010e+02   5.1719380e+03
   2.2855230e+02   5.4950130e+03
   2.2903440e+02   5.8035870e+03
   2.2951650e+02   6.1097350e+03
   2.2999860e+02   6.4284130e+03
   2.3048070e+02   6.7460130e+03
   2.3096280e+02   7.0965700e+03
   2.3144500e+02   7.4941930e+03
   2.3192710e+02   7.9491960e+03
   2.3240920e+02   8.3942290e+03
   2.3289130e+02   8.8774140e+03
   2.3337340e+02   9.3219210e+03
   2.3385550e+02   9.6389600e+03
   2.3433770e+02   9.8644680e+03
   2.3481980e+02   9.9060760e+03
   2.3530190e+02   9.7271180e+03
   2.3578400e+02   9.3070650e+03
   2.3626610e+02   8.7637900e+03
   2.3674820e+02   8.0566920e+03
   2.3723040e+02   7.2607960e+03
   2.3771250e+02   6.4851320e+03
   2.3819460e+02   5.7039660e+03
   2.3867670e+02   4.9875610e+03
   2.3915880e+02   4.3527040e+03
   2.3964090e+02   3.8112740e+03
   2.4012300e+02   3.3216680e+03
   2.4060520e+02   2.8884430e+03
   2.4108730e+02   2.5084310e+03
   2.4156940e+02   2.1825190e+03
   2.4205150e+02   1.9250940e+03
   2.4253360e+02   1.6990280e+03
   2.4301570e+02   1.4915200e+03
   2.4349790e+02   1.2993150e+03
   2.4398000e+02   1.1361140e+03
   2.4446210e+02   1.0078280e+03
   2.4494420e+02   9.0638340e+02
   2.4542630e+02   8.1372050e+02
   2.4590840e+02   7.3168290e+02
   2.4639060e+02   6.5543680e+02
   2.4687270e+02   5.8196440e+02
   2.4735480e+02   5.0649910e+02
   2.4783690e+02   4.4699210e+02
   2.4831900e+02   4.0838380e+02
   2.4880110e+02   3.8411850e+02
   2.4928330e+02   3.5822190e+02
   2.4976540e+02   3.2761160e+02
   2.5024750e+02   3.0084060e+02
   2.5072960e+02   2.8041670e+02
   2.5121170e+02   2.6293100e+02
   2.5169380e+02   2.6060850e+02
   2.5217600e+02   2.7724790e+02
   2.5265810e+02   3.0787570e+02
   2.5314020e+02   3.4110020e+02
   2.5362230e+02   3.7567380e+02
   2.5410440e+02   4.1526640e+02
   2.5458650e+02   4.6204970e+02
   2.5506870e+02   5.2010890e+02
   2.5555080e+02   5.7489930e+02
   2.5603290e+02   6.2153500e+02
   2.5651500e+02   6.6615090e+02
   2.5699710e+02   7.2737230e+02
   2.5747920e+02   8.1390690e+02
   2.5796140e+02   9.0343870e+02
   2.5844350e+02   9.8360300e+02
   2.5892560e+02   1.0447570e+03
   2.5940770e+02   1.1235570e+03
   2.5988980e+02   1.2258050e+03
   2.6037190e+02   1.3450560e+03
   2.6085410e+02   1.4646670e+03
   2.6133620e+02   1.5897630e+03
   2.6181830e+02   1.7084550e+03
   2.6230040e+02   1.8224630e+03
   2.6278250e+02   1.9444780e+03
   2.6326460e+02   2.0183300e+03
   2.6374680e+02   2.0422460e+03
   2.6422890e+02   2.0152560e+03
   2.6471100e+02   1.9292740e+03
   2.6519310e+02   1.7730880e+03
   2.6567520e+02   1.5838110e+03
   2.6615730e+02   1.3694680e+03
   2.6663950e+02   1.1165520e+03
   2.6712160e+02   8.9797560e+02
   2.6760370e+02   7.2391360e+02
   2.6808580e+02   5.8634570e+02
   2.6856790e+02   4.5751170e+02
   2.6905000e+02   3.3669910e+02
   2.6953210e+02   2.3174220e+02
   2.7001430e+02   1.4803780e+02
   2.7049640e+02   8.8666630e+01
   2.7097850e+02   3.8592410e+01
   2.7146060e+02   2.2486570e+00
   2.7194270e+02   3.5427370e+01
   2.7242480e+02   6.5598140e+01
   2.7290700e+02   9.2490230e+01
   2.7338910e+02   1.1728700e+02
   2.7387120e+02   1.4174880e+02
   2.7435330e+02   1.6669260e+02
   2.7483540e+02   1.8500150e+02
   2.7531750e+02   1.9552540e+02
   2.7579970e+02   1.9936870e+02
   2.7628180e+02   1.9791350e+02
   2.7676390e+02   1.8973290e+02
   2.7724600e+02   1.8216960e+02
   2.7772810e+02   1.8084630e+02
   2.7821020e+02   1.8642440e+02
   2.7869240e+02   1.8954020e+02
   2.7917450e+02   1.8997310e+02
   2.7965660e+02   1.8699780e+02
   2.8013870e+02   1.7797270e+02
   2.8062080e+02   1.6225210e+02
   2.8110290e+02   1.4446170e+02
   2.8158510e+02   1.2751980e+02
   2.8206720e+02   1.1142680e+02
   2.8254930e+02   9.3992550e+01
   2.8303140e+02   7.5325320e+01
   2.8351350e+02   5.4783690e+01
   2.8399560e+02   3.2306400e+01
   2.8447780e+02   8.2812500e+00
   2.8495990e+02   2.2479490e+01
   2.8544200e+02   6.6961910e+01
   2.8592410e+02   1.2375900e+02
   2.8640620e+02   1.7228740e+02
   2.8688830e+02   2.0679690e+02
   2.8737050e+02   2.3788280e+02
   2.8785260e+02   2.8627980e+02
   2.8833470e+02   3.5206760e+02
   2.8881680e+02   4.2239500e+02
   2.8929890e+02   4.9140820e+02
   2.8978100e+02   5.5870510e+02
   2.9026320e+02   6.1895830e+02
   2.9074530e+02   6.6860110e+02
   2.9122740e+02   7.1606670e+02
   2.9170950e+02   7.7618210e+02
   2.9219160e+02   8.4813530e+02
   2.9267370e+02   9.2133030e+02
   2.9315590e+02   9.9152150e+02
   2.9363800e+02   1.0575010e+03
   2.9412010e+02   1.1164620e+03
   2.9460220e+02   1.1682060e+03
   2.9508430e+02   1.2133700e+03
   2.9556640e+02   1.2522770e+03
   2.9604860e+02   1.2857580e+03
   2.9653070e+02   1.3171140e+03
   2.9701280e+02   1.3396350e+03
   2.9749490e+02   1.3625970e+03
   2.9797700e+02   1.4052200e+03
   2.9845910e+02   1.4684840e+03
   2.9894130e+02   1.5556200e+03
   2.9942340e+02   1.6677490e+03
   2.9990550e+02   1.8064110e+03
   3.0038760e+02   1.9730400e+03
   3.0086970e+02   2.1680830e+03
   3.0135180e+02   2.3908580e+03
   3.0183400e+02   2.6454390e+03
   3.0231610e+02   2.9353060e+03
   3.0279820e+02   3.2453400e+03
   3.0328030e+02   3.5720100e+03
   3.0376240e+02   3.9092850e+03
   3.0424450e+02   4.2519040e+03
   3.0472670e+02   4.5728100e+03
   3.0520880e+02   4.9024580e+03
   3.0569090e+02   5.2850640e+03
   3.0617300e+02   5.7213750e+03
   3.0665510e+02   6.2012370e+03
   3.0713720e+02   6.7152130e+03
   3.0761940e+02   7.2647100e+03
   3.0810150e+02   7.8419730e+03
   3.0858360e+02   8.4748020e+03
   3.0906570e+02   9.1160570e+03
   3.0954780e+02   9.7603530e+03
   3.1002990e+02   1.0413580e+04
   3.1051200e+02   1.0951540e+04
   3.1099410e+02   1.1364060e+04
   3.1147630e+02   1.1589280e+04
   3.1195840e+02   1.1539870e+04
   3.1244050e+02   1.1088910e+04
   3.1292260e+02   1.0413510e+04
   3.1340470e+02   9.5702950e+03
   3.1388680e+02   8.5480620e+03
   3.1436900e+02   7.5588760e+03
   3.1485110e+02   6.6695560e+03
   3.1533320e+02   5.8842040e+03
   3.1581530e+02   5.2102980e+03
   3.1629740e+02   4.6473530e+03
   3.1677950e+02   4.1879810e+03
   3.1726170e+02   3.8457590e+03
   3.1774380e+02   3.6170550e+03
   3.1822590e+02   3.4527440e+03
   3.1870800e+02   3.3432820e+03
   3.1919010e+02   3.2863220e+03
   3.1967220e+02   3.2797760e+03
   3.2015440e+02   3.3356350e+03
   3.2063650e+02   3.4297730e+03
   3.2111860e+02   3.5631420e+03
   3.2160070e+02   3.7338590e+03
   3.2208280e+02   3.9144250e+03
   3.2256490e+02   4.1247110e+03
   3.2304710e+02   4.3274460e+03
   3.2352920e+02   4.4966270e+03
   3.2401130e+02   4.6800960e+03
   3.2449340e+02   4.7731980e+03
   3.2497550e+02   4.7366780e+03
   3.2545760e+02   4.5828530e+03
   3.2593980e+02   4.3964680e+03
   3.2642190e+02   4.1586080e+03
   3.2690400e+02   3.9078650e+03
   3.2738610e+02   3.6648580e+03
   3.2786820e+02   3.3906010e+03
   3.2835030e+02   3.1721210e+03
   3.2883250e+02   3.0217540e+03
   3.2931460e+02   2.9309900e+03
   3.2979670e+02   2.8630560e+03
   3.3027880e+02   2.8163140e+03
   3.3076090e+02   2.7946650e+03
   3.3124300e+02   2.8002730e+03
   3.3172520e+02   2.8354510e+03
   3.3220730e+02   2.8936690e+03
   3.3268940e+02   2.9800550e+03
   3.3317150e+02   3.0907240e+03
   3.3365360e+02   3.2088360e+03
   3.3413570e+02   3.3293450e+03
   3.3461790e+02   3.4693560e+03
   3.3510000e+02   3.6339670e+03
   3.3558210e+02   3.8160100e+03
   3.3606420e+02   4.0369480e+03
   3.3654630e+02   4.2949750e+03
   3.3702840e+02   4.5949950e+03
   3.3751060e+02   4.9509910e+03
   3.3799270e+02   5.3688140e+03
   3.3847480e+02   5.8201920e+03
   3.3895690e+02   6.2881070e+03
   3.3943900e+02   6.7637830e+03
   3.3992110e+02   7.3199510e+03
   3.4040330e+02   7.9647160e+03
   3.4088540e+02   8.6699610e+03
   3.4136750e+02   9.3724490e+03
   3.4184960e+02   1.0078200e+04
   3.4233170e+02   1.0809410e+04
   3.4281380e+02   1.1573280e+04
   3.4329600e+02   1.2367170e+04
   3.4377810e+02   1.3226130e+04
   3.4426020e+02   1.4142420e+04
   3.4474230e+02   1.5129360e+04
   3.4522440e+02   1.6193860e+04
   3.4570650e+02   1.7334910e+04
   3.4618870e+02   1.8535200e+04
   3.4667080e+02   1.9795540e+04
   3.4715290e+02   2.1112690e+04
   3.4763500e+02   2.2467450e+04
   3.4811710e+02   2.3855780e+04
   3.4859920e+02   2.5217570e+04
   3.4908140e+02   2.6588820e+04
   3.4956350e+02   2.7878720e+04
   3.5004560e+02   2.8876060e+04
   3.5052770e+02   2.9516670e+04
   3.5100980e+02   2.9827730e+04
   3.5149190e+02   2.9824970e+04
   3.5197400e+02   2.9514570e+04
   3.5245610e+02   2.8962450e+04
   3.5293830e+02   2.8049770e+04
   3.5342040e+02   2.6965050e+04
   3.5390250e+02   2.5989330e+04
   3.5438460e+02   2.5150840e+04
   3.5486670e+02   2.4494930e+04
   3.5534880e+02   2.4043650e+04
   3.5583100e+02   2.3806870e+04
   3.5631310e+02   2.3809500e+04
   3.5679520e+02   2.4094860e+04
   3.5727730e+02   2.4615060e+04
   3.5775940e+02   2.5332710e+04
   3.5824150e+02   2.6246210e+04
   3.5872370e+02   2.7343710e+04
   3.5920580e+02   2.8654200e+04
   3.5968790e+02   3.0141880e+04
   3.6017000e+02   3.1741340e+04
   3.6065210e+02   3.3446730e+04
   3.6113420e+02   3.5237050e+04
   3.6161640e+02   3.7110200e+04
   3.6209850e+02   3.9061150e+04
   3.6258060e+02   4.1119260e+04
   3.6306270e+02   4.3371010e+04
   3.6354480e+02   4.5709600e+04
   3.6402690e+02   4.8010590e+04
   3.6450910e+02   5.0258980e+04
   3.6499120e+02   5.2459600e+04
   3.6547330e+02   5.4649870e+04
   3.6595540e+02   5.6849860e+04
   3.6643750e+02   5.8792390e+04
   3.6691960e+02   6.0629210e+04
   3.6740180e+02   6.2088920e+04
   3.6788390e+02   6.2983540e+04
   3.6836600e+02   6.3388590e+04
   3.6884810e+02   6.3117910e+04
   3.6933020e+02   6.2117180e+04
   3.6981230e+02   6.0399230e+04
   3.7029450e+02   5.8170800e+04
   3.7077660e+02   5.5248020e+04
   3.7125870e+02   5.1974840e+04
   3.7174080e+02   4.8490150e+04
   3.7222290e+02   4.4648840e+04
   3.7270500e+02   4.0936990e+04
   3.7318720e+02   3.7303110e+04
   3.7366930e+02   3.3852410e+04
   3.7415140e+02   3.0679620e+04
   3.7463350e+02   2.7774330e+04
   3.7511560e+02   2.5155880e+04
   3.7559770e+02   2.2822750e+04
   3.7607990e+02   2.0784790e+04
   3.7656200e+02   1.8965140e+04
   3.7704410e+02   1.7360080e+04
   3.7752620e+02   1.5950730e+04
   3.7800830e+02   1.4711810e+04
   3.7849040e+02   1.3639970e+04
   3.7897260e+02   1.2699360e+04
   3.7945470e+02   1.1879200e+04
   3.7993680e+02   1.1180520e+04
   3.8041890e+02   1.0563520e+04
   3.8090100e+02   1.0044590e+04
   3.8138310e+02   9.5557290e+03
   3.8186530e+02   9.0444570e+03
   3.8234740e+02   8.5059040e+03
   3.8282950e+02   7.9522880e+03
   3.8331160e+02   7.3611600e+03
   3.8379370e+02   6.7679610e+03
   3.8427580e+02   6.2343130e+03
   3.8475800e+02   5.7598660e+03
   3.8524010e+02   5.3236090e+03
   3.8572220e+02   4.8888700e+03
   3.8620430e+02   4.4735410e+03
   3.8668640e+02   4.1151250e+03
   3.8716850e+02   3.8303370e+03
   3.8765070e+02   3.5849210e+03
   3.8813280e+02   3.3457340e+03
   3.8861490e+02   3.1120150e+03
   3.8909700e+02   2.8951750e+03
   3.8957910e+02   2.6994460e+03
   3.9006120e+02   2.5215480e+03
   3.9054340e+02   2.3630160e+03
   3.9102550e+02   2.2273040e+03
   3.9150760e+02   2.1008170e+03
   3.9198970e+02   1.9701330e+03
   3.9247180e+02   1.8429280e+03
   3.9295390e+02   1.7312690e+03
   3.9343600e+02   1.6515250e+03
   3.9391820e+02   1.5809630e+03
   3.9440030e+02   1.5093890e+03
   3.9488240e+02   1.4364570e+03
   3.9536450e+02   1.3616770e+03
   3.9584660e+02   1.2755050e+03
   3.9632870e+02   1.1913000e+03
   3.9681090e+02   1.1220350e+03
   3.9729300e+02   1.0864210e+03
   3.9777510e+02   1.0495700e+03
   3.9825720e+02   1.0018090e+03
   3.9873930e+02   9.4355660e+02
   3.9922140e+02   8.9266530e+02
   3.9970360e+02   8.5629220e+02
   4.0018570e+02   8.2225950e+02
   4.0066780e+02   7.8313840e+02
   4.0114990e+02   7.2899710e+02
   4.0163200e+02   6.8639580e+02
   4.0211410e+02   6.6200680e+02
   4.0259630e+02   6.4900780e+02
   4.0307840e+02   6.2526320e+02
   4.0356050e+02   5.8370920e+02
   4.0404260e+02   5.4452440e+02
   4.0452470e+02   5.1868380e+02
   4.0500680e+02   5.1041530e+02
   4.0548900e+02   4.9393120e+02
   4.0597110e+02   4.6726680e+02
   4.0645320e+02   4.3505570e+02
   4.0693530e+02   4.0173930e+02
   4.0741740e+02   3.6654470e+02
   4.0789950e+02   3.3709520e+02
   4.0838170e+02   3.1855860e+02
   4.0886380e+02   3.0846630e+02
   4.0934590e+02   2.9237940e+02
   4.0982800e+02   2.6967330e+02
   4.1031010e+02   2.4508860e+02
   4.1079220e+02   2.2604640e+02
   4.1127440e+02   2.1017020e+02
   4.1175650e+02   1.8629760e+02
   4.1223860e+02   1.4715160e+02
   4.1272070e+02   1.0349900e+02
   4.1320280e+02   7.1831050e+01
   4.1368490e+02   5.1048580e+01
   4.1416710e+02   3.6078860e+01
   4.1464920e+02   2.5715820e+01
   4.1513130e+02   1.8084720e+01
   4.1561340e+02   1.1430420e+01
   4.1609550e+02   6.8942870e+00
   4.1657760e+02   1.4169920e+00
   4.1705980e+02   2.3081790e+01
   4.1754190e+02   5.1805420e+01
   4.1802400e+02   7.5342040e+01
   4.1850610e+02   8.4868650e+01
   4.1898820e+02   8.9577150e+01
   4.1947030e+02   9.3779540e+01
   4.1995250e+02   9.7664060e+01
   4.2043460e+02   1.0360820e+02
   4.2091670e+02   1.1303170e+02
   4.2139880e+02   1.2468990e+02
   4.2188090e+02   1.3766040e+02
   4.2236300e+02   1.5621530e+02
   4.2284520e+02   1.7114200e+02
   4.2332730e+02   1.7845970e+02
   4.2380940e+02   1.7894290e+02
   4.2429150e+02   1.8068690e+02
   4.2477360e+02   1.8526620e+02
   4.2525570e+02   1.9056120e+02
   4.2573790e+02   1.9573240e+02
   4.2622000e+02   2.0327500e+02
   4.2670210e+02   2.0663480e+02
   4.2718420e+02   2.0506570e+02
   4.2766630e+02   1.9961830e+02
   4.2814840e+02   1.9246400e+02
   4.2863060e+02   1.8324010e+02
   4.2911270e+02   1.7281080e+02
   4.2959480e+02   1.6024130e+02
   4.3007690e+02   1.4512920e+02
   4.3055900e+02   1.3677810e+02
   4.3104110e+02   1.3821280e+02
   4.3152330e+02   1.4011660e+02
   4.3200540e+02   1.3098950e+02
   4.3248750e+02   1.1047410e+02
   4.3296960e+02   8.8415770e+01
   4.3345170e+02   6.7908450e+01
   4.3393380e+02   4.7161130e+01
   4.3441590e+02   2.0254150e+01
   4.3489800e+02   1.2857910e+01
   4.3538020e+02   4.7346920e+01
   4.3586230e+02   7.6800290e+01
   4.3634440e+02   1.0499070e+02
   4.3682650e+02   1.4204960e+02
   4.3730860e+02   1.9126810e+02
   4.3779070e+02   2.4516280e+02
   4.3827290e+02   2.9362840e+02
   4.3875500e+02   3.3975270e+02
   4.3923710e+02   3.9203830e+02
   4.3971920e+02   4.5344260e+02
   4.4020130e+02   5.2377490e+02
   4.4068340e+02   6.0604880e+02
   4.4116560e+02   7.0027640e+02
   4.4164770e+02   7.9448850e+02
   4.4212980e+02   8.7576880e+02
   4.4261190e+02   9.5566210e+02
   4.4309400e+02   1.0466180e+03
   4.4357610e+02   1.1585260e+03
   4.4405830e+02   1.2763900e+03
   4.4454040e+02   1.3947050e+03
   4.4502250e+02   1.5135760e+03
   4.4550460e+02   1.6371150e+03
   4.4598670e+02   1.7730860e+03
   4.4646880e+02   1.9092350e+03
   4.4695100e+02   2.0382450e+03
   4.4743310e+02   2.1605910e+03
   4.4791520e+02   2.2768980e+03
   4.4839730e+02   2.3990400e+03
   4.4887940e+02   2.5101670e+03
   4.4936150e+02   2.5883680e+03
   4.4984370e+02   2.6374400e+03
   4.5032580e+02   2.6469060e+03
   4.5080790e+02   2.6154300e+03
   4.5129000e+02   2.5431710e+03
   4.5177210e+02   2.4148880e+03
   4.5225420e+02   2.2165870e+03
   4.5273640e+02   1.9946230e+03
   4.5321850e+02   1.7958150e+03
   4.5370060e+02   1.6224480e+03
   4.5418270e+02   1.4377020e+03
   4.5466480e+02   1.2293510e+03
   4.5514690e+02   1.0146480e+03
   4.5562910e+02   8.3591650e+02
   4.5611120e+02   6.9189310e+02
   4.5659330e+02   5.7299240e+02
   4.5707540e+02   4.8291500e+02
   4.5755750e+02   4.1396090e+02
   4.5803960e+02   3.5219410e+02
   4.5852180e+02   2.9603660e+02
   4.5900390e+02   2.4696240e+02
   4.5948600e+02   2.0606370e+02
   4.5996810e+02   1.7296340e+02
   4.6045020e+02   1.4773070e+02
   4.6093230e+02   1.3494850e+02
   4.6141450e+02   1.2651560e+02
   4.6189660e+02   1.1559160e+02
   4.6237870e+02   1.0286280e+02
   4.6286080e+02   9.3813230e+01
   4.6334290e+02   9.2766360e+01
   4.6382500e+02   9.5403320e+01
   4.6430720e+02   9.8383540e+01
   4.6478930e+02   1.0031620e+02
   4.6527140e+02   1.0382810e+02
   4.6575350e+02   1.1069290e+02
   4.6623560e+02   1.1948510e+02
   4.6671770e+02   1.2716720e+02
   4.6719990e+02   1.2548710e+02
   4.6768200e+02   1.3049340e+02
   4.6816410e+02   1.4885010e+02
   4.6864620e+02   1.8340750e+02
   4.6912830e+02   2.1184690e+02
   4.6961040e+02   2.3189870e+02
   4.7009260e+02   2.4833690e+02
   4.7057470e+02   2.6397880e+02
   4.7105680e+02   2.7553910e+02
   4.7153890e+02   2.9670970e+02
   4.7202100e+02   3.3156760e+02
   4.7250310e+02   3.7626490e+02
   4.7298530e+02   4.1841310e+02
   4.7346740e+02   4.5779640e+02
   4.7394950e+02   4.9641060e+02
   4.7443160e+02   5.2920610e+02
   4.7491370e+02   5.5902690e+02
   4.7539580e+02   6.0894120e+02
   4.7587790e+02   6.8267240e+02
   4.7636000e+02   7.6841260e+02
   4.7684220e+02   8.5251510e+02
   4.7732430e+02   9.3658860e+02
   4.7780640e+02   1.0239430e+03
   4.7828850e+02   1.1075860e+03
   4.7877060e+02   1.2003290e+03
   4.7925270e+02   1.3185540e+03
   4.7973490e+02   1.4600250e+03
   4.8021700e+02   1.6118120e+03
   4.8069910e+02   1.7655440e+03
   4.8118120e+02   1.9254730e+03
   4.8166330e+02   2.0923370e+03
   4.8214540e+02   2.2600490e+03
   4.8262760e+02   2.4505370e+03
   4.8310970e+02   2.6815580e+03
   4.8359180e+02   2.9375980e+03
   4.8407390e+02   3.1938110e+03
   4.8455600e+02   3.4203820e+03
   4.8503810e+02   3.6677740e+03
   4.8552030e+02   3.9545100e+03
   4.8600240e+02   4.2853910e+03
   4.8648450e+02   4.6091540e+03
   4.8696660e+02   4.9100890e+03
   4.8744870e+02   5.2178540e+03
   4.8793080e+02   5.5593430e+03
   4.8841300e+02   5.9629090e+03
   4.8889510e+02   6.3371700e+03
   4.8937720e+02   6.6853550e+03
   4.8985930e+02   7.0042070e+03
   4.9034140e+02   7.2900330e+03
   4.9082350e+02   7.5534440e+03
   4.9130570e+02   7.7397920e+03
   4.9178780e+02   7.8272810e+03
   4.9226990e+02   7.8181360e+03
   4.9275200e+02   7.7080760e+03
   4.9323410e+02   7.4923270e+03
   4.9371620e+02   7.2130380e+03
   4.9419840e+02   6.8958180e+03
   4.9468050e+02   6.5481370e+03
   4.9516260e+02   6.2005630e+03
   4.9564470e+02   5.8475160e+03
   4.9612680e+02   5.5117110e+03
   4.9660890e+02   5.1993510e+03
   4.9709110e+02   4.9169840e+03
   4.9757320e+02   4.6748660e+03
   4.9805530e+02   4.4701720e+03
   4.9853740e+02   4.3167180e+03
   4.9901950e+02   4.2319540e+03
   4.9950160e+02   4.2203040e+03
   4.9998380e+02   4.2519920e+03
   5.0046590e+02   4.3069200e+03
   5.0094800e+02   4.4023250e+03
   5.0143010e+02   4.5560620e+03
   5.0191220e+02   4.7835200e+03
   5.0239430e+02   5.0555940e+03
   5.0287650e+02   5.3646740e+03
   5.0335860e+02   5.7139030e+03
   5.0384070e+02   6.1119280e+03
   5.0432280e+02   6.5534200e+03
   5.0480490e+02   7.0498490e+03
   5.0528700e+02   7.6029390e+03
   5.0576920e+02   8.2060170e+03
   5.0625130e+02   8.8869690e+03
   5.0673340e+02   9.6459510e+03
   5.0721550e+02   1.0475860e+04
   5.0769760e+02   1.1359490e+04
   5.0817970e+02   1.2293400e+04
   5.0866190e+02   1.3328880e+04
   5.0914400e+02   1.4480880e+04
   5.0962610e+02   1.5740070e+04
   5.1010820e+02   1.7094730e+04
   5.1059030e+02   1.8543350e+04
   5.1107240e+02   2.0055470e+04
   5.1155460e+02   2.1688570e+04
   5.1203670e+02   2.3347710e+04
   5.1251880e+02   2.4955810e+04
   5.1300090e+02   2.6551350e+04
   5.1348300e+02   2.7849240e+04
   5.1396510e+02   2.8695050e+04
   5.1444730e+02   2.9074530e+04
   5.1492940e+02   2.8966470e+04
   5.1541150e+02   2.8288980e+04
   5.1589360e+02   2.7187140e+04
   5.1637570e+02   2.5575760e+04
   5.1685780e+02   2.3548640e+04
   5.1734000e+02   2.1486950e+04
   5.1782210e+02   1.9357930e+04
   5.1830420e+02   1.7330810e+04
   5.1878630e+02   1.5483630e+04
   5.1926840e+02   1.3836510e+04
   5.1975050e+02   1.2342420e+04
   5.2023270e+02   1.1027750e+04
   5.2071480e+02   9.8587230e+03
   5.2119690e+02   8.8235870e+03
   5.2167900e+02   7.9348100e+03
   5.2216110e+02   7.1344260e+03
   5.2264320e+02   6.4154640e+03
   5.2312540e+02   5.7739840e+03
   5.2360750e+02   5.2115630e+03
   5.2408960e+02   4.7335270e+03
   5.2457170e+02   4.3119880e+03
   5.2505380e+02   3.9387960e+03
   5.2553590e+02   3.6128410e+03
   5.2601810e+02   3.3100850e+03
   5.2650020e+02   3.0274860e+03
   5.2698230e+02   2.7737630e+03
   5.2746440e+02   2.5596070e+03
   5.2794650e+02   2.3787720e+03
   5.2842860e+02   2.2150450e+03
   5.2891080e+02   2.0653500e+03
   5.2939290e+02   1.9254290e+03
   5.2987500e+02   1.7915110e+03
   5.3035710e+02   1.6641510e+03
   5.3083920e+02   1.5508590e+03
   5.3132140e+02   1.4550550e+03
   5.3180350e+02   1.3734300e+03
   5.3228560e+02   1.3026800e+03
   5.3276770e+02   1.2428910e+03
   5.3324980e+02   1.1919570e+03
   5.3373190e+02   1.1502030e+03
   5.3421410e+02   1.1165480e+03
   5.3469620e+02   1.0893100e+03
   5.3517830e+02   1.0718410e+03
   5.3566040e+02   1.0560860e+03
   5.3614250e+02   1.0399810e+03
   5.3662460e+02   1.0248120e+03
   5.3710670e+02   1.0140010e+03
   5.3758880e+02   1.0063030e+03
   5.3807090e+02   1.0081370e+03
   5.3855300e+02   1.0238860e+03
   5.3903520e+02   1.0528480e+03
   5.3951730e+02   1.0821690e+03
   5.3999940e+02   1.1112870e+03
   5.4048150e+02   1.1420320e+03
   5.4096360e+02   1.1753440e+03
   5.4144570e+02   1.2121860e+03
   5.4192790e+02   1.2528900e+03
   5.4241000e+02   1.2946240e+03
   5.4289210e+02   1.3429140e+03
   5.4337420e+02   1.4079660e+03
   5.4385630e+02   1.4853150e+03
   5.4433840e+02   1.5607560e+03
   5.4482060e+02   1.6195790e+03
   5.4530270e+02   1.6792230e+03
   5.4578480e+02   1.7523260e+03
   5.4626690e+02   1.8405260e+03
   5.4674900e+02   1.9323260e+03
   5.4723110e+02   2.0235220e+03
   5.4771330e+02   2.1157840e+03
   5.4819540e+02   2.2125700e+03
   5.4867750e+02   2.3182190e+03
   5.4915960e+02   2.4238940e+03
   5.4964170e+02   2.5383450e+03
   5.5012380e+02   2.6497210e+03
   5.5060600e+02   2.7358480e+03
   5.5108810e+02   2.8012210e+03
   5.5157020e+02   2.8314800e+03
   5.5205230e+02   2.8211930e+03
   5.5253440e+02   2.7719440e+03
   5.5301650e+02   2.6994070e+03
   5.5349870e+02   2.6048640e+03
   5.5398080e+02   2.4814890e+03
   5.5446290e+02   2.3096220e+03
   5.5494500e+02   2.0994230e+03
   5.5542710e+02   1.8970960e+03
   5.5590920e+02   1.7089390e+03
   5.5639140e+02   1.5353160e+03
   5.5687350e+02   1.3825990e+03
   5.5735560e+02   1.2472010e+03
   5.5783770e+02   1.1221910e+03
   5.5831980e+02   1.0036220e+03
   5.5880190e+02   8.9433720e+02
   5.5928410e+02   7.9967290e+02
   5.5976620e+02   7.1915190e+02
   5.6024830e+02   6.4461160e+02
   5.6073040e+02   5.6719870e+02
   5.6121250e+02   4.9847660e+02
   5.6169460e+02   4.4585640e+02
   5.6217680e+02   4.1543630e+02
   5.6265890e+02   3.8780050e+02
   5.6314100e+02   3.5960820e+02
   5.6362310e+02   3.3518290e+02
   5.6410520e+02   3.1963130e+02
   5.6458730e+02   3.1277910e+02
   5.6506950e+02   3.1587160e+02
   5.6555160e+02   3.2941990e+02
   5.6603370e+02   3.5007640e+02
   5.6651580e+02   3.6535570e+02
   5.6699790e+02   3.7435720e+02
   5.6748000e+02   3.8983030e+02
   5.6796220e+02   4.2024540e+02
   5.6844430e+02   4.6298440e+02
   5.6892640e+02   5.0800560e+02
   5.6940850e+02   5.5547390e+02
   5.6989060e+02   6.0416700e+02
   5.7037270e+02   6.4973950e+02
   5.7085490e+02   6.9693120e+02
   5.7133700e+02   7.5561130e+02
   5.7181910e+02   8.3074460e+02
   5.7230120e+02   9.1114650e+02
   5.7278330e+02   9.9786450e+02
   5.7326540e+02   1.0833920e+03
   5.7374760e+02   1.1522340e+03
   5.7422970e+02   1.1971340e+03
   5.7471180e+02   1.2280970e+03
   5.7519390e+02   1.2531720e+03
   5.7567600e+02   1.2724320e+03
   5.7615810e+02   1.2601300e+03
   5.7664030e+02   1.2041270e+03
   5.7712240e+02   1.1295210e+03
   5.7760450e+02   1.0477970e+03
   5.7808660e+02   9.5644480e+02
   5.7856870e+02   8.6254390e+02
   5.7905080e+02   7.6431880e+02
   5.7953300e+02   6.6895510e+02
   5.8001510e+02   5.8549630e+02
   5.8049720e+02   5.1423490e+02
   5.8097930e+02   4.4711650e+02
   5.8146140e+02   3.8092750e+02
   5.8194350e+02   3.1867310e+02
   5.8242570e+02   2.7056430e+02
   5.8290780e+02   2.3444630e+02
   5.8338990e+02   2.0129440e+02
   5.8387200e+02   1.6291250e+02
   5.8435410e+02   1.2679480e+02
   5.8483620e+02   1.0114970e+02
   5.8531840e+02   8.6806760e+01
   5.8580050e+02   7.4252560e+01
   5.8628260e+02   5.5946410e+01
   5.8676470e+02   3.9252930e+01
   5.8724680e+02   3.0262570e+01
   5.8772890e+02   3.5724730e+01
   5.8821110e+02   4.0831790e+01
   5.8869320e+02   4.6419680e+01
   5.8917530e+02   4.9593260e+01
   5.8965740e+02   4.4638310e+01
   5.9013950e+02   2.5669070e+01
   5.9062160e+02   1.1792240e+01
   5.9110380e+02   9.5655520e+00
   5.9158590e+02   1.6090450e+01
   5.9206800e+02   1.4316280e+01
   5.9255010e+02   2.8392330e+00
   5.9303220e+02   8.0573730e+00
   5.9351430e+02   8.1529540e+00
   5.9399650e+02   1.5167240e+00
   5.9447860e+02   7.7593990e+00
   5.9496070e+02   2.9416020e+01
   5.9544280e+02   4.8939090e+01
   5.9592490e+02   4.8075810e+01
   5.9640700e+02   3.4702150e+01
   5.9688920e+02   2.0676510e+01
   5.9737130e+02   4.8057860e+00
   5.9785340e+02   3.5476070e+00
   5.9833550e+02   8.9890140e+00
   5.9881760e+02   3.2428100e+01
   5.9929970e+02   4.5672970e+01
   5.9978190e+02   3.2287110e+01
   6.0026400e+02   1.8062990e+01
   6.0074610e+02   1.1361940e+01
   6.0122820e+02   1.2295530e+01
   6.0171030e+02   1.3232420e+01
   6.0219240e+02   1.3678830e+01
   6.0267460e+02   1.5232060e+01
   6.0315670e+02   2.0313600e+01
   6.0363880e+02   3.0836910e+01
   6.0412090e+02   3.0044430e+01
   6.0460300e+02   1.4262820e+01
   6.0508510e+02   3.4436040e+00
   6.0556730e+02   4.2783200e+00
   6.0604940e+02   9.1284180e+00
   6.0653150e+02   1.9725590e+01
   6.0701360e+02   2.3124390e+01
   6.0749570e+02   2.2255620e+01
   6.0797780e+02   1.7711670e+01
   6.0846000e+02   1.1544190e+01
   6.0894210e+02   1.0025510e+01
   6.0942420e+02   1.8560420e+01
   6.0990630e+02   3.1260990e+01
   6.1038840e+02   4.7351440e+01
   6.1087050e+02   6.6647220e+01
   6.1135270e+02   7.8415280e+01
   6.1183480e+02   7.5277830e+01
   6.1231690e+02   6.6915040e+01
   6.1279900e+02   5.8672490e+01
   6.1328110e+02   4.9139160e+01
   6.1376320e+02   4.3794310e+01
   6.1424540e+02   4.5176880e+01
   6.1472750e+02   4.7976440e+01
   6.1520960e+02   4.3660400e+01
   6.1569170e+02   3.0214480e+01
   6.1617380e+02   2.3753420e+01
   6.1665590e+02   2.9909300e+01
   6.1713810e+02   4.2276000e+01
   6.1762020e+02   4.7464600e+01
   6.1810230e+02   4.5699710e+01
   6.1858440e+02   4.1098140e+01
   6.1906650e+02   3.6554930e+01
   6.1954860e+02   3.0330690e+01
   6.2003070e+02   1.5129520e+01
   6.2051280e+02   7.7207030e+00
   6.2099490e+02   1.9888060e+01
   6.2147710e+02   5.1257320e+00
   6.2195920e+02   3.4924800e+01
   6.2244130e+02   4.3188720e+01
   6.2292340e+02   1.7332890e+01
   6.2340550e+02   6.1212160e+00
   6.2388760e+02   2.1337520e+01
   6.2436980e+02   3.0450810e+01
   6.2485190e+02   3.5364750e+01
   6.2533400e+02   3.3413570e+01
   6.2581610e+02   3.2578490e+01
   6.2629820e+02   3.3493900e+01
   6.2678030e+02   3.6226930e+01
   6.2726250e+02   4.1856810e+01
   6.2774460e+02   5.0749510e+01
   6.2822670e+02   5.8118160e+01
   6.2870880e+02   6.0529790e+01
   6.2919090e+02   6.0465210e+01
   6.2967300e+02   6.4315430e+01
   6.3015520e+02   7.1927120e+01
   6.3063730e+02   8.1944700e+01
   6.3111940e+02   9.8665280e+01
   6.3160150e+02   1.1452500e+02
   6.3208360e+02   1.1854920e+02
   6.3256570e+02   1.0660440e+02
   6.3304790e+02   9.9099850e+01
   6.3353000e+02   1.1472900e+02
   6.3401210e+02   1.3519530e+02
   6.3449420e+02   1.4273240e+02
   6.3497630e+02   1.1451440e+02
   6.3545840e+02   9.9171020e+01
   6.3594060e+02   1.0679220e+02
   6.3642270e+02   1.2614450e+02
   6.3690480e+02   1.3503860e+02
   6.3738690e+02   1.3063420e+02
   6.3786900e+02   1.2422270e+02
   6.3835110e+02   1.1755510e+02
   6.3883330e+02   1.1178440e+02
   6.3931540e+02   1.1361470e+02
   6.3979750e+02   1.2306200e+02
   6.4027960e+02   1.3106210e+02
   6.4076170e+02   1.2925130e+02
   6.4124380e+02   1.2288820e+02
   6.4172600e+02   1.2013200e+02
   6.4220810e+02   1.2157060e+02
   6.4269020e+02   1.2651450e+02
   6.4317230e+02   1.4044600e+02
   6.4365440e+02   1.5461870e+02
   6.4413650e+02   1.6022500e+02
   6.4461870e+02   1.5119060e+02
   6.4510080e+02   1.4155900e+02
   6.4558290e+02   1.2869140e+02
   6.4606500e+02   1.1917660e+02
   6.4654710e+02   1.2328710e+02
   6.4702920e+02   1.5447890e+02
   6.4751140e+02   1.7403990e+02
   6.4799350e+02   1.7184890e+02
   6.4847560e+02   1.5548750e+02
   6.4895770e+02   1.4981580e+02
   6.4943980e+02   1.5549160e+02
   6.4992190e+02   1.6309340e+02
   6.5040410e+02   1.6945100e+02
   6.5088620e+02   1.7406780e+02
   6.5136830e+02   1.7560940e+02
   6.5185040e+02   1.7425290e+02
   6.5233250e+02   1.7094380e+02
   6.5281460e+02   1.6235740e+02
   6.5329680e+02   1.5403560e+02
   6.5377890e+02   1.5296280e+02
   6.5426100e+02   1.6148520e+02
   6.5474310e+02   1.7220840e+02
   6.5522520e+02   1.8589070e+02
   6.5570730e+02   1.9823120e+02
   6.5618950e+02   2.0492470e+02
   6.5667160e+02   1.9809880e+02
   6.5715370e+02   1.9543780e+02
   6.5763580e+02   2.0206730e+02
   6.5811790e+02   2.1167440e+02
   6.5860000e+02   2.1028740e+02
   6.5908220e+02   1.9403110e+02
   6.5956430e+02   1.8557230e+02
   6.6004640e+02   1.9452630e+02
   6.6052850e+02   2.1285960e+02
   6.6101060e+02   2.1805330e+02
   6.6149270e+02   2.1126760e+02
   6.6197490e+02   2.0399050e+02
   6.6245700e+02   2.0249140e+02
   6.6293910e+02   2.0497240e+02
   6.6342120e+02   2.0990200e+02
   6.6390330e+02   2.1680380e+02
   6.6438540e+02   2.2341170e+02
   6.6486760e+02   2.3271880e+02
   6.6534970e+02   2.3905520e+02
   6.6583180e+02   2.3725540e+02
   6.6631390e+02   2.2136180e+02
   6.6679600e+02   2.1100720e+02
   6.6727810e+02   2.0766000e+02
   6.6776030e+02   2.0872360e+02
   6.6824240e+02   2.1284940e+02
   6.6872450e+02   2.2190520e+02
   6.6920660e+02   2.2563350e+02
   6.6968870e+02   2.2253830e+02
   6.7017080e+02   2.1641670e+02
   6.7065300e+02   2.1391420e+02
   6.7113510e+02   2.1455930e+02
   6.7161720e+02   2.1371840e+02
   6.7209930e+02   2.0894530e+02
   6.7258140e+02   2.0186000e+02
   6.7306350e+02   1.9249820e+02
   6.7354570e+02   1.8305070e+02
   6.7402780e+02   1.7891560e+02
   6.7450990e+02   1.8973350e+02
   6.7499200e+02   1.9943070e+02
   6.7547410e+02   1.9745100e+02
   6.7595620e+02   1.8311770e+02
   6.7643840e+02   1.7409430e+02
   6.7692050e+02   1.7640190e+02
   6.7740260e+02   1.8129280e+02
   6.7788470e+02   1.8588170e+02
   6.7836680e+02   1.9151870e+02
   6.7884890e+02   1.9133650e+02
   6.7933110e+02   1.8080570e+02
   6.7981320e+02   1.6793680e+02
   6.8029530e+02   1.6397560e+02
   6.8077740e+02   1.6959340e+02
   6.8125950e+02   1.7607460e+02
   6.8174160e+02   1.8160100e+02
   6.8222380e+02   1.8552060e+02
   6.8270590e+02   1.8657930e+02
   6.8318800e+02   1.8543680e+02
   6.8367010e+02   1.8404990e+02
   6.8415220e+02   1.8283220e+02
   6.8463430e+02   1.8208620e+02
   6.8511650e+02   1.8300960e+02
   6.8559860e+02   1.8483240e+02
   6.8608070e+02   1.8494660e+02
   6.8656280e+02   1.8015280e+02
   6.8704490e+02   1.7641210e+02
   6.8752700e+02   1.7533980e+02
   6.8800920e+02   1.7687070e+02
   6.8849130e+02   1.7929990e+02
   6.8897340e+02   1.8232100e+02
   6.8945550e+02   1.8679830e+02
   6.8993760e+02   1.9504500e+02
   6.9041970e+02   2.0574040e+02
   6.9090190e+02   2.1049220e+02
   6.9138400e+02   2.0916270e+02
   6.9186610e+02   2.0827940e+02
   6.9234820e+02   2.1420160e+02
   6.9283030e+02   2.2324800e+02
   6.9331240e+02   2.3071820e+02
   6.9379460e+02   2.3637490e+02
   6.9427670e+02   2.4336350e+02
   6.9475880e+02   2.5066970e+02
   6.9524090e+02   2.5919260e+02
   6.9572300e+02   2.6983640e+02
   6.9620510e+02   2.8836220e+02
   6.9668730e+02   3.0080350e+02
   6.9716940e+02   3.0368160e+02
   6.9765150e+02   3.0355160e+02
   6.9813360e+02   3.1274480e+02
   6.9861570e+02   3.3289030e+02
   6.9909780e+02   3.4972630e+02
   6.9958000e+02   3.5857140e+02
   7.0006210e+02   3.6332370e+02
   7.0054420e+02   3.7211350e+02
   7.0102620e+02   3.8444010e+02
   7.0150840e+02   3.9696730e+02
   7.0199050e+02   4.0639000e+02
   7.0247260e+02   4.1539090e+02
   7.0295470e+02   4.2824510e+02
   7.0343680e+02   4.4383200e+02
   7.0391890e+02   4.5417170e+02
   7.0440110e+02   4.5175050e+02
   7.0488320e+02   4.4849620e+02
   7.0536530e+02   4.4832460e+02
   7.0584740e+02   4.5021450e+02
   7.0632950e+02   4.6165600e+02
   7.0681160e+02   4.8801060e+02
   7.0729380e+02   5.1495150e+02
   7.0777590e+02   5.3215000e+02
   7.0825800e+02   5.3957230e+02
   7.0874010e+02   5.4322070e+02
   7.0922220e+02   5.4303840e+02
   7.0970430e+02   5.4164370e+02
   7.1018650e+02   5.4037370e+02
   7.1066860e+02   5.3964510e+02
   7.1115070e+02   5.4148220e+02
   7.1163280e+02   5.4833490e+02
   7.1211490e+02   5.5486440e+02
   7.1259700e+02   5.5829490e+02
   7.1307920e+02   5.5860250e+02
   7.1356130e+02   5.5576500e+02
   7.1404340e+02   5.4607510e+02
   7.1452550e+02   5.3832030e+02
   7.1500760e+02   5.3413270e+02
   7.1548970e+02   5.3181760e+02
   7.1597190e+02   5.2641180e+02
   7.1645400e+02   5.1519370e+02
   7.1693610e+02   5.1449060e+02
   7.1741820e+02   5.3490080e+02
   7.1790030e+02   5.6650070e+02
   7.1838240e+02   5.7709650e+02
   7.1886460e+02   5.6805980e+02
   7.1934670e+02   5.5704380e+02
   7.1982880e+02   5.5465020e+02
   7.2031090e+02   5.5574070e+02
   7.2079300e+02   5.5436180e+02
   7.2127510e+02   5.5076260e+02
   7.2175730e+02   5.4890420e+02
   7.2223940e+02   5.5195180e+02
   7.2272150e+02   5.5613170e+02
   7.2320360e+02   5.5908690e+02
   7.2368570e+02   5.6011160e+02
   7.2416780e+02   5.6224710e+02
   7.2465000e+02   5.6749180e+02
   7.2513210e+02   5.7108310e+02
   7.2561420e+02   5.6975370e+02
   7.2609630e+02   5.6343220e+02
   7.2657840e+02   5.5340320e+02
   7.2706050e+02   5.3924380e+02
   7.2754270e+02   5.2302480e+02
   7.2802480e+02   5.0574600e+02
   7.2850690e+02   4.8840110e+02
   7.2898900e+02   4.7320620e+02
   7.2947110e+02   4.6155940e+02
   7.2995320e+02   4.4981260e+02
   7.3043540e+02   4.3647100e+02
   7.3091750e+02   4.2117300e+02
   7.3139960e+02   4.0333800e+02
   7.3188170e+02   3.7962260e+02
   7.3236380e+02   3.5778230e+02
   7.3284590e+02   3.3836970e+02
   7.3332810e+02   3.2120440e+02
   7.3381020e+02   3.0643010e+02
   7.3429230e+02   2.9435380e+02
   7.3477440e+02   2.8376960e+02
   7.3525650e+02   2.7548960e+02
   7.3573860e+02   2.6732750e+02
   7.3622080e+02   2.5205320e+02
   7.3670290e+02   2.3112270e+02
   7.3718500e+02   2.1335380e+02
   7.3766710e+02   2.0419400e+02
   7.3814920e+02   2.0004410e+02
   7.3863130e+02   1.9927200e+02
   7.3911350e+02   2.0114670e+02
   7.3959560e+02   2.0220290e+02
   7.4007770e+02   2.0110880e+02
   7.4055980e+02   1.9898460e+02
   7.4104190e+02   1.9639720e+02
   7.4152400e+02   1.9337820e+02
   7.4200620e+02   1.8920360e+02
   7.4248830e+02   1.8415370e+02
   7.4297040e+02   1.7728170e+02
   7.4345250e+02   1.6741430e+02
   7.4393460e+02   1.5474970e+02
   7.4441670e+02   1.4177550e+02
   7.4489890e+02   1.2830510e+02
   7.4538100e+02   1.1710210e+02
   7.4586310e+02   1.1198830e+02
   7.4634520e+02   1.0996240e+02
   7.4682730e+02   1.0726950e+02
   7.4730940e+02   1.0349570e+02
   7.4779160e+02   9.8321110e+01
   7.4827370e+02   8.9464840e+01
   7.4875580e+02   8.0357300e+01
   7.4923790e+02   7.4793580e+01
   7.4972000e+02   8.3460210e+01
   7.5020210e+02   7.6186890e+01
   7.5068430e+02   4.5775020e+01
   7.5116640e+02   8.0758060e+00
   7.5164850e+02   1.9966670e+01
   7.5213060e+02   3.8252200e+01
   7.5261270e+02   4.3177120e+01
   7.5309480e+02   3.0882690e+01
   7.5357700e+02   1.4396360e+01
   7.5405910e+02   1.1968870e+01
   7.5454120e+02   1.9013550e+01
   7.5502330e+02   2.5536380e+01
   7.5550540e+02   2.7002690e+01
   7.5598750e+02   2.8444950e+01
   7.5646970e+02   3.2605470e+01
   7.5695180e+02   3.8721680e+01
   7.5743390e+02   4.5032590e+01
   7.5791600e+02   5.1181520e+01
   7.5839810e+02   5.7862300e+01
   7.5888020e+02   6.6717530e+01
   7.5936240e+02   7.5633790e+01
   7.5984450e+02   7.6869630e+01
   7.6032660e+02   6.9378780e+01
   7.6080870e+02   6.3619020e+01
   7.6129080e+02   6.4273560e+01
   7.6177290e+02   6.8664310e+01
   7.6225510e+02   7.2097780e+01
   7.6273720e+02   7.4594480e+01
   7.6321930e+02   7.6262700e+01
   7.6370140e+02   7.6990600e+01
   7.6418350e+02   7.7014770e+01
   7.6466560e+02   7.6250370e+01
   7.6514780e+02   7.4827150e+01
   7.6562990e+02   7.4216670e+01
   7.6611200e+02   7.4244380e+01
   7.6659410e+02   7.5706670e+01
   7.6707620e+02   8.0361940e+01
   7.6755830e+02   8.8091430e+01
   7.6804050e+02   8.7641110e+01
   7.6852260e+02   7.7629150e+01
   7.6900470e+02   6.8336180e+01
   7.6948680e+02   6.9276250e+01
   7.6996890e+02   7.6244870e+01
   7.7045100e+02   7.7321410e+01
   7.7093320e+02   7.2181150e+01
   7.7141530e+02   6.8025150e+01
   7.7189740e+02   7.6347660e+01
   7.7237950e+02   8.3651370e+01
   7.7286160e+02   7.6033570e+01
   7.7334380e+02   4.6731200e+01
   7.7382590e+02   2.6317990e+01
   7.7430800e+02   2.3903560e+01
   7.7479010e+02   2.7079590e+01
   7.7527220e+02   2.9025270e+01
   7.7575430e+02   3.0165040e+01
   7.7623650e+02   2.7625730e+01
   7.7671860e+02   2.1331910e+01
   7.7720070e+02   1.1251950e+01
   7.7768280e+02   6.3342290e+00
   7.7816490e+02   2.7468140e+01
   7.7864700e+02   4.0383670e+01
   7.7912920e+02   4.1074100e+01
   7.7961130e+02   4.3871090e+01
   7.8009340e+02   6.2707030e+01
   7.8057550e+02   8.8015260e+01
   7.8105760e+02   1.0857540e+02
   7.8153970e+02   1.1559120e+02
   7.8202190e+02   1.2896400e+02
   7.8250400e+02   1.5422720e+02
   7.8298600e+02   1.8326350e+02
   7.8346810e+02   2.0555100e+02
   7.8395030e+02   2.1829460e+02
   7.8443240e+02   2.4178230e+02
   7.8491450e+02   2.8064490e+02
   7.8539660e+02   3.2545610e+02
   7.8587870e+02   3.6109690e+02
   7.8636080e+02   3.9119970e+02
   7.8684300e+02   4.2687830e+02
   7.8732510e+02   4.7152730e+02
   7.8780720e+02   5.2203760e+02
   7.8828930e+02   5.8106340e+02
   7.8877140e+02   6.4370170e+02
   7.8925350e+02   7.0335360e+02
   7.8973570e+02   7.4779270e+02
   7.9021780e+02   8.0219530e+02
   7.9069990e+02   8.7203220e+02
   7.9118200e+02   9.5146240e+02
   7.9166410e+02   1.0309270e+03
   7.9214620e+02   1.1090090e+03
   7.9262840e+02   1.1966540e+03
   7.9311050e+02   1.2973010e+03
   7.9359260e+02   1.4097450e+03
   7.9407470e+02   1.5399170e+03
   7.9455680e+02   1.6823950e+03
   7.9503890e+02   1.8229910e+03
   7.9552110e+02   1.9418280e+03
   7.9600320e+02   2.0700340e+03
   7.9648530e+02   2.2252810e+03
   7.9696740e+02   2.4029250e+03
   7.9744950e+02   2.5937490e+03
   7.9793160e+02   2.7913610e+03
   7.9841380e+02   3.0086980e+03
   7.9889590e+02   3.2467090e+03
   7.9937800e+02   3.5060660e+03
   7.9986010e+02   3.7773880e+03
   8.0034220e+02   4.0594340e+03
   8.0082430e+02   4.3587290e+03
   8.0130650e+02   4.6672390e+03
   8.0178860e+02   4.9997680e+03
   8.0227070e+02   5.3864160e+03
   8.0275280e+02   5.8150200e+03
   8.0323490e+02   6.2644140e+03
   8.0371700e+02   6.7082800e+03
   8.0419920e+02   7.1801010e+03
   8.0468130e+02   7.6899520e+03
   8.0516340e+02   8.2416430e+03
   8.0564550e+02   8.8459040e+03
   8.0612760e+02   9.5181940e+03
   8.0660970e+02   1.0210140e+04
   8.0709190e+02   1.0908120e+04
   8.0757400e+02   1.1621280e+04
   8.0805610e+02   1.2406900e+04
   8.0853820e+02   1.3262590e+04
   8.0902030e+02   1.4157380e+04
   8.0950240e+02   1.5106560e+04
   8.0998460e+02   1.6062980e+04
   8.1046670e+02   1.6988890e+04
   8.1094880e+02   1.7886310e+04
   8.1143090e+02   1.8768500e+04
   8.1191300e+02   1.9706190e+04
   8.1239510e+02   2.0562040e+04
   8.1287730e+02   2.1300710e+04
   8.1335940e+02   2.1922880e+04
   8.1384150e+02   2.2401320e+04
   8.1432360e+02   2.2753170e+04
   8.1480570e+02   2.2892020e+04
   8.1528780e+02   2.2757400e+04
   8.1577000e+02   2.2372610e+04
   8.1625210e+02   2.1811140e+04
   8.1673420e+02   2.1077190e+04
   8.1721630e+02   2.0221460e+04
   8.1769840e+02   1.9241240e+04
   8.1818050e+02   1.8189620e+04
   8.1866270e+02   1.7078370e+04
   8.1914480e+02   1.5910960e+04
   8.1962690e+02   1.4849900e+04
   8.2010900e+02   1.3969490e+04
   8.2059110e+02   1.3177590e+04
   8.2107320e+02   1.2439000e+04
   8.2155540e+02   1.1757760e+04
   8.2203750e+02   1.1181380e+04
   8.2251960e+02   1.0709230e+04
   8.2300170e+02   1.0311260e+04
   8.2348380e+02   9.9635630e+03
   8.2396590e+02   9.6712670e+03
   8.2444810e+02   9.4490920e+03
   8.2493020e+02   9.2943310e+03
   8.2541230e+02   9.2036960e+03
   8.2589440e+02   9.1948560e+03
   8.2637650e+02   9.2306170e+03
   8.2685860e+02   9.2778200e+03
   8.2734080e+02   9.3301440e+03
   8.2782290e+02   9.4729980e+03
   8.2830500e+02   9.7384160e+03
   8.2878710e+02   1.0036770e+04
   8.2926920e+02   1.0315780e+04
   8.2975130e+02   1.0581330e+04
   8.3023350e+02   1.0885530e+04
   8.3071560e+02   1.1231880e+04
   8.3119770e+02   1.1627890e+04
   8.3167980e+02   1.2094620e+04
   8.3216190e+02   1.2603660e+04
   8.3264400e+02   1.3109630e+04
   8.3312620e+02   1.3612640e+04
   8.3360830e+02   1.4166590e+04
   8.3409040e+02   1.4815690e+04
   8.3457250e+02   1.5498350e+04
   8.3505460e+02   1.6180460e+04
   8.3553670e+02   1.6861200e+04
   8.3601890e+02   1.7563330e+04
   8.3650100e+02   1.8301930e+04
   8.3698310e+02   1.9035480e+04
   8.3746520e+02   1.9783170e+04
   8.3794730e+02   2.0504520e+04
   8.3842940e+02   2.1098850e+04
   8.3891160e+02   2.1565400e+04
   8.3939370e+02   2.1946670e+04
   8.3987580e+02   2.2302440e+04
   8.4035790e+02   2.2557350e+04
   8.4084000e+02   2.2664720e+04
   8.4132210e+02   2.2621100e+04
   8.4180430e+02   2.2412270e+04
   8.4228640e+02   2.2012700e+04
   8.4276850e+02   2.1500270e+04
   8.4325060e+02   2.0895540e+04
   8.4373270e+02   2.0202940e+04
   8.4421480e+02   1.9460990e+04
   8.4469700e+02   1.8675400e+04
   8.4517910e+02   1.7862980e+04
   8.4566120e+02   1.7003570e+04
   8.4614330e+02   1.6144880e+04
   8.4662540e+02   1.5344070e+04
   8.4710750e+02   1.4600660e+04
   8.4758970e+02   1.3889430e+04
   8.4807180e+02   1.3170390e+04
   8.4855390e+02   1.2513740e+04
   8.4903600e+02   1.1944240e+04
   8.4951810e+02   1.1462490e+04
   8.5000020e+02   1.1026610e+04
   8.5048240e+02   1.0636860e+04
   8.5096450e+02   1.0293140e+04
   8.5144660e+02   9.9965160e+03
   8.5192870e+02   9.7439850e+03
   8.5241080e+02   9.5395190e+03
   8.5289290e+02   9.3794150e+03
   8.5337510e+02   9.2546210e+03
   8.5385720e+02   9.1524600e+03
   8.5433930e+02   9.0896000e+03
   8.5482140e+02   9.0833680e+03
   8.5530350e+02   9.1314760e+03
   8.5578560e+02   9.2014080e+03
   8.5626780e+02   9.2719060e+03
   8.5674990e+02   9.3921700e+03
   8.5723200e+02   9.5821450e+03
   8.5771410e+02   9.8335850e+03
   8.5819620e+02   1.0112480e+04
   8.5867830e+02   1.0421260e+04
   8.5916050e+02   1.0786760e+04
   8.5964260e+02   1.1231080e+04
   8.6012470e+02   1.1735240e+04
   8.6060680e+02   1.2274600e+04
   8.6108890e+02   1.2854200e+04
   8.6157100e+02   1.3473490e+04
   8.6205320e+02   1.4122810e+04
   8.6253530e+02   1.4833130e+04
   8.6301740e+02   1.5630200e+04
   8.6349950e+02   1.6487090e+04
   8.6398160e+02   1.7353180e+04
   8.6446370e+02   1.8210570e+04
   8.6494590e+02   1.9162620e+04
   8.6542790e+02   2.0246360e+04
   8.6591000e+02   2.1431250e+04
   8.6639220e+02   2.2655110e+04
   8.6687430e+02   2.3921280e+04
   8.6735640e+02   2.5236910e+04
   8.6783850e+02   2.6584290e+04
   8.6832060e+02   2.8002930e+04
   8.6880270e+02   2.9550640e+04
   8.6928490e+02   3.1164690e+04
   8.6976700e+02   3.2710730e+04
   8.7024910e+02   3.4143890e+04
   8.7073120e+02   3.5625010e+04
   8.7121330e+02   3.7221610e+04
   8.7169540e+02   3.8800610e+04
   8.7217760e+02   4.0117970e+04
   8.7265970e+02   4.1164500e+04
   8.7314180e+02   4.1915900e+04
   8.7362390e+02   4.2461680e+04
   8.7410600e+02   4.2545130e+04
   8.7458810e+02   4.1923710e+04
   8.7507030e+02   4.0727750e+04
   8.7555240e+02   3.9163550e+04
   8.7603450e+02   3.7124340e+04
   8.7651660e+02   3.4845290e+04
   8.7699870e+02   3.2239430e+04
   8.7748080e+02   2.9509850e+04
   8.7796300e+02   2.6917180e+04
   8.7844510e+02   2.4452960e+04
   8.7892720e+02   2.2144830e+04
   8.7940930e+02   1.9979670e+04
   8.7989140e+02   1.7982170e+04
   8.8037350e+02   1.6182960e+04
   8.8085570e+02   1.4565280e+04
   8.8133780e+02   1.3109410e+04
   8.8181990e+02   1.1819600e+04
   8.8230200e+02   1.0671350e+04
   8.8278410e+02   9.6756190e+03
   8.8326620e+02   8.7928590e+03
   8.8374840e+02   7.9984310e+03
   8.8423050e+02   7.2951320e+03
   8.8471260e+02   6.6567250e+03
   8.8519470e+02   6.0840770e+03
   8.8567680e+02   5.5671210e+03
   8.8615890e+02   5.1059580e+03
   8.8664110e+02   4.6951010e+03
   8.8712320e+02   4.3264750e+03
   8.8760530e+02   4.0023510e+03
   8.8808740e+02   3.6998090e+03
   8.8856950e+02   3.4052340e+03
   8.8905160e+02   3.1322590e+03
   8.8953380e+02   2.8857580e+03
   8.9001590e+02   2.6688040e+03
   8.9049800e+02   2.4688290e+03
   8.9098010e+02   2.2878420e+03
   8.9146220e+02   2.1242980e+03
   8.9194430e+02   1.9825460e+03
   8.9242650e+02   1.8572660e+03
   8.9290860e+02   1.7288060e+03
   8.9339070e+02   1.5976740e+03
   8.9387280e+02   1.4775950e+03
   8.9435490e+02   1.3800810e+03
   8.9483700e+02   1.2915700e+03
   8.9531920e+02   1.2058110e+03
   8.9580130e+02   1.1215960e+03
   8.9628340e+02   1.0396290e+03
   8.9676550e+02   9.5657450e+02
   8.9724760e+02   8.8289820e+02
   8.9772970e+02   8.2951050e+02
   8.9821190e+02   7.8816160e+02
   8.9869400e+02   7.3065920e+02
   8.9917610e+02   6.5962430e+02
   8.9965820e+02   5.9414280e+02
   9.0014030e+02   5.4586180e+02
   9.0062240e+02   5.0482070e+02
   9.0110460e+02   4.6565590e+02
   9.0158670e+02   4.2808900e+02
   9.0206880e+02   3.9461110e+02
   9.0255090e+02   3.6873930e+02
   9.0303300e+02   3.3939270e+02
   9.0351510e+02   3.0192750e+02
   9.0399730e+02   2.6145670e+02
   9.0447940e+02   2.3332060e+02
   9.0496150e+02   2.1549130e+02
   9.0544360e+02   1.9618430e+02
   9.0592570e+02   1.7041740e+02
   9.0640780e+02   1.4275630e+02
   9.0689000e+02   1.1194950e+02
   9.0737210e+02   8.3062260e+01
   9.0785420e+02   6.4094600e+01
   9.0833630e+02   7.0705200e+01
   9.0881840e+02   6.8326660e+01
   9.0930050e+02   5.2736080e+01
   9.0978270e+02   2.9431030e+01
   9.1026480e+02   1.5891110e+00
   9.1074690e+02   2.9758540e+01
   9.1122900e+02   4.6609010e+01
   9.1171110e+02   4.3793460e+01
   9.1219320e+02   3.7912350e+01
   9.1267540e+02   4.6021610e+01
   9.1315750e+02   6.0316280e+01
   9.1363960e+02   7.1177120e+01
   9.1412170e+02   7.4907230e+01
   9.1460380e+02   8.1338130e+01
   9.1508590e+02   9.7396970e+01
   9.1556810e+02   1.1066960e+02
   9.1605020e+02   1.1086620e+02
   9.1653230e+02   9.7267210e+01
   9.1701440e+02   8.8482540e+01
   9.1749650e+02   8.4808840e+01
   9.1797860e+02   8.2263060e+01
   9.1846080e+02   7.7098140e+01
   9.1894290e+02   7.1574460e+01
   9.1942500e+02   6.8449710e+01
   9.1990710e+02   6.7822390e+01
   9.2038920e+02   6.7908080e+01
   9.2087130e+02   7.1022460e+01
   9.2135350e+02   7.1764530e+01
   9.2183560e+02   6.8600710e+01
   9.2231770e+02   6.1481570e+01
   9.2279980e+02   4.7126590e+01
   9.2328190e+02   2.5087160e+01
   9.2376400e+02   9.8808590e+00
   9.2424620e+02   1.4714110e+01
   9.2472830e+02   2.5726560e+01
   9.2521040e+02   2.4225590e+01
   9.2569250e+02   1.4219970e+01
   9.2617460e+02   7.0335690e+00
   9.2665670e+02   6.6929930e+00
   9.2713890e+02   1.0147710e+01
   9.2762100e+02   2.0077270e+01
   9.2810310e+02   3.1173220e+01
   9.2858520e+02   3.0533690e+01
   9.2906730e+02   1.7030640e+01
   9.2954940e+02   1.0587890e+01
   9.3003160e+02   1.7555050e+01
   9.3051370e+02   2.7898190e+01
   9.3099580e+02   2.6582030e+01
   9.3147790e+02   2.0514160e+01
   9.3196000e+02   2.1810910e+01
   9.3244210e+02   4.1636350e+01
   9.3292430e+02   5.2582640e+01
   9.3340640e+02   3.9510860e+01
   9.3388850e+02   2.2264770e+01
   9.3437060e+02   1.7759400e+01
   9.3485270e+02   2.7647090e+01
   9.3533480e+02   3.4393430e+01
   9.3581700e+02   3.7002080e+01
   9.3629910e+02   3.8348880e+01
   9.3678120e+02   4.2436770e+01
   9.3726330e+02   4.6078740e+01
   9.3774540e+02   4.4080810e+01
   9.3822750e+02   3.5813350e+01
   9.3870970e+02   2.7510740e+01
   9.3919180e+02   2.0020750e+01
   9.3967390e+02   1.4296140e+01
   9.4015600e+02   1.2238400e+01
   9.4063810e+02   1.3027710e+01
   9.4112020e+02   4.9063720e+00
   9.4160240e+02   1.2688230e+01
   9.4208450e+02   2.6814450e+01
   9.4256660e+02   2.5182860e+01
   9.4304870e+02   1.9631230e+01
   9.4353080e+02   2.7678470e+01
   9.4401290e+02   4.4635010e+01
   9.4449510e+02   5.6417360e+01
   9.4497720e+02   5.2003780e+01
   9.4545930e+02   4.9499880e+01
   9.4594140e+02   5.1921020e+01
   9.4642350e+02   5.9206180e+01
   9.4690560e+02   7.3974610e+01
   9.4738770e+02   9.6290890e+01
   9.4786980e+02   1.1100960e+02
   9.4835190e+02   1.1360550e+02
   9.4883400e+02   1.1077940e+02
   9.4931620e+02   1.0621030e+02
   9.4979830e+02   1.0256050e+02
   9.5028040e+02   1.0410830e+02
   9.5076250e+02   1.1468070e+02
   9.5124460e+02   1.2416770e+02
   9.5172670e+02   1.2978710e+02
   9.5220890e+02   1.3545400e+02
   9.5269100e+02   1.4549780e+02
   9.5317310e+02   1.5988220e+02
   9.5365520e+02   1.6905130e+02
   9.5413730e+02   1.7256470e+02
   9.5461940e+02   1.7361990e+02
   9.5510160e+02   1.7158150e+02
   9.5558370e+02   1.7066200e+02
   9.5606580e+02   1.7595520e+02
   9.5654790e+02   1.8764750e+02
   9.5703000e+02   1.9872440e+02
   9.5751210e+02   2.0723100e+02
   9.5799430e+02   2.1610850e+02
   9.5847640e+02   2.2651660e+02
   9.5895850e+02   2.3797390e+02
   9.5944060e+02   2.4780730e+02
   9.5992270e+02   2.5639140e+02
   9.6040480e+02   2.6733670e+02
   9.6088700e+02   2.8608610e+02
   9.6136910e+02   3.0346170e+02
   9.6185120e+02   3.0965360e+02
   9.6233330e+02   3.0957580e+02
   9.6281540e+02   3.1303590e+02
   9.6329750e+02   3.2030680e+02
   9.6377970e+02   3.3467070e+02
   9.6426180e+02   3.6088200e+02
   9.6474390e+02   3.8739280e+02
   9.6522600e+02   3.9394010e+02
   9.6570810e+02   3.8582580e+02
   9.6619020e+02   3.8576330e+02
   9.6667240e+02   3.9815820e+02
   9.6715450e+02   4.1344270e+02
   9.6763660e+02   4.2600050e+02
   9.6811870e+02   4.3732600e+02
   9.6860080e+02   4.4775830e+02
   9.6908290e+02   4.5679250e+02
   9.6956510e+02   4.6963260e+02
   9.7004720e+02   4.8857510e+02
   9.7052930e+02   5.0526480e+02
   9.7101140e+02   5.1174570e+02
   9.7149350e+02   5.1264830e+02
   9.7197560e+02   5.2329030e+02
   9.7245780e+02   5.4203440e+02
   9.7293990e+02   5.6066450e+02
   9.7342200e+02   5.7715700e+02
   9.7390410e+02   5.9134580e+02
   9.7438620e+02   6.0126270e+02
   9.7486830e+02   6.0934110e+02
   9.7535050e+02   6.2247160e+02
   9.7583260e+02   6.4066490e+02
   9.7631470e+02   6.6419210e+02
   9.7679680e+02   6.9360650e+02
   9.7727890e+02   7.2750900e+02
   9.7776100e+02   7.6842050e+02
   9.7824320e+02   8.1125410e+02
   9.7872530e+02   8.4462120e+02
   9.7920740e+02   8.5902470e+02
   9.7968950e+02   8.8144640e+02
   9.8017160e+02   9.2402540e+02
   9.8065370e+02   9.7726220e+02
   9.8113590e+02   1.0347030e+03
   9.8161800e+02   1.0961690e+03
   9.8210010e+02   1.1583920e+03
   9.8258220e+02   1.2206850e+03
   9.8306430e+02   1.2896170e+03
   9.8354640e+02   1.3656200e+03
   9.8402860e+02   1.4540640e+03
   9.8451070e+02   1.5641980e+03
   9.8499280e+02   1.6942490e+03
   9.8547490e+02   1.8282970e+03
   9.8595700e+02   1.9546460e+03
   9.8643910e+02   2.0945010e+03
   9.8692130e+02   2.2533430e+03
   9.8740340e+02   2.4303310e+03
   9.8788550e+02   2.6210570e+03
   9.8836760e+02   2.8263050e+03
   9.8884970e+02   3.0447110e+03
   9.8933180e+02   3.2762510e+03
   9.8981400e+02   3.5172750e+03
   9.9029610e+02   3.7749340e+03
   9.9077820e+02   4.0386030e+03
   9.9126030e+02   4.2871040e+03
   9.9174240e+02   4.5187920e+03
   9.9222450e+02   4.7434070e+03
   9.9270670e+02   4.9704900e+03
   9.9318880e+02   5.1662980e+03
   9.9367090e+02   5.3202120e+03
   9.9415300e+02   5.4168300e+03
   9.9463510e+02   5.4043120e+03
   9.9511720e+02   5.2807090e+03
   9.9559940e+02   5.0611360e+03
   9.9608150e+02   4.7076200e+03
   9.9656360e+02   4.3062520e+03
   9.9704570e+02   3.8940720e+03
   9.9752780e+02   3.4748710e+03
   9.9800990e+02   3.0727260e+03
   9.9849210e+02   2.6787150e+03
   9.9897420e+02   2.3269060e+03
   9.9945630e+02   2.0307760e+03
   9.9993840e+02   1.7819200e+03
   1.0004210e+03   1.5787300e+03
   1.0009030e+03   1.4129650e+03
   1.0013850e+03   1.2626790e+03
   1.0018670e+03   1.1186350e+03
   1.0023490e+03   9.9463910e+02
   1.0028310e+03   8.9836670e+02
   1.0033130e+03   8.1889800e+02
   1.0037950e+03   7.4916630e+02
   1.0042770e+03   6.8892660e+02
   1.0047600e+03   6.3996470e+02
   1.0052420e+03   6.0293130e+02
   1.0057240e+03   5.6423240e+02
   1.0062060e+03   5.0100480e+02
   1.0066880e+03   4.3799800e+02
   1.0071700e+03   4.0260670e+02
   1.0076520e+03   3.9639380e+02
   1.0081340e+03   3.8528570e+02
   1.0086170e+03   3.6298770e+02
   1.0090990e+03   3.3976220e+02
   1.0095810e+03   3.1733070e+02
   1.0100630e+03   2.9706650e+02
   1.0105450e+03   2.8248070e+02
   1.0110270e+03   2.7283500e+02
   1.0115090e+03   2.6573890e+02
   1.0119910e+03   2.6251330e+02
   1.0124730e+03   2.5759970e+02
   1.0129560e+03   2.4553440e+02
   1.0134380e+03   2.3088280e+02
   1.0139200e+03   2.1985380e+02
   1.0144020e+03   2.1356080e+02
   1.0148840e+03   2.0828990e+02
   1.0153660e+03   2.0463370e+02
   1.0158480e+03   1.9839940e+02
   1.0163300e+03   1.8262010e+02
   1.0168130e+03   1.6288390e+02
   1.0172950e+03   1.4729930e+02
   1.0177770e+03   1.3657900e+02
   1.0182590e+03   1.3272130e+02
   1.0187410e+03   1.4608430e+02
   1.0192230e+03   1.5531020e+02
   1.0197050e+03   1.5143730e+02
   1.0201870e+03   1.3855150e+02
   1.0206690e+03   1.3062920e+02
   1.0211520e+03   1.2756240e+02
   1.0216340e+03   1.2663710e+02
   1.0221160e+03   1.2789780e+02
   1.0225980e+03   1.2892070e+02
   1.0230800e+03   1.2798520e+02
   1.0235620e+03   1.2518160e+02
   1.0240440e+03   1.2050420e+02
   1.0245260e+03   1.1255720e+02
   1.0250080e+03   1.0533600e+02
   1.0254910e+03   9.8756100e+01
   1.0259730e+03   9.2819340e+01
   1.0264550e+03   8.7702760e+01
   1.0269370e+03   8.3208440e+01
   1.0274190e+03   7.8944400e+01
   1.0279010e+03   7.4806030e+01
   1.0283830e+03   7.0402220e+01
   1.0288650e+03   6.3438290e+01
   1.0293480e+03   5.8300420e+01
   1.0298300e+03   5.8004880e+01
   1.0303120e+03   6.0920590e+01
   1.0307940e+03   6.3329160e+01
   1.0312760e+03   6.5449280e+01
   1.0317580e+03   6.4207210e+01
   1.0322400e+03   5.7791140e+01
   1.0327220e+03   5.0664180e+01
   1.0332040e+03   4.9399170e+01
   1.0336870e+03   5.0015560e+01
   1.0341690e+03   4.6423030e+01
   1.0346510e+03   3.4080320e+01
   1.0351330e+03   2.6914310e+01
   1.0356150e+03   2.6719420e+01
   1.0360970e+03   3.0109500e+01
   1.0365790e+03   3.7676390e+01
   1.0370610e+03   4.7297730e+01
   1.0375430e+03   4.6355770e+01
   1.0380260e+03   3.6005490e+01
   1.0385080e+03   2.4472470e+01
   1.0389900e+03   1.2467530e+01
   1.0394720e+03   4.5308230e+00
   1.0399540e+03   5.1575930e+00
   1.0404360e+03   1.1105040e+01
   1.0409180e+03   1.4933350e+01
   1.0414000e+03   1.6430480e+01
   1.0418830e+03   1.7046390e+01
   1.0423650e+03   1.7131350e+01
   1.0428470e+03   1.6079770e+01
   1.0433290e+03   1.2054630e+01
   1.0438110e+03   6.9897460e+00
   1.0442930e+03   4.0549930e+00
   1.0447750e+03   4.3431400e+00
   1.0452570e+03   2.2624510e+00
   1.0457400e+03   8.0963750e+00
   1.0462220e+03   1.3713930e+01
   1.0467040e+03   5.9006350e+00
   1.0471860e+03   1.1096130e+01
   1.0476680e+03   1.9875920e+01
   1.0481500e+03   2.0911250e+01
   1.0486320e+03   1.6397640e+01
   1.0491140e+03   8.1286600e-01
   1.0495960e+03   1.2407710e+01
   1.0500780e+03   1.4133180e+01
   1.0505610e+03   9.2463380e+00
   1.0510430e+03   5.7897950e+00
   1.0515250e+03   3.8865360e+00
   1.0520070e+03   3.9749150e+00
   1.0524890e+03   6.7276610e+00
   1.0529710e+03   8.2144170e+00
   1.0534530e+03   3.3831790e+00
   1.0539350e+03   4.4976810e+00
   1.0544180e+03   1.1794800e+01
   1.0549000e+03   1.8044920e+01
   1.0553820e+03   2.1223880e+01
   1.0558640e+03   1.7618770e+01
   1.0563460e+03   1.5199460e+01
   1.0568280e+03   1.7610600e+01
   1.0573100e+03   2.1591370e+01
   1.0577920e+03   1.3839540e+01
   1.0582750e+03   1.2491460e+00
   1.0587570e+03   2.5231320e+00
   1.0592390e+03   2.2989070e+01
   1.0597210e+03   4.7408140e+01
   1.0602030e+03   5.2897520e+01
   1.0606850e+03   4.9603210e+01
   1.0611670e+03   4.6949520e+01
   1.0616490e+03   4.4698490e+01
   1.0621310e+03   4.7060550e+01
   1.0626140e+03   5.4669860e+01
   1.0630960e+03   6.1364750e+01
   1.0635780e+03   5.9766480e+01
   1.0640600e+03   5.6866880e+01
   1.0645420e+03   6.3608400e+01
   1.0650240e+03   7.7171510e+01
   1.0655060e+03   8.6955810e+01
   1.0659880e+03   8.6370910e+01
   1.0664700e+03   8.7386110e+01
   1.0669530e+03   9.1270510e+01
   1.0674350e+03   9.7732420e+01
   1.0679170e+03   1.0823810e+02
   1.0683990e+03   1.2094500e+02
   1.0688810e+03   1.2916360e+02
   1.0693630e+03   1.3146600e+02
   1.0698450e+03   1.3195370e+02
   1.0703270e+03   1.3186690e+02
   1.0708100e+03   1.3151390e+02
   1.0712920e+03   1.2995570e+02
   1.0717740e+03   1.2779590e+02
   1.0722560e+03   1.3154720e+02
   1.0727380e+03   1.4135030e+02
   1.0732200e+03   1.5338490e+02
   1.0737020e+03   1.6863360e+02
   1.0741840e+03   1.8128380e+02
   1.0746660e+03   1.8434190e+02
   1.0751490e+03   1.8078280e+02
   1.0756310e+03   1.7470570e+02
   1.0761130e+03   1.5815500e+02
   1.0765950e+03   1.5737760e+02
   1.0770770e+03   1.7732170e+02
   1.0775590e+03   1.9999350e+02
   1.0780410e+03   2.1052800e+02
   1.0785230e+03   2.1181770e+02
   1.0790050e+03   2.0546700e+02
   1.0794880e+03   1.9412980e+02
   1.0799700e+03   1.9357100e+02
   1.0804520e+03   2.2803250e+02
   1.0809340e+03   2.5296670e+02
   1.0814160e+03   2.4969400e+02
   1.0818980e+03   2.3302900e+02
   1.0823800e+03   2.3495320e+02
   1.0828620e+03   2.5349910e+02
   1.0833440e+03   2.6507790e+02
   1.0838270e+03   2.6413940e+02
   1.0843090e+03   2.6122490e+02
   1.0847910e+03   2.6198780e+02
   1.0852730e+03   2.6657400e+02
   1.0857550e+03   2.7810950e+02
   1.0862370e+03   2.9698370e+02
   1.0867190e+03   3.0290310e+02
   1.0872010e+03   2.9281360e+02
   1.0876840e+03   2.8569700e+02
   1.0881660e+03   2.9317720e+02
   1.0886480e+03   3.0521430e+02
   1.0891300e+03   3.0708790e+02
   1.0896120e+03   3.0248800e+02
   1.0900940e+03   2.9829530e+02
   1.0905760e+03   2.9195890e+02
   1.0910580e+03   2.9473750e+02
   1.0915410e+03   3.1168900e+02
   1.0920230e+03   3.2946450e+02
   1.0925050e+03   3.3452850e+02
   1.0929870e+03   3.3052290e+02
   1.0934690e+03   3.3103480e+02
   1.0939510e+03   3.3598860e+02
   1.0944330e+03   3.4084490e+02
   1.0949150e+03   3.4342520e+02
   1.0953970e+03   3.4487450e+02
   1.0958800e+03   3.4452720e+02
   1.0963620e+03   3.4380790e+02
   1.0968440e+03   3.4672190e+02
   1.0973260e+03   3.5312310e+02
   1.0978080e+03   3.5533400e+02
   1.0982900e+03   3.5178870e+02
   1.0987720e+03   3.4633140e+02
   1.0992540e+03   3.3949800e+02
   1.0997360e+03   3.3438310e+02
   1.1002190e+03   3.3403410e+02
   1.1007010e+03   3.3889390e+02
   1.1011830e+03   3.4624970e+02
   1.1016650e+03   3.5801780e+02
   1.1021470e+03   3.6390100e+02
   1.1026290e+03   3.5891090e+02
   1.1031110e+03   3.4714540e+02
   1.1035930e+03   3.2673840e+02
   1.1040760e+03   3.0596420e+02
   1.1045580e+03   3.0077540e+02
   1.1050400e+03   3.3035560e+02
   1.1055220e+03   3.4526810e+02
   1.1060040e+03   3.3683630e+02
   1.1064860e+03   3.2202220e+02
   1.1069680e+03   3.1286430e+02
   1.1074500e+03   3.0708970e+02
   1.1079320e+03   2.9712900e+02
   1.1084150e+03   2.8476810e+02
   1.1088970e+03   2.7712320e+02
   1.1093790e+03   2.8731010e+02
   1.1098610e+03   2.9124570e+02
   1.1103430e+03   2.7570540e+02
   1.1108250e+03   2.5225930e+02
   1.1113070e+03   2.3743520e+02
   1.1117890e+03   2.3094430e+02
   1.1122710e+03   2.2452320e+02
   1.1127540e+03   2.1719200e+02
   1.1132360e+03   2.1061920e+02
   1.1137180e+03   2.0666870e+02
   1.1142000e+03   2.0343960e+02
   1.1146820e+03   2.0025380e+02
   1.1151640e+03   1.9667490e+02
   1.1156460e+03   1.8983620e+02
   1.1161280e+03   1.7890330e+02
   1.1166110e+03   1.6929380e+02
   1.1170930e+03   1.6299680e+02
   1.1175750e+03   1.5800740e+02
   1.1180570e+03   1.5263520e+02
   1.1185390e+03   1.4652170e+02
   1.1190210e+03   1.3928350e+02
   1.1195030e+03   1.3091720e+02
   1.1199850e+03   1.2085350e+02
   1.1204680e+03   1.0814620e+02
   1.1209500e+03   9.6192810e+01
   1.1214320e+03   8.6334530e+01
   1.1219140e+03   7.8753970e+01
   1.1223960e+03   7.5698000e+01
   1.1228780e+03   7.5260440e+01
   1.1233600e+03   7.2249630e+01
   1.1238420e+03   6.1793700e+01
   1.1243240e+03   5.2313600e+01
   1.1248070e+03   4.3268740e+01
   1.1252890e+03   3.7965330e+01
   1.1257710e+03   4.3566040e+01
   1.1262530e+03   5.6656680e+01
   1.1267350e+03   5.5447570e+01
   1.1272170e+03   4.0417660e+01
   1.1276990e+03   2.6297420e+01
   1.1281810e+03   2.1055730e+01
   1.1286630e+03   1.9744630e+01
   1.1291460e+03   2.2253720e+01
   1.1296280e+03   2.6200620e+01
   1.1301100e+03   2.7843630e+01
   1.1305920e+03   2.7178890e+01
   1.1310740e+03   2.1864990e+01
   1.1315560e+03   1.0792790e+01
   1.1320380e+03   1.4929200e+00
   1.1325200e+03   7.4810800e-01
   1.1330030e+03   3.9876100e+00
   1.1334850e+03   8.4780880e+00
   1.1339670e+03   1.3828000e+01
   1.1344490e+03   1.8286130e+01
   1.1349310e+03   2.2421940e+01
   1.1354130e+03   2.1889040e+01
   1.1358950e+03   1.3910580e+01
   1.1363770e+03   4.0251460e+00
   1.1368590e+03   1.9824220e+00
   1.1373420e+03   5.3621220e+00
   1.1378240e+03   8.1002810e+00
   1.1383060e+03   1.1709410e+01
   1.1387880e+03   8.7585450e+00
   1.1392700e+03   4.2039180e+00
   1.1397520e+03   1.3136470e+01
   1.1402340e+03   6.1230470e+00
   1.1407160e+03   7.1464840e+00
   1.1411980e+03   6.2704470e+00
   1.1416810e+03   3.8223270e+00
   1.1421630e+03   1.1292360e+01
   1.1426450e+03   1.3246830e+01
   1.1431270e+03   9.7136230e+00
   1.1436090e+03   2.8840330e+00
   1.1440910e+03   1.4181880e+01
   1.1445730e+03   1.3284360e+01
   1.1450550e+03   3.6253660e+00
   1.1455380e+03   4.3231200e+00
   1.1460200e+03   1.0252010e+01
   1.1465020e+03   1.3943240e+01
   1.1469840e+03   1.2736940e+01
   1.1474660e+03   1.2709110e+01
   1.1479480e+03   1.6378110e+01
   1.1484300e+03   2.1375790e+01
   1.1489120e+03   2.5071590e+01
   1.1493950e+03   2.7098390e+01
   1.1498770e+03   2.3460880e+01
   1.1503590e+03   1.3576900e+01
   1.1508410e+03   6.4326170e+00
   1.1513230e+03   8.4987790e+00
   1.1518050e+03   1.4553340e+01
   1.1522870e+03   2.2541810e+01
   1.1527690e+03   3.1764160e+01
   1.1532510e+03   4.1475400e+01
   1.1537340e+03   5.1573910e+01
   1.1542160e+03   5.8253850e+01
   1.1546980e+03   6.0648560e+01
   1.1551800e+03   5.9420170e+01
   1.1556620e+03   5.0845460e+01
   1.1561440e+03   4.2027100e+01
   1.1566260e+03   4.0631410e+01
   1.1571080e+03   4.6384220e+01
   1.1575900e+03   4.9354190e+01
   1.1580730e+03   4.9189700e+01
   1.1585550e+03   5.0805110e+01
   1.1590370e+03   5.6763790e+01
   1.1595190e+03   6.4539370e+01
   1.1600010e+03   7.1902280e+01
   1.1604830e+03   7.9129150e+01
   1.1609650e+03   8.7295900e+01
   1.1614470e+03   9.8329470e+01
   1.1619290e+03   1.0288870e+02
   1.1624120e+03   1.0020210e+02
   1.1628940e+03   9.4947140e+01
   1.1633760e+03   8.6693360e+01
   1.1638580e+03   8.0215210e+01
   1.1643400e+03   8.0870910e+01
   1.1648220e+03   8.8696350e+01
   1.1653040e+03   1.0450350e+02
   1.1657860e+03   1.4239230e+02
   1.1662690e+03   1.5943900e+02
   1.1667510e+03   1.4857340e+02
   1.1672330e+03   1.3242940e+02
   1.1677150e+03   1.3175760e+02
   1.1681970e+03   1.4022260e+02
   1.1686790e+03   1.4682150e+02
   1.1691610e+03   1.5193850e+02
   1.1696430e+03   1.6020590e+02
   1.1701250e+03   1.8094180e+02
   1.1706080e+03   1.9186270e+02
   1.1710900e+03   1.8669130e+02
   1.1715720e+03   1.7703070e+02
   1.1720540e+03   1.8092180e+02
   1.1725360e+03   1.9196090e+02
   1.1730180e+03   1.9524850e+02
   1.1735000e+03   1.8949990e+02
   1.1739820e+03   1.8381500e+02
   1.1744640e+03   1.7800270e+02
   1.1749470e+03   1.7802780e+02
   1.1754290e+03   1.8736520e+02
   1.1759110e+03   2.0126150e+02
   1.1763930e+03   2.1245670e+02
   1.1768750e+03   2.2001170e+02
   1.1773570e+03   2.1908390e+02
   1.1778390e+03   2.0721980e+02
   1.1783210e+03   1.9813180e+02
   1.1788040e+03   2.0123160e+02
   1.1792860e+03   2.0450420e+02
   1.1797680e+03   2.0186050e+02
   1.1802500e+03   1.9604460e+02
   1.1807320e+03   1.9786360e+02
   1.1812140e+03   2.0497640e+02
   1.1816960e+03   2.0718590e+02
   1.1821780e+03   1.9876730e+02
   1.1826610e+03   1.9168730e+02
   1.1831430e+03   1.9342380e+02
   1.1836250e+03   1.9677700e+02
   1.1841070e+03   1.9759870e+02
   1.1845890e+03   1.9610890e+02
   1.1850710e+03   1.9284720e+02
   1.1855530e+03   1.8791380e+02
   1.1860350e+03   1.8717170e+02
   1.1865170e+03   1.9895950e+02
   1.1870000e+03   2.0802140e+02
   1.1874820e+03   2.0339560e+02
   1.1879640e+03   1.9586800e+02
   1.1884460e+03   1.9479710e+02
   1.1889280e+03   1.9949220e+02
   1.1894100e+03   2.0601970e+02
   1.1898920e+03   2.1394710e+02
   1.1903740e+03   2.1649730e+02
   1.1908560e+03   2.0564440e+02
   1.1913390e+03   1.9294700e+02
   1.1918210e+03   1.8330620e+02
   1.1923030e+03   1.7660080e+02
   1.1927850e+03   1.7247200e+02
   1.1932670e+03   1.7068910e+02
   1.1937490e+03   1.7107980e+02
   1.1942310e+03   1.7374950e+02
   1.1947130e+03   1.7856110e+02
   1.1951960e+03   1.9036230e+02
   1.1956780e+03   1.9910850e+02
   1.1961600e+03   1.9408870e+02
   1.1966420e+03   1.8251460e+02
   1.1971240e+03   1.8127990e+02
   1.1976060e+03   1.9125580e+02
   1.1980880e+03   1.9322890e+02
   1.1985700e+03   1.8473910e+02
   1.1990520e+03   1.7312270e+02
   1.1995350e+03   1.5722970e+02
   1.2000170e+03   1.4686960e+02
   1.2004990e+03   1.5540340e+02
   1.2009810e+03   1.7538400e+02
   1.2014630e+03   1.7967830e+02
   1.2019450e+03   1.6716460e+02
   1.2024270e+03   1.5660090e+02
   1.2029090e+03   1.5147640e+02
   1.2033910e+03   1.4821370e+02
   1.2038740e+03   1.4125720e+02
   1.2043560e+03   1.3695310e+02
   1.2048380e+03   1.4376750e+02
   1.2053200e+03   1.5921030e+02
   1.2058020e+03   1.6809990e+02
   1.2062840e+03   1.7034760e+02
   1.2067660e+03   1.6513920e+02
   1.2072480e+03   1.4947130e+02
   1.2077310e+03   1.3628100e+02
   1.2082130e+03   1.4239580e+02
   1.2086950e+03   1.5342660e+02
   1.2091770e+03   1.5489400e+02
   1.2096590e+03   1.4683620e+02
   1.2101410e+03   1.3843350e+02
   1.2106230e+03   1.2960270e+02
   1.2111050e+03   1.2325480e+02
   1.2115880e+03   1.2087860e+02
   1.2120700e+03   1.2071440e+02
   1.2125520e+03   1.2512150e+02
   1.2130340e+03   1.2816490e+02
   1.2135160e+03   1.2124850e+02
   1.2139980e+03   1.0356270e+02
   1.2144800e+03   9.2569340e+01
   1.2149620e+03   8.8401790e+01
   1.2154440e+03   8.6653320e+01
   1.2159270e+03   8.5861450e+01
   1.2164090e+03   8.5668090e+01
   1.2168910e+03   8.6369450e+01
   1.2173730e+03   8.7226810e+01
   1.2178550e+03   8.8059330e+01
   1.2183370e+03   9.0019470e+01
   1.2188190e+03   8.2007570e+01
   1.2193010e+03   6.3227840e+01
   1.2197830e+03   5.0432620e+01
   1.2202660e+03   6.2491270e+01
   1.2207480e+03   7.4805050e+01
   1.2212300e+03   5.8254640e+01
   1.2217120e+03   3.1896670e+01
   1.2221940e+03   2.5944030e+01
   1.2226760e+03   4.6374760e+01
   1.2231580e+03   5.8563050e+01
   1.2236400e+03   6.1983340e+01
   1.2241230e+03   6.1186950e+01
   1.2246050e+03   5.6116460e+01
   1.2250870e+03   5.1219480e+01
   1.2255690e+03   5.3026980e+01
   1.2260510e+03   5.6106510e+01
   1.2265330e+03   4.8934570e+01
   1.2270150e+03   2.8673280e+01
   1.2274970e+03   2.0884030e+01
   1.2279790e+03   2.7095400e+01
   1.2284620e+03   3.4779970e+01
   1.2289440e+03   3.5462770e+01
   1.2294260e+03   3.3325260e+01
   1.2299080e+03   3.1394470e+01
   1.2303900e+03   2.8737920e+01
   1.2308720e+03   2.2350160e+01
   1.2313540e+03   1.1505490e+01
   1.2318360e+03   7.5227050e+00
   1.2323180e+03   1.1562740e+01
   1.2328010e+03   1.6031980e+01
   1.2332830e+03   1.5062130e+01
   1.2337650e+03   1.2567440e+01
   1.2342470e+03   1.0115300e+01
   1.2347290e+03   8.4834590e+00
   1.2352110e+03   1.0039060e+01
   1.2356930e+03   1.4813600e+01
   1.2361750e+03   1.6227540e+01
   1.2366570e+03   1.3346620e+01
   1.2371400e+03   1.0781430e+01
   1.2376220e+03   1.3318240e+01
   1.2381040e+03   1.6012390e+01
   1.2385860e+03   1.6067690e+01
   1.2390680e+03   1.3906800e+01
   1.2395500e+03   8.7944950e+00
   1.2400320e+03   1.1726070e+00
   1.2405140e+03   1.2485350e+00
   1.2409970e+03   1.1385620e+01
   1.2414790e+03   1.7008480e+01
   1.2419610e+03   4.1870100e-01
   1.2424430e+03   1.5503110e+01
   1.2429250e+03   1.6747560e+01
   1.2434070e+03   8.4628300e+00
   1.2438890e+03   3.1932370e+00
   1.2443710e+03   8.1597900e-01
   1.2448540e+03   1.9259640e+00
   1.2453360e+03   7.3484500e+00
   1.2458180e+03   8.9150390e+00
   1.2463000e+03   3.4641720e+00
   1.2467820e+03   1.5333980e+01
   1.2472640e+03   1.9928830e+01
   1.2477460e+03   1.8668090e+01
   1.2482280e+03   1.3876650e+01
   1.2487100e+03   6.5277710e+00
   1.2491930e+03   9.6814000e-01
   1.2496750e+03   1.9987790e+00
   1.2501570e+03   2.9438480e+00
   1.2506390e+03   2.2503700e-01
   1.2511210e+03   2.3100590e+00
   1.2516030e+03   2.8230590e+00
   1.2520850e+03   2.2391360e+00
   1.2525670e+03   2.3095090e+00
   1.2530490e+03   3.5074460e+00
   1.2535320e+03   7.9227290e+00
   1.2540140e+03   1.6993040e+01
   1.2544960e+03   2.4292850e+01
   1.2549780e+03   2.6354430e+01
   1.2554600e+03   2.8046390e+01
   1.2559420e+03   3.1560120e+01
   1.2564240e+03   3.5608830e+01
   1.2569060e+03   3.6190370e+01
   1.2573890e+03   3.4914000e+01
   1.2578710e+03   3.6398070e+01
   1.2583530e+03   4.3713560e+01
   1.2588350e+03   4.4818910e+01
   1.2593170e+03   3.3360900e+01
   1.2597990e+03   2.4995480e+01
   1.2602810e+03   2.4384460e+01
   1.2607630e+03   2.6945190e+01
   1.2612450e+03   2.8010680e+01
   1.2617280e+03   2.4567810e+01
   1.2622100e+03   2.2812930e+01
   1.2626920e+03   2.6563780e+01
   1.2631740e+03   3.2380490e+01
   1.2636560e+03   4.0399960e+01
   1.2641380e+03   4.2659480e+01
   1.2646200e+03   3.9913940e+01
   1.2651020e+03   3.3872070e+01
   1.2655840e+03   2.6049870e+01
   1.2660670e+03   2.0897090e+01
   1.2665490e+03   2.0722840e+01
   1.2670310e+03   2.7100280e+01
   1.2675130e+03   2.9478820e+01
   1.2679950e+03   2.7256290e+01
   1.2684770e+03   2.2581910e+01
   1.2689590e+03   1.3226070e+01
   1.2694410e+03   5.6507570e+00
   1.2699240e+03   8.7957760e+00
   1.2704060e+03   1.6635990e+01
   1.2708880e+03   2.1613530e+01
   1.2713700e+03   2.3126040e+01
   1.2718520e+03   2.2083310e+01
   1.2723340e+03   1.7844730e+01
   1.2728160e+03   1.6501950e+01
   1.2732980e+03   2.3899110e+01
   1.2737810e+03   2.9426330e+01
   1.2742630e+03   2.7281740e+01
   1.2747450e+03   2.0700010e+01
   1.2752270e+03   1.1826660e+01
   1.2757090e+03   2.5830100e-01
   1.2761910e+03   6.7199998e-02
   1.2766730e+03   9.8521120e+00
   1.2771550e+03   1.0379940e+01
   1.2776370e+03   0.0000000e+00
   1.5000000e+03   0.0000000e+00
