   1.0000000e+02   0.0000000e+00
   1.5592930e+02   0.0000000e+00
   1.5641150e+02   3.3325200e-01
   1.5689360e+02   7.2031250e+00
   1.5737570e+02   2.5074710e+01
   1.5785780e+02   4.0904540e+01
   1.5833990e+02   5.1382320e+01
   1.5882210e+02   5.8504880e+01
   1.5930420e+02   6.1058110e+01
   1.5978630e+02   5.7677250e+01
   1.6026840e+02   5.1650390e+01
   1.6075050e+02   4.4429440e+01
   1.6123260e+02   4.0232910e+01
   1.6171480e+02   2.9874020e+01
   1.6219690e+02   2.1378660e+01
   1.6267900e+02   1.6791020e+01
   1.6316110e+02   1.7491940e+01
   1.6364320e+02   3.6143310e+01
   1.6412530e+02   5.0536620e+01
   1.6460750e+02   4.4322750e+01
   1.6508960e+02   1.6739750e+01
   1.6557170e+02   7.7133790e+00
   1.6605380e+02   1.5976070e+01
   1.6653590e+02   1.2371580e+01
   1.6701800e+02   3.2319340e+00
   1.6750020e+02   1.4594730e+01
   1.6798230e+02   3.3458500e+01
   1.6846440e+02   4.7352540e+01
   1.6894650e+02   5.5431640e+01
   1.6942860e+02   6.1284180e+01
   1.6991070e+02   6.5737790e+01
   1.7039290e+02   6.9740720e+01
   1.7087500e+02   7.5659180e+01
   1.7135710e+02   8.7273440e+01
   1.7183920e+02   1.0012990e+02
   1.7232130e+02   1.0894240e+02
   1.7280340e+02   1.1202050e+02
   1.7328560e+02   1.1388230e+02
   1.7376770e+02   1.1894870e+02
   1.7424980e+02   1.2642330e+02
   1.7473190e+02   1.3333740e+02
   1.7521400e+02   1.3880520e+02
   1.7569610e+02   1.4239600e+02
   1.7617830e+02   1.4348830e+02
   1.7666040e+02   1.4208790e+02
   1.7714250e+02   1.3774510e+02
   1.7762460e+02   1.2412740e+02
   1.7810670e+02   1.0370120e+02
   1.7858880e+02   9.2202150e+01
   1.7907100e+02   1.0692820e+02
   1.7955310e+02   1.3894920e+02
   1.8003520e+02   1.6970260e+02
   1.8051730e+02   1.9809330e+02
   1.8099940e+02   2.1929100e+02
   1.8148150e+02   2.1598930e+02
   1.8196370e+02   1.8919290e+02
   1.8244580e+02   1.6938530e+02
   1.8292790e+02   1.9234720e+02
   1.8341000e+02   2.4673580e+02
   1.8389210e+02   2.9029150e+02
   1.8437420e+02   3.0958250e+02
   1.8485640e+02   3.1100240e+02
   1.8533850e+02   3.0418410e+02
   1.8582060e+02   2.8830130e+02
   1.8630270e+02   2.7488430e+02
   1.8678480e+02   2.7716410e+02
   1.8726690e+02   2.9362790e+02
   1.8774910e+02   3.1265920e+02
   1.8823120e+02   3.3327540e+02
   1.8871330e+02   3.5326610e+02
   1.8919540e+02   3.6268600e+02
   1.8967750e+02   3.5948490e+02
   1.9015960e+02   3.5430420e+02
   1.9064180e+02   3.6008200e+02
   1.9112390e+02   3.7666160e+02
   1.9160600e+02   3.9718120e+02
   1.9208810e+02   4.1914260e+02
   1.9257020e+02   4.4268160e+02
   1.9305240e+02   4.6959960e+02
   1.9353450e+02   5.0041110e+02
   1.9401660e+02   5.3294480e+02
   1.9449870e+02   5.6471190e+02
   1.9498080e+02   5.9595650e+02
   1.9546290e+02   6.2285640e+02
   1.9594510e+02   6.4352780e+02
   1.9642720e+02   6.5833540e+02
   1.9690930e+02   6.6570360e+02
   1.9739140e+02   6.6304000e+02
   1.9787350e+02   6.5693210e+02
   1.9835560e+02   6.5874760e+02
   1.9883780e+02   6.6849510e+02
   1.9931990e+02   6.8561380e+02
   1.9980200e+02   7.1213280e+02
   2.0028410e+02   7.4853960e+02
   2.0076620e+02   7.8372120e+02
   2.0124830e+02   8.1889500e+02
   2.0173050e+02   8.5080080e+02
   2.0221260e+02   8.6762840e+02
   2.0269470e+02   8.6449320e+02
   2.0317680e+02   8.6452150e+02
   2.0365890e+02   8.8788480e+02
   2.0414100e+02   9.4036620e+02
   2.0462320e+02   9.7119140e+02
   2.0510530e+02   9.6881450e+02
   2.0558740e+02   9.4498290e+02
   2.0606950e+02   9.3973000e+02
   2.0655160e+02   9.5770410e+02
   2.0703370e+02   9.8204540e+02
   2.0751590e+02   9.9802880e+02
   2.0799800e+02   9.9950930e+02
   2.0848010e+02   1.0210290e+03
   2.0896220e+02   1.0723990e+03
   2.0944430e+02   1.1469110e+03
   2.0992640e+02   1.2116270e+03
   2.1040860e+02   1.2640940e+03
   2.1089070e+02   1.3119170e+03
   2.1137280e+02   1.3570140e+03
   2.1185490e+02   1.3946380e+03
   2.1233700e+02   1.4494030e+03
   2.1281910e+02   1.5356850e+03
   2.1330130e+02   1.6462710e+03
   2.1378340e+02   1.7180490e+03
   2.1426550e+02   1.7362640e+03
   2.1474760e+02   1.7429890e+03
   2.1522970e+02   1.7760510e+03
   2.1571180e+02   1.8462900e+03
   2.1619400e+02   1.9078300e+03
   2.1667610e+02   1.9513740e+03
   2.1715820e+02   1.9786580e+03
   2.1764030e+02   2.0104120e+03
   2.1812240e+02   2.0453840e+03
   2.1860450e+02   2.0881430e+03
   2.1908670e+02   2.1439630e+03
   2.1956880e+02   2.2163180e+03
   2.2005090e+02   2.2864490e+03
   2.2053300e+02   2.3500350e+03
   2.2101510e+02   2.4087940e+03
   2.2149720e+02   2.4625790e+03
   2.2197940e+02   2.5049700e+03
   2.2246150e+02   2.5489270e+03
   2.2294360e+02   2.6101160e+03
   2.2342570e+02   2.6950520e+03
   2.2390780e+02   2.7850210e+03
   2.2438990e+02   2.8722370e+03
   2.2487210e+02   2.9566710e+03
   2.2535420e+02   3.0667460e+03
   2.2583630e+02   3.2209920e+03
   2.2631840e+02   3.3811830e+03
   2.2680050e+02   3.5031240e+03
   2.2728270e+02   3.5680570e+03
   2.2776480e+02   3.6312920e+03
   2.2824690e+02   3.7097910e+03
   2.2872900e+02   3.8077560e+03
   2.2921110e+02   3.8855380e+03
   2.2969320e+02   3.9411850e+03
   2.3017540e+02   3.9773040e+03
   2.3065750e+02   4.0005480e+03
   2.3113960e+02   4.0248670e+03
   2.3162170e+02   4.0104060e+03
   2.3210380e+02   3.9456680e+03
   2.3258590e+02   3.8278150e+03
   2.3306810e+02   3.6724330e+03
   2.3355020e+02   3.4669440e+03
   2.3403230e+02   3.2338730e+03
   2.3451440e+02   3.0006260e+03
   2.3499650e+02   2.7643290e+03
   2.3547860e+02   2.5352810e+03
   2.3596080e+02   2.3145550e+03
   2.3644290e+02   2.1035420e+03
   2.3692500e+02   1.9059060e+03
   2.3740710e+02   1.7197620e+03
   2.3788920e+02   1.5496290e+03
   2.3837130e+02   1.4043770e+03
   2.3885350e+02   1.2940010e+03
   2.3933560e+02   1.1917040e+03
   2.3981770e+02   1.0873320e+03
   2.4029980e+02   9.7517820e+02
   2.4078190e+02   8.8315920e+02
   2.4126400e+02   8.1662060e+02
   2.4174620e+02   7.6572220e+02
   2.4222830e+02   7.1232570e+02
   2.4271040e+02   6.4980860e+02
   2.4319250e+02   5.9575730e+02
   2.4367460e+02   5.5737110e+02
   2.4415670e+02   5.3943750e+02
   2.4463890e+02   5.2089310e+02
   2.4512100e+02   5.0246830e+02
   2.4560310e+02   4.8304540e+02
   2.4608520e+02   4.5975440e+02
   2.4656730e+02   4.2782960e+02
   2.4704940e+02   4.0027640e+02
   2.4753160e+02   3.8389210e+02
   2.4801370e+02   3.8531150e+02
   2.4849580e+02   3.7370850e+02
   2.4897790e+02   3.3890670e+02
   2.4946000e+02   2.9684520e+02
   2.4994210e+02   2.8012110e+02
   2.5042430e+02   3.0385300e+02
   2.5090640e+02   3.2565770e+02
   2.5138850e+02   3.2881400e+02
   2.5187060e+02   3.0641850e+02
   2.5235270e+02   2.8837110e+02
   2.5283480e+02   2.7616020e+02
   2.5331700e+02   2.6737700e+02
   2.5379910e+02   2.5658740e+02
   2.5428120e+02   2.3985250e+02
   2.5476330e+02   2.2880520e+02
   2.5524540e+02   2.3027050e+02
   2.5572750e+02   2.5025440e+02
   2.5620970e+02   2.5991500e+02
   2.5669180e+02   2.5664550e+02
   2.5717390e+02   2.4468410e+02
   2.5765600e+02   2.3123100e+02
   2.5813810e+02   2.1538180e+02
   2.5862020e+02   1.9979880e+02
   2.5910240e+02   1.8354300e+02
   2.5958450e+02   1.6354440e+02
   2.6006660e+02   1.5704640e+02
   2.6054870e+02   1.6931740e+02
   2.6103080e+02   1.9110500e+02
   2.6151290e+02   2.0798240e+02
   2.6199510e+02   2.2197750e+02
   2.6247720e+02   2.2553420e+02
   2.6295930e+02   2.1039600e+02
   2.6344140e+02   1.6820070e+02
   2.6392350e+02   1.4893510e+02
   2.6440560e+02   1.6094820e+02
   2.6488780e+02   1.8803610e+02
   2.6536990e+02   2.0332910e+02
   2.6585200e+02   2.0622510e+02
   2.6633410e+02   1.9949510e+02
   2.6681620e+02   1.8164360e+02
   2.6729830e+02   1.5030520e+02
   2.6778050e+02   1.2371780e+02
   2.6826260e+02   1.0289360e+02
   2.6874470e+02   8.5900390e+01
   2.6922680e+02   6.8891110e+01
   2.6970890e+02   5.0784670e+01
   2.7019100e+02   3.6615230e+01
   2.7067320e+02   3.0451660e+01
   2.7115530e+02   3.3790040e+01
   2.7163740e+02   2.8321290e+01
   2.7211950e+02   9.4453130e+00
   2.7260160e+02   1.1495120e+01
   2.7308370e+02   1.1971190e+01
   2.7356590e+02   1.3214360e+01
   2.7404800e+02   3.2406250e+01
   2.7453010e+02   3.2299800e+01
   2.7501220e+02   1.2202150e+01
   2.7549430e+02   1.2049320e+01
   2.7597640e+02   4.4422360e+01
   2.7645860e+02   7.3529300e+01
   2.7694070e+02   7.8127930e+01
   2.7742280e+02   5.5256840e+01
   2.7790490e+02   3.4136230e+01
   2.7838700e+02   2.7959960e+01
   2.7886910e+02   3.5893550e+01
   2.7935130e+02   3.8013670e+01
   2.7983340e+02   3.2849120e+01
   2.8031550e+02   2.5654790e+01
   2.8079760e+02   2.2636720e+01
   2.8127980e+02   2.3883300e+01
   2.8176190e+02   2.9372070e+01
   2.8224400e+02   4.3645020e+01
   2.8272610e+02   6.4103520e+01
   2.8320820e+02   6.8469730e+01
   2.8369030e+02   5.3989750e+01
   2.8417250e+02   3.3562990e+01
   2.8465460e+02   2.2945310e+01
   2.8513670e+02   2.1950680e+01
   2.8561880e+02   2.1870610e+01
   2.8610090e+02   2.0102540e+01
   2.8658300e+02   1.6820310e+01
   2.8706520e+02   1.3285160e+01
   2.8754730e+02   9.9213870e+00
   2.8802940e+02   4.3823240e+00
   2.8851150e+02   8.6435550e+00
   2.8899360e+02   2.7947750e+01
   2.8947570e+02   4.2527830e+01
   2.8995790e+02   4.6468750e+01
   2.9044000e+02   4.3715820e+01
   2.9092210e+02   4.5436520e+01
   2.9140420e+02   5.1823730e+01
   2.9188630e+02   6.0247560e+01
   2.9236840e+02   6.7688960e+01
   2.9285060e+02   7.4747070e+01
   2.9333270e+02   8.4745120e+01
   2.9381480e+02   1.0334720e+02
   2.9429690e+02   1.2300000e+02
   2.9477900e+02   1.2542190e+02
   2.9526110e+02   1.1060640e+02
   2.9574330e+02   9.6737300e+01
   2.9622540e+02   1.0233980e+02
   2.9670750e+02   1.2190380e+02
   2.9718960e+02   1.3973190e+02
   2.9767170e+02   1.5370070e+02
   2.9815380e+02   1.6216060e+02
   2.9863600e+02   1.5852540e+02
   2.9911810e+02   1.4392630e+02
   2.9960020e+02   1.3128370e+02
   3.0008230e+02   1.3600730e+02
   3.0056440e+02   1.4910160e+02
   3.0104650e+02   1.5222800e+02
   3.0152870e+02   1.3297850e+02
   3.0201080e+02   1.1137990e+02
   3.0249290e+02   1.1679930e+02
   3.0297500e+02   1.4412550e+02
   3.0345710e+02   1.6331980e+02
   3.0393920e+02   1.3717820e+02
   3.0442140e+02   9.5921880e+01
   3.0490350e+02   8.4042970e+01
   3.0538560e+02   1.2971290e+02
   3.0586770e+02   1.7912740e+02
   3.0634980e+02   1.8024610e+02
   3.0683190e+02   1.4355710e+02
   3.0731410e+02   1.0604000e+02
   3.0779620e+02   8.7616700e+01
   3.0827830e+02   8.0072270e+01
   3.0876040e+02   7.6131350e+01
   3.0924250e+02   7.5845210e+01
   3.0972460e+02   7.5572750e+01
   3.1020680e+02   7.0840330e+01
   3.1068890e+02   6.4058590e+01
   3.1117100e+02   6.1478030e+01
   3.1165310e+02   6.8740230e+01
   3.1213520e+02   7.9764160e+01
   3.1261730e+02   9.0215820e+01
   3.1309950e+02   9.9158200e+01
   3.1358160e+02   1.0762840e+02
   3.1406370e+02   1.1911720e+02
   3.1454580e+02   1.3036520e+02
   3.1502790e+02   1.3543510e+02
   3.1551000e+02   1.2293550e+02
   3.1599220e+02   1.1052640e+02
   3.1647430e+02   1.0877340e+02
   3.1695640e+02   1.2149320e+02
   3.1743850e+02   1.3408450e+02
   3.1792060e+02   1.4713870e+02
   3.1840270e+02   1.5596340e+02
   3.1888490e+02   1.5399610e+02
   3.1936700e+02   1.1754880e+02
   3.1984910e+02   8.9296390e+01
   3.2033120e+02   9.0801760e+01
   3.2081330e+02   1.3022710e+02
   3.2129540e+02   1.5901900e+02
   3.2177760e+02   1.5638820e+02
   3.2225970e+02   1.4313430e+02
   3.2274180e+02   1.4142380e+02
   3.2322390e+02   1.7367920e+02
   3.2370600e+02   1.9856350e+02
   3.2418810e+02   2.0056790e+02
   3.2467030e+02   1.7642240e+02
   3.2515240e+02   1.6641020e+02
   3.2563450e+02   1.8830910e+02
   3.2611660e+02   2.1745650e+02
   3.2659870e+02   2.3415920e+02
   3.2708080e+02   2.2082810e+02
   3.2756300e+02   2.1564310e+02
   3.2804510e+02   2.2583500e+02
   3.2852720e+02   2.5060890e+02
   3.2900930e+02   2.7256980e+02
   3.2949140e+02   2.9342580e+02
   3.2997350e+02   3.0840190e+02
   3.3045570e+02   3.1246830e+02
   3.3093780e+02   2.9263670e+02
   3.3141990e+02   2.9009280e+02
   3.3190200e+02   3.1579930e+02
   3.3238410e+02   3.6126070e+02
   3.3286620e+02   3.8555760e+02
   3.3334840e+02   3.7610600e+02
   3.3383050e+02   3.6167770e+02
   3.3431260e+02   3.5987740e+02
   3.3479470e+02   3.7876510e+02
   3.3527680e+02   3.9159470e+02
   3.3575890e+02   3.9256450e+02
   3.3624110e+02   3.8806490e+02
   3.3672320e+02   3.9750150e+02
   3.3720530e+02   4.2545510e+02
   3.3768740e+02   4.5534030e+02
   3.3816950e+02   4.7809910e+02
   3.3865160e+02   4.9150930e+02
   3.3913380e+02   5.1347120e+02
   3.3961590e+02   5.4659860e+02
   3.4009800e+02   5.8309520e+02
   3.4058010e+02   6.0800780e+02
   3.4106220e+02   6.2146390e+02
   3.4154430e+02   6.3696880e+02
   3.4202650e+02   6.6018410e+02
   3.4250860e+02   6.8994820e+02
   3.4299070e+02   7.2452980e+02
   3.4347280e+02   7.6463480e+02
   3.4395490e+02   8.0521190e+02
   3.4443700e+02   8.3718700e+02
   3.4491920e+02   8.6157130e+02
   3.4540130e+02   8.8995650e+02
   3.4588340e+02   9.2525390e+02
   3.4636550e+02   9.6779540e+02
   3.4684760e+02   1.0190230e+03
   3.4732970e+02   1.0789350e+03
   3.4781190e+02   1.1361880e+03
   3.4829400e+02   1.1755420e+03
   3.4877610e+02   1.2026980e+03
   3.4925820e+02   1.2333130e+03
   3.4974030e+02   1.2717320e+03
   3.5022250e+02   1.3167610e+03
   3.5070460e+02   1.3685900e+03
   3.5118670e+02   1.4270620e+03
   3.5166880e+02   1.4869360e+03
   3.5215090e+02   1.5423320e+03
   3.5263310e+02   1.5974120e+03
   3.5311520e+02   1.6598810e+03
   3.5359730e+02   1.7361310e+03
   3.5407940e+02   1.8113330e+03
   3.5456150e+02   1.8664410e+03
   3.5504360e+02   1.9083610e+03
   3.5552580e+02   1.9581250e+03
   3.5600790e+02   2.0330310e+03
   3.5649000e+02   2.1176510e+03
   3.5697210e+02   2.1985440e+03
   3.5745420e+02   2.2725280e+03
   3.5793630e+02   2.3465960e+03
   3.5841850e+02   2.4230170e+03
   3.5890060e+02   2.5023480e+03
   3.5938270e+02   2.5855580e+03
   3.5986480e+02   2.6829380e+03
   3.6034690e+02   2.7764300e+03
   3.6082900e+02   2.8532690e+03
   3.6131120e+02   2.9098420e+03
   3.6179330e+02   2.9708080e+03
   3.6227540e+02   3.0444420e+03
   3.6275750e+02   3.1269040e+03
   3.6323960e+02   3.2143880e+03
   3.6372170e+02   3.3084110e+03
   3.6420390e+02   3.4037670e+03
   3.6468600e+02   3.5007600e+03
   3.6516810e+02   3.5997570e+03
   3.6565020e+02   3.6934230e+03
   3.6613230e+02   3.7671960e+03
   3.6661440e+02   3.8443850e+03
   3.6709660e+02   3.9416630e+03
   3.6757870e+02   4.0856310e+03
   3.6806080e+02   4.2162060e+03
   3.6854290e+02   4.3240570e+03
   3.6902500e+02   4.4142340e+03
   3.6950710e+02   4.5099690e+03
   3.6998930e+02   4.6159230e+03
   3.7047140e+02   4.7214520e+03
   3.7095350e+02   4.8212710e+03
   3.7143560e+02   4.9111180e+03
   3.7191770e+02   5.0045780e+03
   3.7239980e+02   5.1124870e+03
   3.7288200e+02   5.2189780e+03
   3.7336410e+02   5.2919560e+03
   3.7384620e+02   5.3371300e+03
   3.7432830e+02   5.3338140e+03
   3.7481040e+02   5.2675570e+03
   3.7529250e+02   5.1337450e+03
   3.7577470e+02   4.9872830e+03
   3.7625680e+02   4.8340110e+03
   3.7673890e+02   4.6542550e+03
   3.7722100e+02   4.4089000e+03
   3.7770310e+02   4.0925180e+03
   3.7818520e+02   3.7903650e+03
   3.7866740e+02   3.5298820e+03
   3.7914950e+02   3.3039390e+03
   3.7963160e+02   3.0737750e+03
   3.8011370e+02   2.8415430e+03
   3.8059580e+02   2.6026740e+03
   3.8107790e+02   2.3388850e+03
   3.8156010e+02   2.0588000e+03
   3.8204220e+02   1.8256820e+03
   3.8252430e+02   1.6558830e+03
   3.8300640e+02   1.5295280e+03
   3.8348850e+02   1.4200060e+03
   3.8397060e+02   1.3254190e+03
   3.8445280e+02   1.2391040e+03
   3.8493490e+02   1.1629910e+03
   3.8541700e+02   1.0898170e+03
   3.8589910e+02   1.0016420e+03
   3.8638120e+02   8.8855180e+02
   3.8686330e+02   7.8140330e+02
   3.8734550e+02   7.1653120e+02
   3.8782760e+02   6.7999070e+02
   3.8830970e+02   6.3885400e+02
   3.8879180e+02   5.6108150e+02
   3.8927390e+02   4.8247360e+02
   3.8975600e+02   4.3710990e+02
   3.9023820e+02   4.3043210e+02
   3.9072030e+02   4.2256200e+02
   3.9120240e+02   3.8681250e+02
   3.9168450e+02   3.3990770e+02
   3.9216660e+02   3.0069870e+02
   3.9264870e+02   2.7822660e+02
   3.9313090e+02   2.6226030e+02
   3.9361300e+02   2.5157670e+02
   3.9409510e+02   2.4544290e+02
   3.9457720e+02   2.3745750e+02
   3.9505930e+02   2.3104690e+02
   3.9554140e+02   2.1907420e+02
   3.9602360e+02   1.9701950e+02
   3.9650570e+02   1.4180470e+02
   3.9698780e+02   1.0304930e+02
   3.9746990e+02   9.0744630e+01
   3.9795200e+02   9.9133300e+01
   3.9843410e+02   1.1039010e+02
   3.9891630e+02   1.3496440e+02
   3.9939840e+02   1.5143020e+02
   3.9988050e+02   1.4876900e+02
   4.0036260e+02   1.1437450e+02
   4.0084470e+02   9.9802250e+01
   4.0132680e+02   1.1768260e+02
   4.0180900e+02   1.4606100e+02
   4.0229110e+02   1.5218260e+02
   4.0277320e+02   1.2616110e+02
   4.0325530e+02   1.0360210e+02
   4.0373740e+02   9.5083500e+01
   4.0421950e+02   9.9698240e+01
   4.0470170e+02   1.0180180e+02
   4.0518380e+02   1.0197170e+02
   4.0566590e+02   9.7996580e+01
   4.0614800e+02   8.3143550e+01
   4.0663010e+02   5.6986330e+01
   4.0711220e+02   4.5117680e+01
   4.0759440e+02   5.6442870e+01
   4.0807650e+02   8.0278810e+01
   4.0855860e+02   9.0628420e+01
   4.0904070e+02   8.7779790e+01
   4.0952280e+02   8.2793460e+01
   4.1000490e+02   8.6405760e+01
   4.1048710e+02   9.3614750e+01
   4.1096920e+02   8.7153810e+01
   4.1145130e+02   6.1921880e+01
   4.1193340e+02   3.6537600e+01
   4.1241550e+02   3.5572270e+01
   4.1289760e+02   5.2201660e+01
   4.1337980e+02   6.6521000e+01
   4.1386190e+02   7.0612790e+01
   4.1434400e+02   6.7407230e+01
   4.1482610e+02   5.7546390e+01
   4.1530820e+02   4.1132320e+01
   4.1579030e+02   2.6185060e+01
   4.1627250e+02   1.6089840e+01
   4.1675460e+02   1.2197750e+01
   4.1723670e+02   1.4244140e+01
   4.1771880e+02   3.1009280e+01
   4.1820090e+02   4.2235840e+01
   4.1868300e+02   3.4531740e+01
   4.1916520e+02   1.3238280e+01
   4.1964730e+02   3.5625000e+00
   4.2012940e+02   8.4218750e+00
   4.2061150e+02   8.9291990e+00
   4.2109370e+02   9.2177730e+00
   4.2157580e+02   1.1657710e+01
   4.2205790e+02   8.4233400e+00
   4.2254000e+02   6.8583980e+00
   4.2302210e+02   2.6111820e+01
   4.2350420e+02   3.6629880e+01
   4.2398640e+02   2.3312010e+01
   4.2446850e+02   1.8100100e+01
   4.2495060e+02   3.2688480e+01
   4.2543270e+02   6.9658200e+01
   4.2591480e+02   9.2355470e+01
   4.2639690e+02   9.4428220e+01
   4.2687910e+02   9.0962400e+01
   4.2736120e+02   9.3384770e+01
   4.2784330e+02   1.0336080e+02
   4.2832540e+02   1.1392580e+02
   4.2880750e+02   1.2817530e+02
   4.2928960e+02   1.4280660e+02
   4.2977180e+02   1.4297750e+02
   4.3025390e+02   1.2353910e+02
   4.3073600e+02   1.1142720e+02
   4.3121810e+02   1.2925290e+02
   4.3170020e+02   1.7440770e+02
   4.3218230e+02   2.0785690e+02
   4.3266450e+02   2.2579100e+02
   4.3314660e+02   2.3532420e+02
   4.3362870e+02   2.4049070e+02
   4.3411080e+02   2.4233300e+02
   4.3459290e+02   2.4605910e+02
   4.3507500e+02   2.5226610e+02
   4.3555720e+02   2.6176510e+02
   4.3603930e+02   2.7926860e+02
   4.3652140e+02   3.0424660e+02
   4.3700350e+02   3.2582710e+02
   4.3748560e+02   3.3350490e+02
   4.3796770e+02   3.3296190e+02
   4.3844990e+02   3.3027490e+02
   4.3893200e+02   3.2022610e+02
   4.3941410e+02   3.2001710e+02
   4.3989620e+02   3.5455910e+02
   4.4037830e+02   4.0956790e+02
   4.4086040e+02   4.4910550e+02
   4.4134260e+02   4.3867580e+02
   4.4182470e+02   4.2185160e+02
   4.4230680e+02   4.2252100e+02
   4.4278890e+02   4.4513280e+02
   4.4327100e+02   4.7652200e+02
   4.4375310e+02   5.2885990e+02
   4.4423530e+02   5.8240090e+02
   4.4471740e+02   6.1542190e+02
   4.4519950e+02   5.9538380e+02
   4.4568160e+02   5.8698050e+02
   4.4616370e+02   6.0934620e+02
   4.4664580e+02   6.5854590e+02
   4.4712800e+02   6.9144380e+02
   4.4761010e+02   6.9060790e+02
   4.4809220e+02   6.9143950e+02
   4.4857430e+02   7.1515480e+02
   4.4905640e+02   7.7656980e+02
   4.4953850e+02   8.2664010e+02
   4.5002070e+02   8.6269140e+02
   4.5050280e+02   8.8857620e+02
   4.5098490e+02   9.0853860e+02
   4.5146700e+02   9.2022560e+02
   4.5194910e+02   9.3939400e+02
   4.5243120e+02   9.7735690e+02
   4.5291340e+02   1.0301710e+03
   4.5339550e+02   1.0658480e+03
   4.5387760e+02   1.0826940e+03
   4.5435970e+02   1.0925200e+03
   4.5484180e+02   1.1036670e+03
   4.5532390e+02   1.1176020e+03
   4.5580610e+02   1.1416880e+03
   4.5628820e+02   1.1883200e+03
   4.5677030e+02   1.2293710e+03
   4.5725240e+02   1.2155490e+03
   4.5773450e+02   1.1578880e+03
   4.5821660e+02   1.1008380e+03
   4.5869880e+02   1.0760690e+03
   4.5918090e+02   1.0635030e+03
   4.5966300e+02   1.0439650e+03
   4.6014510e+02   1.0155970e+03
   4.6062720e+02   9.7775240e+02
   4.6110930e+02   9.2406640e+02
   4.6159150e+02   8.6266990e+02
   4.6207360e+02   8.0470310e+02
   4.6255570e+02   7.5342330e+02
   4.6303780e+02   7.0651560e+02
   4.6351990e+02   6.6802730e+02
   4.6400200e+02   6.3608400e+02
   4.6448420e+02   5.9566500e+02
   4.6496630e+02   5.3764010e+02
   4.6544840e+02   4.7514790e+02
   4.6593050e+02   4.1375980e+02
   4.6641260e+02   3.4340820e+02
   4.6689470e+02   2.9129000e+02
   4.6737690e+02   2.6348680e+02
   4.6785900e+02   2.5132670e+02
   4.6834110e+02   2.4305420e+02
   4.6882320e+02   2.4801760e+02
   4.6930530e+02   2.3695260e+02
   4.6978740e+02   1.9402200e+02
   4.7026960e+02   1.2226810e+02
   4.7075170e+02   8.1429690e+01
   4.7123380e+02   7.8558110e+01
   4.7171590e+02   8.5060550e+01
   4.7219800e+02   7.7614260e+01
   4.7268010e+02   5.6409670e+01
   4.7316230e+02   3.1119140e+01
   4.7364440e+02   1.7627000e-01
   4.7412650e+02   2.8879390e+01
   4.7460860e+02   3.6519530e+01
   4.7509070e+02   2.5963870e+01
   4.7557280e+02   1.5729980e+01
   4.7605500e+02   2.0007320e+01
   4.7653710e+02   2.9309570e+01
   4.7701920e+02   2.5199220e+01
   4.7750130e+02   6.8671880e+00
   4.7798340e+02   8.5727540e+00
   4.7846550e+02   2.2983400e+00
   4.7894770e+02   1.3023930e+01
   4.7942980e+02   2.0476560e+01
   4.7991190e+02   8.9887700e+00
   4.8039400e+02   3.9218750e+00
   4.8087610e+02   9.6557620e+00
   4.8135820e+02   9.6093750e+00
   4.8184040e+02   7.6474610e+00
   4.8232250e+02   7.6289060e+00
   4.8280460e+02   3.8183590e+00
   4.8328670e+02   9.8242190e+00
   4.8376880e+02   4.1095700e+01
   4.8425090e+02   5.6831540e+01
   4.8473310e+02   3.7267580e+01
   4.8521520e+02   9.6640630e+00
   4.8569730e+02   3.3447300e-01
   4.8617940e+02   2.7253910e+01
   4.8666150e+02   4.0819340e+01
   4.8714360e+02   2.7393550e+01
   4.8762580e+02   4.9643550e+00
   4.8810790e+02   1.4365720e+01
   4.8859000e+02   8.8916020e+00
   4.8907210e+02   2.7730960e+01
   4.8955420e+02   1.5524900e+01
   4.9003630e+02   2.7618160e+01
   4.9051850e+02   4.8474610e+01
   4.9100060e+02   4.2431640e+01
   4.9148270e+02   2.5624020e+01
   4.9196480e+02   1.6208500e+01
   4.9244700e+02   1.3554200e+01
   4.9292910e+02   1.5243160e+01
   4.9341120e+02   2.1474120e+01
   4.9389330e+02   2.9836430e+01
   4.9437540e+02   4.0119630e+01
   4.9485750e+02   5.1976560e+01
   4.9533970e+02   6.0111330e+01
   4.9582180e+02   5.3954100e+01
   4.9630390e+02   4.3163090e+01
   4.9678600e+02   4.0568850e+01
   4.9726810e+02   5.0689450e+01
   4.9775020e+02   6.1514650e+01
   4.9823240e+02   6.7111330e+01
   4.9871450e+02   6.9446290e+01
   4.9919660e+02   7.1390620e+01
   4.9967870e+02   7.9038090e+01
   5.0016080e+02   8.2320800e+01
   5.0064290e+02   7.2458010e+01
   5.0112510e+02   5.0441410e+01
   5.0160720e+02   4.0321290e+01
   5.0208930e+02   5.6418460e+01
   5.0257140e+02   7.0923830e+01
   5.0305350e+02   7.2034670e+01
   5.0353560e+02   5.3863770e+01
   5.0401780e+02   3.7198730e+01
   5.0449990e+02   1.7422850e+01
   5.0498200e+02   2.6176760e+00
   5.0546410e+02   1.2100590e+01
   5.0594620e+02   5.3467290e+01
   5.0642830e+02   8.1146970e+01
   5.0691050e+02   7.4768070e+01
   5.0739260e+02   4.5614750e+01
   5.0787470e+02   4.4427730e+01
   5.0835680e+02   7.2600590e+01
   5.0883890e+02   1.0148240e+02
   5.0932100e+02   1.0897750e+02
   5.0980320e+02   9.9425780e+01
   5.1028530e+02   8.3894530e+01
   5.1076740e+02   6.1705570e+01
   5.1124950e+02   4.7922850e+01
   5.1173160e+02   6.5206050e+01
   5.1221370e+02   1.0308010e+02
   5.1269590e+02   1.3768160e+02
   5.1317800e+02   1.5072950e+02
   5.1366010e+02   1.6141160e+02
   5.1414220e+02   1.8725540e+02
   5.1462430e+02   2.2601900e+02
   5.1510640e+02   2.5603860e+02
   5.1558860e+02   2.7000730e+02
   5.1607070e+02   2.7116700e+02
   5.1655280e+02   2.5793020e+02
   5.1703490e+02   2.1092530e+02
   5.1751700e+02   1.9213620e+02
   5.1799910e+02   2.2852150e+02
   5.1848130e+02   2.8656250e+02
   5.1896340e+02   3.2572660e+02
   5.1944550e+02   3.3671390e+02
   5.1992760e+02   3.4779150e+02
   5.2040970e+02   3.6451660e+02
   5.2089180e+02   3.8167580e+02
   5.2137400e+02   3.8203860e+02
   5.2185610e+02   3.6039310e+02
   5.2233820e+02   3.4452340e+02
   5.2282030e+02   3.5968160e+02
   5.2330240e+02   4.0317530e+02
   5.2378450e+02   4.2562840e+02
   5.2426670e+02   4.2104300e+02
   5.2474880e+02   4.1203610e+02
   5.2523090e+02   4.3471340e+02
   5.2571300e+02   4.7584420e+02
   5.2619510e+02   4.9217820e+02
   5.2667720e+02   4.4892430e+02
   5.2715940e+02   3.9269580e+02
   5.2764150e+02   3.8054390e+02
   5.2812360e+02   4.0345210e+02
   5.2860570e+02   4.2578860e+02
   5.2908780e+02   4.2418260e+02
   5.2956990e+02   4.1570650e+02
   5.3005210e+02   4.1525680e+02
   5.3053420e+02   4.2864700e+02
   5.3101630e+02   4.3238960e+02
   5.3149840e+02   4.0805960e+02
   5.3198050e+02   3.7375930e+02
   5.3246260e+02   3.5064310e+02
   5.3294480e+02   3.5563280e+02
   5.3342690e+02   3.5696920e+02
   5.3390900e+02   3.4886470e+02
   5.3439110e+02   3.3337110e+02
   5.3487320e+02   3.1954930e+02
   5.3535530e+02   3.0512350e+02
   5.3583750e+02   2.9842870e+02
   5.3631960e+02   3.0783250e+02
   5.3680170e+02   3.3465480e+02
   5.3728380e+02   3.3655620e+02
   5.3776590e+02   3.0918800e+02
   5.3824800e+02   2.7586330e+02
   5.3873020e+02   2.6574610e+02
   5.3921230e+02   2.7416360e+02
   5.3969440e+02   2.6753910e+02
   5.4017650e+02   2.3179740e+02
   5.4065860e+02   1.9036470e+02
   5.4114070e+02   1.7576560e+02
   5.4162290e+02   1.8198290e+02
   5.4210500e+02   1.9178520e+02
   5.4258710e+02   1.9718020e+02
   5.4306920e+02   2.0474410e+02
   5.4355130e+02   2.2692380e+02
   5.4403340e+02   2.6161870e+02
   5.4451560e+02   2.7395850e+02
   5.4499770e+02   2.3079690e+02
   5.4547980e+02   1.7154830e+02
   5.4596190e+02   1.2449660e+02
   5.4644400e+02   8.9531740e+01
   5.4692610e+02   7.1353520e+01
   5.4740830e+02   8.4259770e+01
   5.4789040e+02   1.1541550e+02
   5.4837250e+02   1.3849850e+02
   5.4885460e+02   1.5955080e+02
   5.4933670e+02   1.6186330e+02
   5.4981880e+02   1.3276710e+02
   5.5030100e+02   7.6827150e+01
   5.5078310e+02   4.9083980e+01
   5.5126520e+02   5.7016600e+01
   5.5174730e+02   6.8891600e+01
   5.5222940e+02   5.6554690e+01
   5.5271150e+02   2.3691410e+01
   5.5319370e+02   1.1358400e+01
   5.5367580e+02   2.5826660e+01
   5.5415790e+02   4.8232420e+01
   5.5464000e+02   5.7106930e+01
   5.5512210e+02   5.5327640e+01
   5.5560420e+02   5.0581540e+01
   5.5608640e+02   4.6352050e+01
   5.5656850e+02   3.9668950e+01
   5.5705060e+02   2.3860840e+01
   5.5753270e+02   2.0917970e+00
   5.5801480e+02   1.3648440e+01
   5.5849690e+02   2.0790530e+01
   5.5897910e+02   1.7779300e+01
   5.5946120e+02   2.0541990e+00
   5.5994330e+02   4.6327640e+01
   5.6042540e+02   7.4180180e+01
   5.6090750e+02   6.2933590e+01
   5.6138960e+02   4.0015140e+01
   5.6187180e+02   3.0512700e+01
   5.6235390e+02   5.0260250e+01
   5.6283600e+02   5.4845210e+01
   5.6331810e+02   3.6687500e+01
   5.6380020e+02   6.3671880e+00
   5.6428230e+02   1.4936520e+01
   5.6476450e+02   2.6698730e+01
   5.6524660e+02   3.4647950e+01
   5.6572870e+02   4.1305180e+01
   5.6621080e+02   4.4611330e+01
   5.6669290e+02   3.4737300e+01
   5.6717500e+02   1.1498540e+01
   5.6765720e+02   1.0722170e+01
   5.6813930e+02   2.0658200e+01
   5.6862140e+02   2.0082030e+01
   5.6910350e+02   9.6645510e+00
   5.6958560e+02   1.2661130e+01
   5.7006770e+02   3.1013180e+01
   5.7054990e+02   2.8476070e+01
   5.7103200e+02   1.4948730e+01
   5.7151410e+02   5.8081050e+00
   5.7199620e+02   1.0225590e+01
   5.7247830e+02   1.6564450e+01
   5.7296040e+02   1.8867190e+01
   5.7344260e+02   1.8591310e+01
   5.7392470e+02   2.3479000e+01
   5.7440680e+02   4.2828610e+01
   5.7488890e+02   6.0174320e+01
   5.7537100e+02   6.7812990e+01
   5.7585310e+02   6.2668460e+01
   5.7633530e+02   6.6301270e+01
   5.7681740e+02   8.8361330e+01
   5.7729950e+02   1.0494290e+02
   5.7778160e+02   8.5716310e+01
   5.7826370e+02   2.5723630e+01
   5.7874580e+02   1.5075680e+01
   5.7922800e+02   2.5869140e+01
   5.7971010e+02   1.7771000e+01
   5.8019220e+02   7.0283200e+00
   5.8067430e+02   6.1030270e+00
   5.8115640e+02   2.0189940e+01
   5.8163850e+02   4.4324710e+01
   5.8212070e+02   6.3869140e+01
   5.8260280e+02   4.9535640e+01
   5.8308490e+02   6.5957030e+00
   5.8356700e+02   2.5195310e+01
   5.8404910e+02   4.6972660e+00
   5.8453130e+02   2.5094730e+01
   5.8501340e+02   2.8763670e+01
   5.8549550e+02   7.1992190e+00
   5.8597760e+02   4.2267580e+01
   5.8645970e+02   6.8094730e+01
   5.8694180e+02   8.6817380e+01
   5.8742400e+02   1.0016020e+02
   5.8790610e+02   1.0352440e+02
   5.8838820e+02   1.0980370e+02
   5.8887030e+02   1.2433500e+02
   5.8935240e+02   1.4158690e+02
   5.8983450e+02   1.4160160e+02
   5.9031670e+02   1.1789940e+02
   5.9079880e+02   1.0214060e+02
   5.9128090e+02   1.1131540e+02
   5.9176300e+02   1.4024120e+02
   5.9224510e+02   1.5838480e+02
   5.9272720e+02   1.6496780e+02
   5.9320940e+02   1.7977540e+02
   5.9369150e+02   2.3168550e+02
   5.9417360e+02   3.0102440e+02
   5.9465570e+02   3.4946970e+02
   5.9513780e+02   3.6723340e+02
   5.9561990e+02   3.7477830e+02
   5.9610210e+02   3.8310940e+02
   5.9658420e+02   3.9173440e+02
   5.9706630e+02   4.0002150e+02
   5.9754850e+02   4.0528910e+02
   5.9803060e+02   4.1255860e+02
   5.9851270e+02   4.1882620e+02
   5.9899480e+02   4.2717680e+02
   5.9947690e+02   4.5156640e+02
   5.9995900e+02   5.1366890e+02
   6.0044120e+02   5.6697660e+02
   6.0092330e+02   5.9512400e+02
   6.0140540e+02   5.9700100e+02
   6.0188750e+02   5.9262500e+02
   6.0236960e+02   5.7880570e+02
   6.0285170e+02   5.6654690e+02
   6.0333390e+02   5.6476760e+02
   6.0381600e+02   5.7298630e+02
   6.0429810e+02   5.8774800e+02
   6.0478020e+02   6.0973440e+02
   6.0526230e+02   6.3485940e+02
   6.0574440e+02   6.5902050e+02
   6.0622660e+02   6.8133300e+02
   6.0670870e+02   6.9860350e+02
   6.0719080e+02   7.1018650e+02
   6.0767290e+02   7.1653810e+02
   6.0815500e+02   7.1144730e+02
   6.0863710e+02   6.9981740e+02
   6.0911930e+02   6.9890620e+02
   6.0960140e+02   7.2956250e+02
   6.1008350e+02   7.5978120e+02
   6.1056560e+02   7.7040820e+02
   6.1104770e+02   7.5742770e+02
   6.1152980e+02   7.5422660e+02
   6.1201200e+02   7.6646390e+02
   6.1249410e+02   7.8360160e+02
   6.1297620e+02   7.9987110e+02
   6.1345830e+02   8.1681450e+02
   6.1394040e+02   8.2636130e+02
   6.1442250e+02   8.2682030e+02
   6.1490470e+02   8.2138770e+02
   6.1538680e+02   8.1064160e+02
   6.1586890e+02   7.9575390e+02
   6.1635100e+02   7.9235640e+02
   6.1683310e+02   8.1088960e+02
   6.1731520e+02   8.3770900e+02
   6.1779740e+02   8.4617680e+02
   6.1827950e+02   8.4094630e+02
   6.1876160e+02   8.4579100e+02
   6.1924370e+02   8.9079490e+02
   6.1972580e+02   9.3807520e+02
   6.2020790e+02   9.5655080e+02
   6.2069010e+02   9.4428810e+02
   6.2117220e+02   9.3410550e+02
   6.2165430e+02   9.3509670e+02
   6.2213640e+02   9.4202250e+02
   6.2261850e+02   9.5350590e+02
   6.2310060e+02   9.7699710e+02
   6.2358280e+02   9.8801270e+02
   6.2406490e+02   9.7677440e+02
   6.2454700e+02   9.6325290e+02
   6.2502910e+02   9.7659380e+02
   6.2551120e+02   1.0250560e+03
   6.2599330e+02   1.0508160e+03
   6.2647550e+02   1.0337830e+03
   6.2695760e+02   1.0003240e+03
   6.2743970e+02   1.0148230e+03
   6.2792180e+02   1.0698710e+03
   6.2840390e+02   1.1088470e+03
   6.2888600e+02   1.0804270e+03
   6.2936820e+02   1.0322550e+03
   6.2985030e+02   1.0354890e+03
   6.3033240e+02   1.0835160e+03
   6.3081450e+02   1.1260180e+03
   6.3129660e+02   1.1212790e+03
   6.3177870e+02   1.1084510e+03
   6.3226090e+02   1.1180900e+03
   6.3274300e+02   1.1635780e+03
   6.3322510e+02   1.1957910e+03
   6.3370720e+02   1.1934670e+03
   6.3418930e+02   1.1814530e+03
   6.3467140e+02   1.1814340e+03
   6.3515360e+02   1.2092810e+03
   6.3563570e+02   1.2141790e+03
   6.3611780e+02   1.1819700e+03
   6.3659990e+02   1.1384380e+03
   6.3708200e+02   1.1408290e+03
   6.3756410e+02   1.1912710e+03
   6.3804630e+02   1.2345020e+03
   6.3852840e+02   1.2506820e+03
   6.3901050e+02   1.2501850e+03
   6.3949260e+02   1.2524100e+03
   6.3997470e+02   1.2568350e+03
   6.4045680e+02   1.2614540e+03
   6.4093900e+02   1.2625670e+03
   6.4142110e+02   1.2634140e+03
   6.4190320e+02   1.2715250e+03
   6.4238530e+02   1.2867670e+03
   6.4286740e+02   1.2941720e+03
   6.4334950e+02   1.2885830e+03
   6.4383170e+02   1.2728700e+03
   6.4431380e+02   1.2478520e+03
   6.4479590e+02   1.2003580e+03
   6.4527800e+02   1.1698980e+03
   6.4576010e+02   1.1635040e+03
   6.4624220e+02   1.1680050e+03
   6.4672440e+02   1.1703610e+03
   6.4720650e+02   1.1720340e+03
   6.4768860e+02   1.1618710e+03
   6.4817070e+02   1.1332050e+03
   6.4865280e+02   1.0984460e+03
   6.4913490e+02   1.0846040e+03
   6.4961710e+02   1.0890350e+03
   6.5009920e+02   1.0926750e+03
   6.5058130e+02   1.0799210e+03
   6.5106340e+02   1.0656450e+03
   6.5154550e+02   1.0750290e+03
   6.5202760e+02   1.1026540e+03
   6.5250980e+02   1.1186880e+03
   6.5299190e+02   1.0914080e+03
   6.5347400e+02   1.0598720e+03
   6.5395610e+02   1.0516220e+03
   6.5443820e+02   1.0747570e+03
   6.5492030e+02   1.0875620e+03
   6.5540250e+02   1.0735870e+03
   6.5588460e+02   1.0570200e+03
   6.5636670e+02   1.0556930e+03
   6.5684880e+02   1.0788560e+03
   6.5733090e+02   1.0868280e+03
   6.5781300e+02   1.0714910e+03
   6.5829520e+02   1.0530880e+03
   6.5877730e+02   1.0635960e+03
   6.5925940e+02   1.1006430e+03
   6.5974150e+02   1.1342260e+03
   6.6022360e+02   1.1554200e+03
   6.6070570e+02   1.1715530e+03
   6.6118790e+02   1.1904540e+03
   6.6167000e+02   1.2124160e+03
   6.6215210e+02   1.2380090e+03
   6.6263420e+02   1.2617740e+03
   6.6311630e+02   1.2942220e+03
   6.6359840e+02   1.3478380e+03
   6.6408060e+02   1.4195550e+03
   6.6456270e+02   1.4841500e+03
   6.6504480e+02   1.5297660e+03
   6.6552690e+02   1.5711090e+03
   6.6600900e+02   1.6123660e+03
   6.6649110e+02   1.6516770e+03
   6.6697330e+02   1.7027310e+03
   6.6745540e+02   1.7687390e+03
   6.6793750e+02   1.8401690e+03
   6.6841960e+02   1.9105370e+03
   6.6890170e+02   1.9800960e+03
   6.6938390e+02   2.0440130e+03
   6.6986600e+02   2.0989520e+03
   6.7034810e+02   2.1606150e+03
   6.7083020e+02   2.2523410e+03
   6.7131230e+02   2.3639420e+03
   6.7179440e+02   2.4736650e+03
   6.7227660e+02   2.5720520e+03
   6.7275870e+02   2.6694270e+03
   6.7324080e+02   2.7751620e+03
   6.7372290e+02   2.8847630e+03
   6.7420500e+02   2.9916030e+03
   6.7468710e+02   3.0886970e+03
   6.7516930e+02   3.1882580e+03
   6.7565140e+02   3.2959750e+03
   6.7613350e+02   3.4104780e+03
   6.7661560e+02   3.5225000e+03
   6.7709770e+02   3.6320760e+03
   6.7757980e+02   3.7397020e+03
   6.7806200e+02   3.8467150e+03
   6.7854410e+02   3.9525370e+03
   6.7902620e+02   4.0428380e+03
   6.7950830e+02   4.1184600e+03
   6.7999040e+02   4.1813420e+03
   6.8047250e+02   4.2380850e+03
   6.8095470e+02   4.2813600e+03
   6.8143680e+02   4.2926020e+03
   6.8191890e+02   4.2660580e+03
   6.8240100e+02   4.2392450e+03
   6.8288310e+02   4.2400840e+03
   6.8336520e+02   4.2522500e+03
   6.8384740e+02   4.2587020e+03
   6.8432950e+02   4.2681300e+03
   6.8481160e+02   4.2559820e+03
   6.8529370e+02   4.2087340e+03
   6.8577580e+02   4.1398090e+03
   6.8625790e+02   4.0662740e+03
   6.8674010e+02   3.9889240e+03
   6.8722220e+02   3.9055590e+03
   6.8770430e+02   3.8169600e+03
   6.8818640e+02   3.7224470e+03
   6.8866850e+02   3.6125320e+03
   6.8915060e+02   3.4893710e+03
   6.8963280e+02   3.3826590e+03
   6.9011490e+02   3.3149860e+03
   6.9059700e+02   3.2637770e+03
   6.9107910e+02   3.2010940e+03
   6.9156120e+02   3.1254040e+03
   6.9204330e+02   3.0319440e+03
   6.9252550e+02   2.8890890e+03
   6.9300760e+02   2.7487570e+03
   6.9348970e+02   2.6478540e+03
   6.9397180e+02   2.5932620e+03
   6.9445390e+02   2.5354490e+03
   6.9493600e+02   2.4730620e+03
   6.9541820e+02   2.4009060e+03
   6.9590030e+02   2.3114130e+03
   6.9638240e+02   2.1980330e+03
   6.9686450e+02   2.1024190e+03
   6.9734660e+02   2.0291850e+03
   6.9782870e+02   1.9616770e+03
   6.9831090e+02   1.8823290e+03
   6.9879300e+02   1.7928850e+03
   6.9927510e+02   1.7004740e+03
   6.9975720e+02   1.6050470e+03
   7.0023930e+02   1.5150030e+03
   7.0072140e+02   1.4458350e+03
   7.0120360e+02   1.3870480e+03
   7.0168570e+02   1.3204400e+03
   7.0216780e+02   1.2044240e+03
   7.0264990e+02   1.1205480e+03
   7.0313200e+02   1.1336950e+03
   7.0361410e+02   1.2007290e+03
   7.0409630e+02   1.2106880e+03
   7.0457840e+02   1.1132910e+03
   7.0506050e+02   1.0276600e+03
   7.0554260e+02   9.8093950e+02
   7.0602470e+02   9.6505760e+02
   7.0650680e+02   9.4476460e+02
   7.0698900e+02   9.1887400e+02
   7.0747110e+02   8.9774220e+02
   7.0795320e+02   8.8888870e+02
   7.0843530e+02   8.8835250e+02
   7.0891740e+02   8.8722950e+02
   7.0939950e+02   8.8620610e+02
   7.0988170e+02   8.8687600e+02
   7.1036380e+02   8.8989650e+02
   7.1084590e+02   8.9607810e+02
   7.1132800e+02   9.1078520e+02
   7.1181010e+02   9.3668750e+02
   7.1229220e+02   9.4447460e+02
   7.1277440e+02   9.0554590e+02
   7.1325650e+02   8.6295610e+02
   7.1373860e+02   8.4620210e+02
   7.1422070e+02   8.6548630e+02
   7.1470280e+02   8.8742380e+02
   7.1518490e+02   9.2150590e+02
   7.1566710e+02   9.4120900e+02
   7.1614920e+02   9.0508300e+02
   7.1663130e+02   8.1929980e+02
   7.1711340e+02   7.5371390e+02
   7.1759550e+02   7.2275200e+02
   7.1807760e+02   7.0848630e+02
   7.1855980e+02   6.9579200e+02
   7.1904190e+02   6.8347750e+02
   7.1952400e+02   6.6939650e+02
   7.2000610e+02   6.5543850e+02
   7.2048820e+02   6.3615920e+02
   7.2097030e+02   6.0454200e+02
   7.2145250e+02   5.6594240e+02
   7.2193460e+02   5.3248340e+02
   7.2241670e+02   5.1341210e+02
   7.2289880e+02   4.8846090e+02
   7.2338090e+02   4.4885940e+02
   7.2386300e+02   4.0104690e+02
   7.2434520e+02   3.7637400e+02
   7.2482730e+02   3.7962990e+02
   7.2530940e+02   3.7168460e+02
   7.2579150e+02   3.2401170e+02
   7.2627360e+02   2.5571880e+02
   7.2675570e+02   2.1811040e+02
   7.2723790e+02   2.0819040e+02
   7.2772000e+02   2.0239060e+02
   7.2820210e+02   1.9137110e+02
   7.2868420e+02   1.7387600e+02
   7.2916630e+02   1.4542580e+02
   7.2964840e+02   1.0540620e+02
   7.3013060e+02   7.0234380e+01
   7.3061270e+02   3.9762700e+01
   7.3109480e+02   1.9963870e+01
   7.3157690e+02   1.6014650e+01
   7.3205900e+02   3.4613280e+01
   7.3254110e+02   4.1436520e+01
   7.3302330e+02   3.3691410e+01
   7.3350540e+02   1.9269530e+01
   7.3398750e+02   3.1425780e+00
   7.3446960e+02   1.4307620e+01
   7.3495170e+02   2.5623050e+01
   7.3543380e+02   2.9082030e+01
   7.3591600e+02   3.1937500e+01
   7.3639810e+02   4.4063480e+01
   7.3688020e+02   5.9802730e+01
   7.3736230e+02   6.9460940e+01
   7.3784440e+02   6.7257810e+01
   7.3832660e+02   6.4624020e+01
   7.3880870e+02   7.2767580e+01
   7.3929080e+02   8.0237300e+01
   7.3977290e+02   6.8313480e+01
   7.4025510e+02   8.9189450e+00
   7.4073720e+02   1.7710940e+01
   7.4121930e+02   1.0166990e+01
   7.4170140e+02   6.5040040e+01
   7.4218350e+02   8.8889650e+01
   7.4266560e+02   8.1180660e+01
   7.4314780e+02   6.6853520e+01
   7.4362990e+02   5.3221680e+01
   7.4411200e+02   4.0316410e+01
   7.4459410e+02   2.2895510e+01
   7.4507620e+02   4.2265630e+00
   7.4555830e+02   5.9492190e+00
   7.4604050e+02   5.6543000e-01
   7.4652260e+02   1.3927730e+01
   7.4700470e+02   3.5865230e+01
   7.4748680e+02   6.2455080e+01
   7.4796890e+02   7.2257810e+01
   7.4845100e+02   4.9970700e+01
   7.4893320e+02   2.8181640e+01
   7.4941530e+02   1.8548830e+01
   7.4989740e+02   1.9204100e+01
   7.5037950e+02   9.1250000e+00
   7.5086160e+02   1.2892580e+01
   7.5134380e+02   3.5902340e+01
   7.5182590e+02   5.1582030e+01
   7.5230800e+02   6.3377930e+01
   7.5279010e+02   8.1634770e+01
   7.5327220e+02   1.0602930e+02
   7.5375430e+02   1.2752050e+02
   7.5423650e+02   1.4633980e+02
   7.5471860e+02   1.5546390e+02
   7.5520070e+02   1.4509960e+02
   7.5568280e+02   1.0973240e+02
   7.5616490e+02   8.2170900e+01
   7.5664700e+02   7.0561520e+01
   7.5712920e+02   6.5652340e+01
   7.5761130e+02   6.0371090e+01
   7.5809340e+02   5.1009770e+01
   7.5857550e+02   6.1148440e+01
   7.5905760e+02   9.6138670e+01
   7.5953970e+02   1.3351370e+02
   7.6002190e+02   1.4919140e+02
   7.6050400e+02   1.4796090e+02
   7.6098610e+02   1.4446880e+02
   7.6146820e+02   1.4158890e+02
   7.6195030e+02   1.3871580e+02
   7.6243240e+02   1.2916890e+02
   7.6291460e+02   1.1790620e+02
   7.6339670e+02   1.1403610e+02
   7.6387880e+02   1.3249410e+02
   7.6436090e+02   1.3838480e+02
   7.6484300e+02   1.1902640e+02
   7.6532510e+02   8.6174800e+01
   7.6580730e+02   4.9269530e+01
   7.6628940e+02   2.7353520e+00
   7.6677150e+02   2.3370120e+01
   7.6725360e+02   2.0696290e+01
   7.6773570e+02   4.3896480e+00
   7.6821780e+02   6.8847700e-01
   7.6870000e+02   5.6318360e+00
   7.6918210e+02   1.6982420e+00
   7.6966420e+02   2.5474610e+01
   7.7014630e+02   4.9597660e+01
   7.7062840e+02   4.0713870e+01
   7.7111050e+02   1.3193360e+01
   7.7159270e+02   5.0195310e+00
   7.7207480e+02   1.0087890e+00
   7.7255690e+02   8.4501950e+00
   7.7303900e+02   2.0451170e+01
   7.7352110e+02   3.6054690e+01
   7.7400320e+02   5.8568360e+01
   7.7448540e+02   9.1315430e+01
   7.7496750e+02   1.1104490e+02
   7.7544960e+02   1.0484670e+02
   7.7593170e+02   8.5413090e+01
   7.7641380e+02   8.0221680e+01
   7.7689590e+02   8.8382810e+01
   7.7737810e+02   1.0235350e+02
   7.7786020e+02   1.2566990e+02
   7.7834230e+02   1.4658500e+02
   7.7882440e+02   1.5396390e+02
   7.7930650e+02   1.5004880e+02
   7.7978860e+02   1.4483010e+02
   7.8027080e+02   1.3322360e+02
   7.8075290e+02   1.3002150e+02
   7.8123500e+02   1.4459280e+02
   7.8171710e+02   1.7364160e+02
   7.8219920e+02   1.8591990e+02
   7.8268130e+02   1.7816600e+02
   7.8316350e+02   1.6590820e+02
   7.8364560e+02   1.5345900e+02
   7.8412770e+02   1.4316990e+02
   7.8460980e+02   1.4686720e+02
   7.8509190e+02   1.6280470e+02
   7.8557400e+02   1.7305180e+02
   7.8605620e+02   1.6032710e+02
   7.8653830e+02   1.4103320e+02
   7.8702040e+02   1.2947850e+02
   7.8750250e+02   1.2646090e+02
   7.8798460e+02   1.2118360e+02
   7.8846670e+02   1.1121090e+02
   7.8894890e+02   9.8056640e+01
   7.8943100e+02   7.9660160e+01
   7.8991310e+02   5.5373050e+01
   7.9039520e+02   4.4519530e+01
   7.9087730e+02   4.7500000e+01
   7.9135940e+02   5.9493160e+01
   7.9184160e+02   8.9381840e+01
   7.9232370e+02   1.2369630e+02
   7.9280580e+02   1.1862600e+02
   7.9328790e+02   7.2974610e+01
   7.9377000e+02   3.1580080e+01
   7.9425210e+02   2.5856450e+01
   7.9473430e+02   3.6512700e+01
   7.9521640e+02   5.0564450e+01
   7.9569850e+02   6.8712890e+01
   7.9618060e+02   8.2487300e+01
   7.9666270e+02   8.8750980e+01
   7.9714480e+02   9.2126950e+01
   7.9762700e+02   9.7112300e+01
   7.9810910e+02   1.0644040e+02
   7.9859120e+02   1.1053910e+02
   7.9907330e+02   1.0886820e+02
   7.9955540e+02   9.9142580e+01
   8.0003750e+02   7.2302730e+01
   8.0051970e+02   4.2958010e+01
   8.0100180e+02   4.0537110e+01
   8.0148390e+02   7.1956050e+01
   8.0196600e+02   1.0244820e+02
   8.0244810e+02   1.1285250e+02
   8.0293020e+02   1.1217480e+02
   8.0341240e+02   1.0686820e+02
   8.0389450e+02   9.6051760e+01
   8.0437660e+02   8.2915040e+01
   8.0485870e+02   6.2615230e+01
   8.0534080e+02   4.4841800e+01
   8.0582290e+02   3.9733400e+01
   8.0630510e+02   4.8988280e+01
   8.0678720e+02   6.9313480e+01
   8.0726930e+02   1.0221000e+02
   8.0775140e+02   1.3081250e+02
   8.0823350e+02   1.3665140e+02
   8.0871560e+02   1.2894140e+02
   8.0919780e+02   1.1891600e+02
   8.0967990e+02   1.0677830e+02
   8.1016200e+02   1.0068360e+02
   8.1064410e+02   1.1516020e+02
   8.1112620e+02   1.3107810e+02
   8.1160830e+02   1.2849220e+02
   8.1209050e+02   9.4707030e+01
   8.1257260e+02   7.0982420e+01
   8.1305470e+02   5.9901370e+01
   8.1353680e+02   5.5870120e+01
   8.1401890e+02   5.1319340e+01
   8.1450100e+02   4.7614260e+01
   8.1498320e+02   5.6447270e+01
   8.1546530e+02   8.3344730e+01
   8.1594740e+02   1.0463670e+02
   8.1642950e+02   9.2767580e+01
   8.1691160e+02   6.4987300e+01
   8.1739370e+02   4.2809570e+01
   8.1787590e+02   3.4686520e+01
   8.1835800e+02   2.5947270e+01
   8.1884010e+02   7.6367200e-01
   8.1932220e+02   1.7575200e+01
   8.1980430e+02   7.1191400e-01
   8.2028640e+02   7.1135740e+01
   8.2076860e+02   1.0069430e+02
   8.2125070e+02   7.0847660e+01
   8.2173280e+02   2.9287110e+01
   8.2221490e+02   4.9660160e+01
   8.2269700e+02   1.0645610e+02
   8.2317910e+02   1.3143360e+02
   8.2366130e+02   9.9730470e+01
   8.2414340e+02   6.4998050e+01
   8.2462550e+02   6.7757810e+01
   8.2510760e+02   8.6985350e+01
   8.2558970e+02   9.7207030e+01
   8.2607180e+02   8.6362300e+01
   8.2655400e+02   7.4782230e+01
   8.2703610e+02   6.1368160e+01
   8.2751820e+02   5.0890620e+01
   8.2800030e+02   4.7931640e+01
   8.2848240e+02   5.1877930e+01
   8.2896450e+02   5.5842770e+01
   8.2944670e+02   6.0542970e+01
   8.2992880e+02   5.8677730e+01
   8.3041090e+02   3.1793950e+01
   8.3089300e+02   4.5634770e+00
   8.3137510e+02   2.7704100e+01
   8.3185720e+02   3.2456050e+01
   8.3233940e+02   2.3137700e+01
   8.3282150e+02   1.7947270e+01
   8.3330360e+02   6.2412110e+01
   8.3378570e+02   7.5947270e+01
   8.3426780e+02   3.8399410e+01
   8.3474990e+02   3.2234380e+01
   8.3523210e+02   7.2181640e+01
   8.3571420e+02   1.2181640e+02
   8.3619630e+02   1.3497660e+02
   8.3667840e+02   1.1880960e+02
   8.3716050e+02   9.6686520e+01
   8.3764260e+02   7.1212890e+01
   8.3812480e+02   5.1493160e+01
   8.3860690e+02   4.5282230e+01
   8.3908900e+02   4.8244140e+01
   8.3957110e+02   5.6442380e+01
   8.4005320e+02   7.6276370e+01
   8.4053530e+02   8.7968750e+01
   8.4101750e+02   8.8791020e+01
   8.4149960e+02   8.2936520e+01
   8.4198170e+02   7.1097660e+01
   8.4246380e+02   5.2559570e+01
   8.4294590e+02   4.9241210e+01
   8.4342800e+02   6.5361330e+01
   8.4391020e+02   8.5545900e+01
   8.4439230e+02   9.2283200e+01
   8.4487440e+02   9.2118160e+01
   8.4535650e+02   9.7997070e+01
   8.4583860e+02   1.1775000e+02
   8.4632070e+02   1.2364360e+02
   8.4680290e+02   8.6387700e+01
   8.4728500e+02   4.2068360e+01
   8.4776710e+02   2.2951170e+01
   8.4824920e+02   4.2523440e+01
   8.4873130e+02   5.0599610e+01
   8.4921340e+02   4.2885740e+01
   8.4969560e+02   3.6090820e+01
   8.5017770e+02   5.2217770e+01
   8.5065980e+02   8.2796880e+01
   8.5114190e+02   9.6279300e+01
   8.5162400e+02   8.7442380e+01
   8.5210610e+02   7.2911130e+01
   8.5258830e+02   6.0272460e+01
   8.5307040e+02   5.3678710e+01
   8.5355250e+02   5.9089840e+01
   8.5403460e+02   8.4513670e+01
   8.5451670e+02   9.6038090e+01
   8.5499880e+02   7.9533200e+01
   8.5548100e+02   6.5178710e+01
   8.5596310e+02   8.3735350e+01
   8.5644520e+02   1.3614550e+02
   8.5692730e+02   1.4087790e+02
   8.5740940e+02   9.3147460e+01
   8.5789150e+02   4.0386720e+01
   8.5837370e+02   2.5367190e+01
   8.5885580e+02   2.9792970e+01
   8.5933790e+02   2.8045900e+01
   8.5982000e+02   1.5031250e+01
   8.6030210e+02   1.6312500e+01
   8.6078420e+02   6.0553710e+01
   8.6126640e+02   1.0607710e+02
   8.6174850e+02   1.2697170e+02
   8.6223060e+02   1.1743360e+02
   8.6271270e+02   1.1759180e+02
   8.6319480e+02   1.3071190e+02
   8.6367690e+02   1.4052830e+02
   8.6415910e+02   1.3331050e+02
   8.6464120e+02   1.1499220e+02
   8.6512330e+02   9.4626950e+01
   8.6560540e+02   7.3507810e+01
   8.6608750e+02   6.4650390e+01
   8.6656960e+02   9.5320310e+01
   8.6705180e+02   1.2441210e+02
   8.6753390e+02   1.2130760e+02
   8.6801600e+02   8.2107420e+01
   8.6849810e+02   5.4976560e+01
   8.6898020e+02   4.0895510e+01
   8.6946230e+02   3.7050780e+01
   8.6994450e+02   4.5486330e+01
   8.7042660e+02   6.2895510e+01
   8.7090870e+02   7.6134770e+01
   8.7139080e+02   8.5173830e+01
   8.7187290e+02   8.7081050e+01
   8.7235500e+02   7.3232420e+01
   8.7283720e+02   5.7160160e+01
   8.7331930e+02   5.2217770e+01
   8.7380140e+02   5.6139650e+01
   8.7428350e+02   5.5267580e+01
   8.7476560e+02   3.4610350e+01
   8.7524770e+02   2.3092770e+01
   8.7572990e+02   3.0455080e+01
   8.7621200e+02   5.1766600e+01
   8.7669410e+02   7.0005860e+01
   8.7717620e+02   8.4986330e+01
   8.7765830e+02   9.6647460e+01
   8.7814040e+02   1.0519820e+02
   8.7862260e+02   1.0808590e+02
   8.7910470e+02   9.7937500e+01
   8.7958690e+02   8.0003910e+01
   8.8006900e+02   7.0568360e+01
   8.8055110e+02   9.6238280e+01
   8.8103320e+02   1.0668360e+02
   8.8151530e+02   7.1574220e+01
   8.8199740e+02   1.6602540e+01
   8.8247960e+02   4.8593750e+00
   8.8296170e+02   1.1828120e+01
   8.8344380e+02   3.9533200e+01
   8.8392590e+02   7.6564450e+01
   8.8440800e+02   1.1195210e+02
   8.8489010e+02   1.2646290e+02
   8.8537230e+02   1.2425980e+02
   8.8585440e+02   1.2079690e+02
   8.8633650e+02   1.2803610e+02
   8.8681860e+02   1.2374800e+02
   8.8730070e+02   8.3705080e+01
   8.8778280e+02   3.2446290e+01
   8.8826500e+02   3.0888670e+00
   8.8874710e+02   1.9531250e+00
   8.8922920e+02   9.1171880e+00
   8.8971130e+02   4.3387700e+01
   8.9019340e+02   8.1100590e+01
   8.9067550e+02   9.7406250e+01
   8.9115770e+02   9.5373050e+01
   8.9163980e+02   8.9286130e+01
   8.9212190e+02   8.1363280e+01
   8.9260400e+02   6.8154300e+01
   8.9308610e+02   3.2468750e+01
   8.9356820e+02   1.6602000e-02
   8.9405040e+02   1.1113280e+00
   8.9453250e+02   5.6893550e+01
   8.9501460e+02   8.2642580e+01
   8.9549670e+02   6.3712890e+01
   8.9597880e+02   3.5076170e+01
   8.9646090e+02   2.6217770e+01
   8.9694310e+02   3.4100590e+01
   8.9742520e+02   3.8429690e+01
   8.9790730e+02   3.8027340e+01
   8.9838940e+02   4.1519530e+01
   8.9887150e+02   5.8167970e+01
   8.9935360e+02   7.9646480e+01
   8.9983580e+02   1.0432810e+02
   9.0031790e+02   1.3330960e+02
   9.0080000e+02   1.3886910e+02
   9.0128210e+02   1.0397460e+02
   9.0176420e+02   6.7748050e+01
   9.0224630e+02   4.5595700e+01
   9.0272850e+02   3.7116210e+01
   9.0321060e+02   4.3076170e+01
   9.0369270e+02   6.2671880e+01
   9.0417480e+02   7.5626950e+01
   9.0465690e+02   5.4250980e+01
   9.0513900e+02   3.1426760e+01
   9.0562120e+02   5.0277340e+01
   9.0610330e+02   1.0039060e+02
   9.0658540e+02   1.3301560e+02
   9.0706750e+02   1.3200100e+02
   9.0754960e+02   1.1178520e+02
   9.0803170e+02   6.4994140e+01
   9.0851390e+02   6.2714840e+00
   9.0899600e+02   1.6587890e+01
   9.0947810e+02   3.4179690e+00
   9.0996020e+02   1.1119140e+01
   9.1044230e+02   1.2120120e+01
   9.1092440e+02   1.3094730e+01
   9.1140660e+02   4.2691410e+01
   9.1188870e+02   8.1961910e+01
   9.1237080e+02   9.5825200e+01
   9.1285290e+02   3.8758790e+01
   9.1333500e+02   2.2451170e+00
   9.1381710e+02   5.5419920e+00
   9.1429930e+02   1.0219730e+01
   9.1478140e+02   2.3521480e+01
   9.1526350e+02   3.4819340e+01
   9.1574560e+02   3.6095700e+01
   9.1622770e+02   2.4400390e+01
   9.1670980e+02   1.1344730e+01
   9.1719200e+02   1.4726560e+01
   9.1767410e+02   2.3281250e+01
   9.1815620e+02   1.7165040e+01
   9.1863830e+02   1.5565430e+01
   9.1912040e+02   3.2339840e+01
   9.1960250e+02   7.5078130e+00
   9.2008470e+02   2.7345700e+01
   9.2056680e+02   5.2436520e+01
   9.2104890e+02   6.7154300e+01
   9.2153100e+02   7.7024410e+01
   9.2201310e+02   8.2001950e+01
   9.2249520e+02   8.2687500e+01
   9.2297740e+02   7.8767580e+01
   9.2345950e+02   7.1108400e+01
   9.2394160e+02   5.9296880e+01
   9.2442370e+02   4.4011720e+01
   9.2490580e+02   3.1413090e+01
   9.2538790e+02   2.1103520e+01
   9.2587010e+02   1.7950200e+01
   9.2635220e+02   2.2346680e+01
   9.2683430e+02   3.4493160e+01
   9.2731640e+02   5.5606450e+01
   9.2779850e+02   8.8690430e+01
   9.2828060e+02   1.0447660e+02
   9.2876280e+02   7.7852540e+01
   9.2924490e+02   3.7158200e+01
   9.2972700e+02   2.9000980e+01
   9.3020910e+02   4.3435550e+01
   9.3069120e+02   5.3598630e+01
   9.3117330e+02   4.7507810e+01
   9.3165550e+02   3.6642580e+01
   9.3213760e+02   1.6585940e+01
   9.3261970e+02   2.8671880e+00
   9.3310180e+02   1.9023440e+00
   9.3358390e+02   2.3374020e+01
   9.3406600e+02   4.2297850e+01
   9.3454820e+02   4.9730470e+01
   9.3503030e+02   4.8328120e+01
   9.3551240e+02   3.4091800e+01
   9.3599450e+02   1.5695310e+01
   9.3647660e+02   1.0530270e+01
   9.3695870e+02   3.0368160e+01
   9.3744090e+02   4.1805660e+01
   9.3792300e+02   2.4420900e+01
   9.3840510e+02   2.1445310e+00
   9.3888720e+02   8.2031250e+00
   9.3936930e+02   6.3828130e+00
   9.3985140e+02   1.1584960e+01
   9.4033360e+02   5.0161130e+01
   9.4081570e+02   7.7708980e+01
   9.4129780e+02   4.9247070e+01
   9.4177990e+02   6.5430000e-02
   9.4226200e+02   1.6000980e+01
   9.4274410e+02   3.2050780e+00
   9.4322630e+02   2.4960940e+01
   9.4370840e+02   4.6474610e+01
   9.4419050e+02   5.6411130e+01
   9.4467260e+02   4.4883790e+01
   9.4515470e+02   1.7361330e+01
   9.4563680e+02   1.1194340e+01
   9.4611900e+02   2.7680660e+01
   9.4660110e+02   4.1834960e+01
   9.4708320e+02   4.3184570e+01
   9.4756530e+02   3.5991210e+01
   9.4804740e+02   2.0838870e+01
   9.4852950e+02   1.8095700e+00
   9.4901170e+02   1.1177730e+01
   9.4949380e+02   1.8760740e+01
   9.4997590e+02   1.3419920e+01
   9.5045800e+02   1.5776370e+01
   9.5094010e+02   5.0365230e+01
   9.5142220e+02   5.6566410e+01
   9.5190440e+02   3.3953120e+01
   9.5238650e+02   3.6112300e+01
   9.5286860e+02   7.7789060e+01
   9.5335070e+02   1.1642870e+02
   9.5383280e+02   9.6530270e+01
   9.5431490e+02   5.5619140e+01
   9.5479710e+02   4.4644530e+01
   9.5527920e+02   8.5200200e+01
   9.5576130e+02   1.1307910e+02
   9.5624340e+02   1.0705570e+02
   9.5672550e+02   9.2964840e+01
   9.5720760e+02   8.7876950e+01
   9.5768980e+02   9.1874020e+01
   9.5817190e+02   1.0618460e+02
   9.5865400e+02   1.3083200e+02
   9.5913610e+02   1.5210740e+02
   9.5961820e+02   1.6385550e+02
   9.6010030e+02   1.6539940e+02
   9.6058250e+02   1.4937010e+02
   9.6106460e+02   1.2040230e+02
   9.6154670e+02   1.0559770e+02
   9.6202880e+02   1.2463480e+02
   9.6251090e+02   1.3192970e+02
   9.6299300e+02   1.1238770e+02
   9.6347520e+02   8.0309570e+01
   9.6395730e+02   7.1872070e+01
   9.6443940e+02   8.3816410e+01
   9.6492150e+02   9.7802730e+01
   9.6540360e+02   1.1012300e+02
   9.6588570e+02   1.1788570e+02
   9.6636790e+02   1.1554590e+02
   9.6685000e+02   1.0777440e+02
   9.6733210e+02   1.0355760e+02
   9.6781420e+02   1.1342480e+02
   9.6829630e+02   1.0517870e+02
   9.6877840e+02   7.0350590e+01
   9.6926060e+02   3.4369140e+01
   9.6974270e+02   2.7856450e+01
   9.7022480e+02   4.1825200e+01
   9.7070690e+02   3.9552730e+01
   9.7118900e+02   1.8461910e+01
   9.7167110e+02   8.0703130e+00
   9.7215330e+02   4.4414060e+01
   9.7263540e+02   8.4494140e+01
   9.7311750e+02   9.5267580e+01
   9.7359960e+02   7.6509770e+01
   9.7408170e+02   7.2408200e+01
   9.7456380e+02   8.9609380e+01
   9.7504600e+02   9.6748050e+01
   9.7552810e+02   7.2779300e+01
   9.7601020e+02   3.7992190e+01
   9.7649230e+02   4.1134770e+01
   9.7697440e+02   6.9536130e+01
   9.7745650e+02   8.9137700e+01
   9.7793870e+02   6.5675780e+01
   9.7842080e+02   4.9272460e+01
   9.7890290e+02   7.1164060e+01
   9.7938500e+02   1.0343850e+02
   9.7986710e+02   1.0373730e+02
   9.8034920e+02   6.2686520e+01
   9.8083140e+02   5.0470700e+01
   9.8131350e+02   8.1557620e+01
   9.8179560e+02   1.1122950e+02
   9.8227770e+02   7.3904300e+01
   9.8275980e+02   1.1519530e+01
   9.8324190e+02   1.1334960e+01
   9.8372410e+02   2.0073240e+01
   9.8420620e+02   4.5973630e+01
   9.8468830e+02   3.8469730e+01
   9.8517040e+02   3.2330080e+01
   9.8565250e+02   4.6394530e+01
   9.8613460e+02   7.7342770e+01
   9.8661680e+02   8.9354490e+01
   9.8709890e+02   8.2736330e+01
   9.8758100e+02   7.1069340e+01
   9.8806310e+02   5.4811520e+01
   9.8854520e+02   4.3352540e+01
   9.8902730e+02   4.9743160e+01
   9.8950950e+02   6.7784180e+01
   9.8999160e+02   8.1617190e+01
   9.9047370e+02   8.9466800e+01
   9.9095580e+02   9.0843750e+01
   9.9143790e+02   8.5597660e+01
   9.9192000e+02   7.3995120e+01
   9.9240220e+02   5.0750000e+01
   9.9288430e+02   2.0502930e+01
   9.9336640e+02   3.4804690e+00
   9.9384850e+02   4.4238280e+00
   9.9433060e+02   1.2926760e+01
   9.9481270e+02   2.7557620e+01
   9.9529490e+02   4.2850590e+01
   9.9577700e+02   5.6446290e+01
   9.9625910e+02   7.0753910e+01
   9.9674120e+02   6.0309570e+01
   9.9722330e+02   1.7377930e+01
   9.9770540e+02   2.0116210e+01
   9.9818760e+02   2.9035160e+01
   9.9866970e+02   1.6779300e+01
   9.9915180e+02   8.4052730e+00
   9.9963390e+02   4.1723630e+01
   1.0001160e+03   6.4401370e+01
   1.0005980e+03   6.9987300e+01
   1.0010800e+03   6.4550780e+01
   1.0015620e+03   4.2450200e+01
   1.0020440e+03   1.4696290e+01
   1.0025270e+03   6.6699200e-01
   1.0030090e+03   9.6777300e-01
   1.0034910e+03   7.1660160e+00
   1.0039730e+03   1.8900390e+01
   1.0044550e+03   3.0721680e+01
   1.0049370e+03   3.6375000e+01
   1.0054190e+03   3.8332030e+01
   1.0059010e+03   3.9508790e+01
   1.0063840e+03   4.1187500e+01
   1.0068660e+03   3.7477540e+01
   1.0073480e+03   2.0576170e+01
   1.0078300e+03   1.0626950e+01
   1.0083120e+03   2.6574220e+01
   1.0087940e+03   5.9663090e+01
   1.0092760e+03   5.1376950e+01
   1.0097580e+03   7.7138670e+00
   1.0102400e+03   2.0283200e+01
   1.0107230e+03   2.2325200e+01
   1.0112050e+03   6.5209960e+01
   1.0116870e+03   5.9020510e+01
   1.0121690e+03   1.8956050e+01
   1.0126510e+03   1.3488280e+01
   1.0131330e+03   4.4139650e+01
   1.0136150e+03   4.1829100e+01
   1.0140970e+03   7.8476560e+00
   1.0145800e+03   6.6020510e+01
   1.0150620e+03   7.6108400e+01
   1.0155440e+03   5.5907230e+01
   1.0160260e+03   3.6607420e+01
   1.0165080e+03   2.2710940e+01
   1.0169900e+03   1.7784180e+01
   1.0174720e+03   3.9817380e+01
   1.0179540e+03   5.5038090e+01
   1.0184360e+03   3.6664060e+01
   1.0189190e+03   1.2203120e+01
   1.0194010e+03   1.6281250e+01
   1.0198830e+03   2.4559570e+01
   1.0203650e+03   6.1195310e+01
   1.0208470e+03   5.4819340e+01
   1.0213290e+03   3.9480470e+01
   1.0218110e+03   5.4875980e+01
   1.0222930e+03   8.7569340e+01
   1.0227760e+03   1.0428610e+02
   1.0232580e+03   7.9503910e+01
   1.0237400e+03   7.1703120e+01
   1.0242220e+03   9.2250980e+01
   1.0247040e+03   1.2202730e+02
   1.0251860e+03   1.3575290e+02
   1.0256680e+03   1.3643550e+02
   1.0261500e+03   1.3146580e+02
   1.0266320e+03   1.2122270e+02
   1.0271150e+03   1.1514450e+02
   1.0275970e+03   1.1973540e+02
   1.0280790e+03   1.3018070e+02
   1.0285610e+03   1.4044630e+02
   1.0290430e+03   1.5087990e+02
   1.0295250e+03   1.8567380e+02
   1.0300070e+03   2.4823050e+02
   1.0304890e+03   3.0262600e+02
   1.0309720e+03   3.3007620e+02
   1.0314540e+03   3.4240530e+02
   1.0319360e+03   3.4728320e+02
   1.0324180e+03   3.5156350e+02
   1.0329000e+03   3.6955370e+02
   1.0333820e+03   4.0612210e+02
   1.0338640e+03   4.5920020e+02
   1.0343460e+03   5.3697660e+02
   1.0348280e+03   6.1862010e+02
   1.0353110e+03   6.7170510e+02
   1.0357930e+03   7.0384670e+02
   1.0362750e+03   7.6801860e+02
   1.0367570e+03   8.6931740e+02
   1.0372390e+03   9.6669920e+02
   1.0377210e+03   1.0105480e+03
   1.0382030e+03   1.0580220e+03
   1.0386850e+03   1.1541120e+03
   1.0391670e+03   1.2949050e+03
   1.0396500e+03   1.4303520e+03
   1.0401320e+03   1.5596970e+03
   1.0406140e+03   1.6811840e+03
   1.0410960e+03   1.7877030e+03
   1.0415780e+03   1.8923570e+03
   1.0420600e+03   2.0208100e+03
   1.0425420e+03   2.1553380e+03
   1.0430240e+03   2.2636460e+03
   1.0435070e+03   2.3221270e+03
   1.0439890e+03   2.3802190e+03
   1.0444710e+03   2.4567850e+03
   1.0449530e+03   2.5260950e+03
   1.0454350e+03   2.5778010e+03
   1.0459170e+03   2.6102380e+03
   1.0463990e+03   2.5800750e+03
   1.0468810e+03   2.4903560e+03
   1.0473640e+03   2.3823690e+03
   1.0478460e+03   2.2941350e+03
   1.0483280e+03   2.1876460e+03
   1.0488100e+03   2.0296230e+03
   1.0492920e+03   1.8283800e+03
   1.0497740e+03   1.6254790e+03
   1.0502560e+03   1.4143070e+03
   1.0507380e+03   1.2262660e+03
   1.0512200e+03   1.0686980e+03
   1.0517030e+03   9.3437300e+02
   1.0521850e+03   8.1833200e+02
   1.0526670e+03   7.2058010e+02
   1.0531490e+03   6.4679790e+02
   1.0536310e+03   6.0504980e+02
   1.0541130e+03   5.5268950e+02
   1.0545950e+03   4.5871000e+02
   1.0550770e+03   3.7413180e+02
   1.0555590e+03   3.2992580e+02
   1.0560420e+03   3.1899900e+02
   1.0565240e+03   2.8176370e+02
   1.0570060e+03   2.2243750e+02
   1.0574880e+03   1.7335060e+02
   1.0579700e+03   1.5653420e+02
   1.0584520e+03   1.5129200e+02
   1.0589340e+03   1.5267770e+02
   1.0594160e+03   1.5426760e+02
   1.0598990e+03   1.4275390e+02
   1.0603810e+03   1.1150200e+02
   1.0608630e+03   9.2326170e+01
   1.0613450e+03   9.0552730e+01
   1.0618270e+03   8.9724610e+01
   1.0623090e+03   5.9721680e+01
   1.0627910e+03   2.6215820e+01
   1.0632730e+03   3.5794920e+01
   1.0637550e+03   9.0945310e+01
   1.0642380e+03   1.3264260e+02
   1.0647200e+03   1.4381930e+02
   1.0652020e+03   1.3905760e+02
   1.0656840e+03   1.1545120e+02
   1.0661660e+03   8.3587890e+01
   1.0666480e+03   7.8523440e+01
   1.0671300e+03   9.3563480e+01
   1.0676120e+03   9.5552730e+01
   1.0680940e+03   6.3185550e+01
   1.0685770e+03   4.0597660e+01
   1.0690590e+03   6.2090820e+01
   1.0695410e+03   9.8287110e+01
   1.0700230e+03   1.2159770e+02
   1.0705050e+03   1.3095510e+02
   1.0709870e+03   1.2415230e+02
   1.0714690e+03   1.0195700e+02
   1.0719510e+03   8.5700200e+01
   1.0724340e+03   8.3777340e+01
   1.0729160e+03   9.5410160e+01
   1.0733980e+03   1.3913090e+02
   1.0738800e+03   1.9705270e+02
   1.0743620e+03   2.1147460e+02
   1.0748440e+03   1.1918260e+02
   1.0753260e+03   7.0115230e+01
   1.0758080e+03   9.7635740e+01
   1.0762910e+03   1.5008790e+02
   1.0767730e+03   1.4896480e+02
   1.0772550e+03   1.1370020e+02
   1.0777370e+03   1.0281050e+02
   1.0782190e+03   1.2512790e+02
   1.0787010e+03   1.4361130e+02
   1.0791830e+03   1.4232520e+02
   1.0796650e+03   1.2741210e+02
   1.0801470e+03   9.4352540e+01
   1.0806300e+03   5.0917970e+01
   1.0811120e+03   4.7316410e+01
   1.0815940e+03   8.2046880e+01
   1.0820760e+03   1.2054200e+02
   1.0825580e+03   1.5779000e+02
   1.0830400e+03   1.7857620e+02
   1.0835220e+03   1.5528320e+02
   1.0840040e+03   1.1334280e+02
   1.0844860e+03   8.8653320e+01
   1.0849690e+03   9.4861330e+01
   1.0854510e+03   8.8638670e+01
   1.0859330e+03   6.7081050e+01
   1.0864150e+03   4.4532230e+01
   1.0868970e+03   2.9080080e+01
   1.0873790e+03   1.9648440e+01
   1.0878610e+03   1.9348630e+01
   1.0883430e+03   2.6882810e+01
   1.0888260e+03   3.6554690e+01
   1.0893080e+03   5.2933590e+01
   1.0897900e+03   6.1717770e+01
   1.0902720e+03   5.6503910e+01
   1.0907540e+03   4.7159180e+01
   1.0912360e+03   5.1532230e+01
   1.0917180e+03   6.6162110e+01
   1.0922000e+03   7.4083980e+01
   1.0926820e+03   7.2206050e+01
   1.0931650e+03   6.8670900e+01
   1.0936470e+03   6.6388670e+01
   1.0941290e+03   6.6454100e+01
   1.0946110e+03   7.0980470e+01
   1.0950930e+03   7.8508790e+01
   1.0955750e+03   8.1193360e+01
   1.0960570e+03   7.9225590e+01
   1.0965390e+03   6.9230470e+01
   1.0970220e+03   4.4306640e+01
   1.0975040e+03   2.2121090e+01
   1.0979860e+03   2.6258790e+01
   1.0984680e+03   4.2160160e+01
   1.0989500e+03   4.8219730e+01
   1.0994320e+03   2.9292970e+01
   1.0999140e+03   3.8416020e+01
   1.1003960e+03   8.6511720e+01
   1.1008790e+03   1.2617480e+02
   1.1013610e+03   1.1787400e+02
   1.1018430e+03   7.9788090e+01
   1.1023250e+03   3.4787110e+01
   1.1028070e+03   1.0376950e+01
   1.1032890e+03   3.1707030e+01
   1.1037710e+03   6.3173830e+00
   1.1042530e+03   3.2270510e+01
   1.1047350e+03   2.7834960e+01
   1.1052180e+03   1.4791990e+01
   1.1057000e+03   2.5523440e+01
   1.1061820e+03   5.4770510e+01
   1.1066640e+03   7.5625000e+01
   1.1071460e+03   8.5260740e+01
   1.1076280e+03   9.6656250e+01
   1.1081100e+03   1.3525490e+02
   1.1085920e+03   1.6053420e+02
   1.1090740e+03   1.4260740e+02
   1.1095570e+03   9.3196290e+01
   1.1100390e+03   5.4486330e+01
   1.1105210e+03   2.6041020e+01
   1.1110030e+03   9.5449220e+00
   1.1114850e+03   4.9375000e+00
   1.1119670e+03   1.4495120e+01
   1.1124490e+03   5.6505860e+01
   1.1129310e+03   1.0393650e+02
   1.1134140e+03   1.2661430e+02
   1.1138960e+03   1.1829790e+02
   1.1143780e+03   1.0291800e+02
   1.1148600e+03   7.5747070e+01
   1.1153420e+03   5.6201170e+01
   1.1158240e+03   5.9999020e+01
   1.1163060e+03   7.3650390e+01
   1.1167880e+03   7.4448240e+01
   1.1172710e+03   6.8161130e+01
   1.1177530e+03   6.8025390e+01
   1.1182350e+03   8.7491210e+01
   1.1187170e+03   9.9686520e+01
   1.1191990e+03   1.0407030e+02
   1.1196810e+03   9.9270510e+01
   1.1201630e+03   7.4974610e+01
   1.1206450e+03   4.1650390e+01
   1.1211270e+03   3.5360350e+01
   1.1216090e+03   5.5785160e+01
   1.1220920e+03   7.2853520e+01
   1.1225740e+03   6.7733400e+01
   1.1230560e+03   6.0104490e+01
   1.1235380e+03   5.5915040e+01
   1.1240200e+03   5.3901370e+01
   1.1245020e+03   4.9521480e+01
   1.1249840e+03   4.3887700e+01
   1.1254660e+03   5.1440430e+01
   1.1259490e+03   7.7526370e+01
   1.1264310e+03   9.0853520e+01
   1.1269130e+03   5.0837890e+01
   1.1273950e+03   5.8613280e+00
   1.1278770e+03   6.3876950e+00
   1.1283590e+03   9.9863280e+00
   1.1288410e+03   2.4828120e+01
   1.1293230e+03   3.9109380e+01
   1.1298060e+03   3.3984380e+01
   1.1302880e+03   7.6103520e+00
   1.1307700e+03   4.9627930e+01
   1.1312520e+03   6.2171880e+01
   1.1317340e+03   4.9559570e+01
   1.1322160e+03   1.0171880e+01
   1.1326980e+03   7.6021480e+01
   1.1331800e+03   1.0732910e+02
   1.1336620e+03   7.1117190e+01
   1.1341450e+03   3.4019530e+01
   1.1346270e+03   4.5908200e+01
   1.1351090e+03   7.6683590e+01
   1.1355910e+03   6.9895510e+01
   1.1360730e+03   4.3235350e+01
   1.1365550e+03   4.1389650e+01
   1.1370370e+03   1.2249220e+02
   1.1375190e+03   1.5506350e+02
   1.1380010e+03   1.1118260e+02
   1.1384840e+03   5.9948240e+01
   1.1389660e+03   9.6331050e+01
   1.1394480e+03   1.7520120e+02
   1.1399300e+03   1.7043750e+02
   1.1404120e+03   8.6266600e+01
   1.1408940e+03   2.4569340e+01
   1.1413760e+03   5.1756840e+01
   1.1418580e+03   7.5818360e+01
   1.1423410e+03   7.3041020e+01
   1.1428230e+03   5.3188480e+01
   1.1433050e+03   2.6582030e+01
   1.1437870e+03   2.2011720e+00
   1.1442690e+03   1.1598630e+01
   1.1447510e+03   3.0253910e+00
   1.1452330e+03   2.5469730e+01
   1.1457150e+03   6.3272460e+01
   1.1461980e+03   8.8513670e+01
   1.1466800e+03   8.0260740e+01
   1.1471620e+03   4.8644530e+01
   1.1476440e+03   4.4217770e+01
   1.1481260e+03   6.4510740e+01
   1.1486080e+03   7.5486330e+01
   1.1490900e+03   6.2248050e+01
   1.1495720e+03   4.8669920e+01
   1.1500540e+03   6.0981450e+01
   1.1505360e+03   7.5508790e+01
   1.1510190e+03   6.4078120e+01
   1.1515010e+03   2.2128910e+01
   1.1519830e+03   1.8804690e+01
   1.1524650e+03   5.5897460e+01
   1.1529470e+03   8.8960940e+01
   1.1534290e+03   9.0405270e+01
   1.1539110e+03   8.0865230e+01
   1.1543930e+03   7.1679690e+01
   1.1548760e+03   6.7703120e+01
   1.1553580e+03   8.1118160e+01
   1.1558400e+03   1.2703220e+02
   1.1563220e+03   1.4160060e+02
   1.1568040e+03   1.1862010e+02
   1.1572860e+03   8.9014650e+01
   1.1577680e+03   7.4558590e+01
   1.1582500e+03   7.1005860e+01
   1.1587330e+03   7.5218750e+01
   1.1592150e+03   8.5810550e+01
   1.1596970e+03   9.7272460e+01
   1.1601790e+03   1.1276170e+02
   1.1606610e+03   1.2281450e+02
   1.1611430e+03   1.2699710e+02
   1.1616250e+03   1.2417480e+02
   1.1621070e+03   1.0083790e+02
   1.1625890e+03   6.8938480e+01
   1.1630720e+03   4.6507810e+01
   1.1635540e+03   3.5242190e+01
   1.1640360e+03   3.5900390e+01
   1.1645180e+03   5.9908200e+01
   1.1650000e+03   7.6593750e+01
   1.1654820e+03   7.8381840e+01
   1.1659640e+03   6.9804690e+01
   1.1664460e+03   4.7207030e+01
   1.1669280e+03   2.3447270e+01
   1.1674110e+03   3.6567380e+01
   1.1678930e+03   1.0159570e+02
   1.1683750e+03   1.3774610e+02
   1.1688570e+03   9.2409180e+01
   1.1693390e+03   4.7540040e+01
   1.1698210e+03   3.6847660e+01
   1.1703030e+03   4.6582030e+01
   1.1707850e+03   2.7724610e+01
   1.1712680e+03   6.6289060e+00
   1.1717500e+03   9.0029300e+00
   1.1722320e+03   5.2449220e+01
   1.1727140e+03   1.0172560e+02
   1.1731960e+03   9.2704100e+01
   1.1736780e+03   7.7688480e+01
   1.1741600e+03   9.0291990e+01
   1.1746420e+03   1.2444730e+02
   1.1751250e+03   1.3856540e+02
   1.1756070e+03   1.3468070e+02
   1.1760890e+03   1.2376270e+02
   1.1765710e+03   1.1100980e+02
   1.1770530e+03   9.3090820e+01
   1.1775350e+03   6.3105470e+01
   1.1780170e+03   3.1185550e+01
   1.1784990e+03   3.4941410e+00
   1.1789810e+03   1.9898440e+01
   1.1794640e+03   1.9040040e+01
   1.1799460e+03   4.8916020e+00
   1.1804280e+03   2.9188480e+01
   1.1809100e+03   3.4202150e+01
   1.1813920e+03   4.1603520e+01
   1.1818740e+03   7.3725590e+01
   1.1823560e+03   1.1171190e+02
   1.1828380e+03   1.2444820e+02
   1.1833200e+03   1.0730760e+02
   1.1838030e+03   8.4863280e+01
   1.1842850e+03   5.8655270e+01
   1.1847670e+03   4.6281250e+01
   1.1852490e+03   8.3668950e+01
   1.1857310e+03   1.1750100e+02
   1.1862130e+03   9.6750980e+01
   1.1866950e+03   4.5881840e+01
   1.1871770e+03   4.1567380e+01
   1.1876600e+03   8.7926760e+01
   1.1881420e+03   1.1397950e+02
   1.1886240e+03   1.0411720e+02
   1.1891060e+03   8.8994140e+01
   1.1895880e+03   1.0890140e+02
   1.1900700e+03   1.2632130e+02
   1.1905520e+03   9.0476560e+01
   1.1910340e+03   1.3212890e+01
   1.1915160e+03   3.3955080e+00
   1.1919990e+03   4.7616210e+01
   1.1924810e+03   1.0234080e+02
   1.1929630e+03   1.4591990e+02
   1.1934450e+03   1.6294340e+02
   1.1939270e+03   1.2010940e+02
   1.1944090e+03   6.3013670e+01
   1.1948910e+03   3.8587890e+01
   1.1953730e+03   5.0315430e+01
   1.1958550e+03   7.0711910e+01
   1.1963380e+03   1.0204490e+02
   1.1968200e+03   1.2188570e+02
   1.1973020e+03   1.1841990e+02
   1.1977840e+03   1.0525980e+02
   1.1982660e+03   8.9218750e+01
   1.1987480e+03   7.5112300e+01
   1.1992300e+03   7.3441410e+01
   1.1997120e+03   8.6330080e+01
   1.2001950e+03   1.0585450e+02
   1.2006770e+03   1.3459280e+02
   1.2011590e+03   1.5079590e+02
   1.2016410e+03   1.3734770e+02
   1.2021230e+03   1.1104690e+02
   1.2026050e+03   8.2485350e+01
   1.2030870e+03   5.8807620e+01
   1.2035690e+03   5.5249020e+01
   1.2040520e+03   8.6567380e+01
   1.2045340e+03   9.2496090e+01
   1.2050160e+03   6.8476560e+01
   1.2054980e+03   4.6634770e+01
   1.2059800e+03   5.2734380e+01
   1.2064620e+03   7.0175780e+01
   1.2069440e+03   8.8017580e+01
   1.2074260e+03   1.0096480e+02
   1.2079080e+03   9.2598630e+01
   1.2083910e+03   4.3234380e+01
   1.2088730e+03   3.3960940e+01
   1.2093550e+03   7.6017580e+01
   1.2098370e+03   1.1450290e+02
   1.2103190e+03   8.3672850e+01
   1.2108010e+03   3.8743160e+01
   1.2112830e+03   5.7955080e+01
   1.2117650e+03   1.1851560e+02
   1.2122470e+03   1.2944920e+02
   1.2127300e+03   6.2627930e+01
   1.2132120e+03   1.7290040e+01
   1.2136940e+03   4.0644530e+00
   1.2141760e+03   1.2034180e+01
   1.2146580e+03   5.4409180e+01
   1.2151400e+03   9.5120120e+01
   1.2156220e+03   7.7364260e+01
   1.2161040e+03   1.3981450e+01
   1.2165870e+03   2.7900390e+00
   1.2170690e+03   5.2283200e+01
   1.2175510e+03   7.9018550e+01
   1.2180330e+03   5.4935550e+01
   1.2185150e+03   2.6332030e+01
   1.2189970e+03   5.0764650e+01
   1.2194790e+03   9.5165040e+01
   1.2199610e+03   1.2489260e+02
   1.2204430e+03   1.3663770e+02
   1.2209260e+03   1.4063870e+02
   1.2214080e+03   1.3515720e+02
   1.2218900e+03   1.3282130e+02
   1.2223720e+03   1.4003520e+02
   1.2228540e+03   1.3971090e+02
   1.2233360e+03   1.0016600e+02
   1.2238180e+03   4.8379880e+01
   1.2243000e+03   1.3086910e+01
   1.2247820e+03   1.0634770e+00
   1.2252650e+03   5.7910200e-01
   1.2257470e+03   1.6400390e+01
   1.2262290e+03   4.0703120e+01
   1.2267110e+03   7.2907230e+01
   1.2271930e+03   1.0241210e+02
   1.2276750e+03   1.2362300e+02
   1.2281570e+03   1.3025980e+02
   1.2286390e+03   1.0263960e+02
   1.2291220e+03   3.2386720e+01
   1.2296040e+03   1.7122070e+01
   1.2300860e+03   6.7612300e+01
   1.2305680e+03   1.1256740e+02
   1.2310500e+03   1.2442870e+02
   1.2315320e+03   1.1381150e+02
   1.2320140e+03   6.7284180e+01
   1.2324960e+03   1.8874020e+01
   1.2329790e+03   1.7380860e+01
   1.2334610e+03   7.2589840e+01
   1.2339430e+03   1.0756540e+02
   1.2344250e+03   1.2132620e+02
   1.2349070e+03   1.1944140e+02
   1.2353890e+03   9.5042970e+01
   1.2358710e+03   7.1249020e+01
   1.2363530e+03   7.1059570e+01
   1.2368350e+03   8.3906250e+01
   1.2373180e+03   1.0370700e+02
   1.2378000e+03   1.3630470e+02
   1.2382820e+03   1.3186520e+02
   1.2387640e+03   8.8392580e+01
   1.2392460e+03   4.0529300e+01
   1.2397280e+03   9.2958980e+00
   1.2402100e+03   3.3574220e+01
   1.2406920e+03   1.5664060e+01
   1.2411750e+03   9.2097660e+01
   1.2416570e+03   1.3197360e+02
   1.2421390e+03   1.3005660e+02
   1.2426210e+03   1.1643460e+02
   1.2431030e+03   9.1644530e+01
   1.2435850e+03   7.3474610e+01
   1.2440670e+03   8.2675780e+01
   1.2445490e+03   9.3396480e+01
   1.2450310e+03   7.9291020e+01
   1.2455140e+03   6.2145510e+01
   1.2459960e+03   7.4875000e+01
   1.2464780e+03   1.2165920e+02
   1.2469600e+03   1.4830570e+02
   1.2474420e+03   1.5461620e+02
   1.2479240e+03   1.5223540e+02
   1.2484060e+03   1.5668460e+02
   1.2488880e+03   1.4216700e+02
   1.2493700e+03   5.2804690e+01
   1.2498530e+03   4.1755860e+01
   1.2503350e+03   3.6187500e+01
   1.2508170e+03   6.5353520e+01
   1.2512990e+03   1.1400390e+02
   1.2517810e+03   1.0596480e+02
   1.2522630e+03   9.2544920e+01
   1.2527450e+03   1.0755270e+02
   1.2532270e+03   1.2275390e+02
   1.2537100e+03   1.3366600e+02
   1.2541920e+03   1.3085160e+02
   1.2546740e+03   8.9958980e+01
   1.2551560e+03   2.0214840e+01
   1.2556380e+03   9.6074220e+00
   1.2561200e+03   2.6992190e+00
   1.2566020e+03   2.3916020e+01
   1.2570840e+03   3.6035160e+01
   1.2575670e+03   5.4507810e+01
   1.2580490e+03   8.8521480e+01
   1.2585310e+03   1.2319730e+02
   1.2590130e+03   1.3642190e+02
   1.2594950e+03   1.3051950e+02
   1.2599770e+03   1.1545700e+02
   1.2604590e+03   9.3714840e+01
   1.2609410e+03   7.7539060e+01
   1.2614230e+03   8.3453120e+01
   1.2619060e+03   8.7880860e+01
   1.2623880e+03   8.3263670e+01
   1.2628700e+03   8.1244140e+01
   1.2633520e+03   1.0183790e+02
   1.2638340e+03   1.3641410e+02
   1.2643160e+03   1.7564450e+02
   1.2647980e+03   2.1371480e+02
   1.2652800e+03   2.1052540e+02
   1.2657620e+03   1.1491410e+02
   1.2662450e+03   4.9460940e+01
   1.2667270e+03   4.0195310e+01
   1.2672090e+03   5.5722660e+01
   1.2676910e+03   5.9812500e+01
   1.2681730e+03   5.8380860e+01
   1.2686550e+03   5.7812500e+01
   1.2691370e+03   5.8001950e+01
   1.2696190e+03   5.8664060e+01
   1.2701020e+03   5.2857420e+01
   1.2705840e+03   6.4281250e+01
   1.2710660e+03   1.0313480e+02
   1.2715480e+03   1.4320700e+02
   1.2720300e+03   1.4698240e+02
   1.2725120e+03   1.3142770e+02
   1.2729940e+03   1.1440820e+02
   1.2734760e+03   1.0760550e+02
   1.2739580e+03   1.1663870e+02
   1.2744410e+03   1.4934570e+02
   1.2749230e+03   1.5505080e+02
   1.2754050e+03   1.1693360e+02
   1.2758870e+03   7.3279300e+01
   1.2763690e+03   6.2671880e+01
   1.2768510e+03   6.6089840e+01
   1.2773330e+03   6.7611330e+01
   1.2778150e+03   5.3738280e+01
   1.2782970e+03   5.4472660e+01
   1.2787800e+03   5.7367190e+01
   1.2792620e+03   5.1187500e+01
   1.2797440e+03   3.0769530e+01
   1.2802260e+03   1.5835940e+01
   1.2807080e+03   2.6335940e+01
   1.2811900e+03   4.6884770e+01
   1.2816720e+03   6.0773440e+01
   1.2821540e+03   6.7833980e+01
   1.2826370e+03   6.8955080e+01
   1.2831190e+03   6.4121090e+01
   1.2836010e+03   4.5679690e+01
   1.2840830e+03   6.1152340e+00
   1.2845650e+03   2.6191410e+00
   1.2850470e+03   9.5332030e+01
   1.2855290e+03   1.8302150e+02
   1.2860110e+03   2.0495700e+02
   1.2864940e+03   1.7578320e+02
   1.2869760e+03   1.0866600e+02
   1.2874580e+03   2.2462890e+01
   1.2879400e+03   1.1189450e+01
   1.2884220e+03   2.9669920e+01
   1.2889040e+03   6.3890620e+01
   1.2893860e+03   4.9982420e+01
   1.2898680e+03   4.0521480e+01
   1.2903500e+03   5.3439450e+01
   1.2908330e+03   7.8789060e+01
   1.2913150e+03   1.0760940e+02
   1.2917970e+03   1.3093750e+02
   1.2922790e+03   1.2436910e+02
   1.2927610e+03   7.7646480e+01
   1.2932430e+03   4.5222660e+01
   1.2937250e+03   3.3253910e+01
   1.2942070e+03   3.1345700e+01
   1.2946890e+03   3.3560550e+01
   1.2951720e+03   4.6158200e+01
   1.2956540e+03   1.0657620e+02
   1.2961360e+03   1.7203910e+02
   1.2966180e+03   1.7342970e+02
   1.2971000e+03   1.0907810e+02
   1.2975820e+03   7.9527340e+01
   1.2980640e+03   9.1277340e+01
   1.2985460e+03   9.3277340e+01
   1.2990290e+03   6.6751950e+01
   1.2995110e+03   3.4267580e+01
   1.2999930e+03   5.2812500e+00
   1.3004750e+03   7.2011720e+00
   1.3009570e+03   2.3095700e+01
   1.3014390e+03   8.5683590e+01
   1.3019210e+03   1.1429880e+02
   1.3024030e+03   1.1018950e+02
   1.3028850e+03   8.3869140e+01
   1.3033680e+03   8.1546880e+01
   1.3038500e+03   6.9302730e+01
   1.3043320e+03   2.9359380e+01
   1.3048140e+03   0.0000000e+00
   1.5000000e+03   0.0000000e+00
