   1.0000000e+02   0.0000000e+00
   1.9607570e+02   0.0000000e+00
   1.9655790e+02   2.1584000e-02
   1.9704000e+02   7.3256999e-02
   1.9752210e+02   5.8586900e-01
   1.9800420e+02   1.5508120e+00
   1.9848630e+02   2.7302400e+00
   1.9896840e+02   4.0755770e+00
   1.9945060e+02   5.0164110e+00
   1.9993270e+02   5.2421420e+00
   2.0041480e+02   5.3113250e+00
   2.0089690e+02   6.6095580e+00
   2.0137900e+02   9.3395080e+00
   2.0186110e+02   1.2214870e+01
   2.0234330e+02   1.4635750e+01
   2.0282540e+02   1.6618820e+01
   2.0330750e+02   1.7862590e+01
   2.0378960e+02   1.8073070e+01
   2.0427170e+02   1.7749950e+01
   2.0475380e+02   1.8228910e+01
   2.0523600e+02   1.9676050e+01
   2.0571810e+02   2.1281910e+01
   2.0620020e+02   2.2627400e+01
   2.0668230e+02   2.3713880e+01
   2.0716440e+02   2.4534680e+01
   2.0764650e+02   2.5140400e+01
   2.0812870e+02   2.5452010e+01
   2.0861080e+02   2.5117220e+01
   2.0909290e+02   2.3907480e+01
   2.0957500e+02   2.2670880e+01
   2.1005710e+02   2.2075870e+01
   2.1053920e+02   2.2372250e+01
   2.1102140e+02   2.2054590e+01
   2.1150350e+02   2.0761090e+01
   2.1198560e+02   1.8848430e+01
   2.1246770e+02   1.7618570e+01
   2.1294980e+02   1.7418510e+01
   2.1343190e+02   1.7124970e+01
   2.1391400e+02   1.5915890e+01
   2.1439620e+02   1.3416980e+01
   2.1487830e+02   1.1336270e+01
   2.1536040e+02   9.8363040e+00
   2.1584250e+02   8.8597640e+00
   2.1632460e+02   8.3448100e+00
   2.1680670e+02   8.5378420e+00
   2.1728890e+02   8.7038880e+00
   2.1777100e+02   8.3235550e+00
   2.1825310e+02   7.1275940e+00
   2.1873520e+02   6.1579820e+00
   2.1921730e+02   5.4600910e+00
   2.1969940e+02   5.0507740e+00
   2.2018160e+02   5.1233830e+00
   2.2066370e+02   5.9515000e+00
   2.2114580e+02   6.7504880e+00
   2.2162790e+02   6.9947590e+00
   2.2211000e+02   6.4626010e+00
   2.2259210e+02   5.9389190e+00
   2.2307430e+02   5.3654560e+00
   2.2355640e+02   4.8357320e+00
   2.2403850e+02   4.8637470e+00
   2.2452060e+02   5.8698120e+00
   2.2500270e+02   6.7844770e+00
   2.2548480e+02   6.8383870e+00
   2.2596700e+02   5.4557040e+00
   2.2644910e+02   4.6403580e+00
   2.2693120e+02   4.7133710e+00
   2.2741330e+02   5.4852980e+00
   2.2789540e+02   6.0544280e+00
   2.2837750e+02   6.4060210e+00
   2.2885970e+02   6.5719680e+00
   2.2934180e+02   6.5682830e+00
   2.2982390e+02   6.3974610e+00
   2.3030600e+02   6.0277480e+00
   2.3078810e+02   5.2999040e+00
   2.3127020e+02   4.3481830e+00
   2.3175240e+02   3.8427810e+00
   2.3223450e+02   3.8051680e+00
   2.3271660e+02   4.1812440e+00
   2.3319870e+02   5.0551380e+00
   2.3368080e+02   6.9216380e+00
   2.3416290e+02   8.1603780e+00
   2.3464510e+02   8.4737550e+00
   2.3512720e+02   8.0697630e+00
   2.3560930e+02   7.8509220e+00
   2.3609140e+02   7.7812960e+00
   2.3657350e+02   7.9245760e+00
   2.3705560e+02   8.3437650e+00
   2.3753780e+02   9.1514590e+00
   2.3801990e+02   1.0027530e+01
   2.3850200e+02   1.1039020e+01
   2.3898410e+02   1.2071020e+01
   2.3946620e+02   1.3014750e+01
   2.3994830e+02   1.3511670e+01
   2.4043050e+02   1.3801800e+01
   2.4091260e+02   1.4104260e+01
   2.4139470e+02   1.4530810e+01
   2.4187680e+02   1.5130780e+01
   2.4235890e+02   1.5660290e+01
   2.4284100e+02   1.6104350e+01
   2.4332320e+02   1.6941960e+01
   2.4380530e+02   1.8314770e+01
   2.4428740e+02   1.9794910e+01
   2.4476950e+02   2.1189870e+01
   2.4525160e+02   2.2693800e+01
   2.4573370e+02   2.3977480e+01
   2.4621590e+02   2.5020460e+01
   2.4669800e+02   2.5852340e+01
   2.4718010e+02   2.6553500e+01
   2.4766220e+02   2.7177780e+01
   2.4814430e+02   2.7699710e+01
   2.4862640e+02   2.8106390e+01
   2.4910860e+02   2.8390630e+01
   2.4959070e+02   2.8374410e+01
   2.5007280e+02   2.8004150e+01
   2.5055490e+02   2.7501310e+01
   2.5103700e+02   2.7466050e+01
   2.5151910e+02   2.8223540e+01
   2.5200130e+02   2.8931380e+01
   2.5248340e+02   2.9200450e+01
   2.5296550e+02   2.8854870e+01
   2.5344760e+02   2.8528150e+01
   2.5392970e+02   2.8202130e+01
   2.5441180e+02   2.7885250e+01
   2.5489400e+02   2.7552490e+01
   2.5537610e+02   2.7204520e+01
   2.5585820e+02   2.6827730e+01
   2.5634030e+02   2.6474060e+01
   2.5682240e+02   2.6284660e+01
   2.5730460e+02   2.5601230e+01
   2.5778670e+02   2.4179240e+01
   2.5826880e+02   2.2423290e+01
   2.5875090e+02   2.1137170e+01
   2.5923300e+02   2.0473140e+01
   2.5971510e+02   1.9993350e+01
   2.6019730e+02   1.9577970e+01
   2.6067940e+02   1.9289870e+01
   2.6116150e+02   1.8828800e+01
   2.6164360e+02   1.8175700e+01
   2.6212570e+02   1.7376910e+01
   2.6260780e+02   1.6455290e+01
   2.6309000e+02   1.5288890e+01
   2.6357210e+02   1.4322850e+01
   2.6405420e+02   1.3773860e+01
   2.6453630e+02   1.3710190e+01
   2.6501840e+02   1.3588840e+01
   2.6550050e+02   1.3460000e+01
   2.6598270e+02   1.3216770e+01
   2.6646480e+02   1.2669440e+01
   2.6694690e+02   1.1748340e+01
   2.6742900e+02   1.0731700e+01
   2.6791110e+02   9.6158910e+00
   2.6839320e+02   8.3809660e+00
   2.6887540e+02   7.5262150e+00
   2.6935750e+02   7.2121200e+00
   2.6983960e+02   7.0279010e+00
   2.7032170e+02   6.3870090e+00
   2.7080380e+02   5.1232830e+00
   2.7128590e+02   4.0452040e+00
   2.7176810e+02   3.3799290e+00
   2.7225020e+02   3.1205670e+00
   2.7273230e+02   3.1378170e+00
   2.7321440e+02   3.6027830e+00
   2.7369650e+02   4.0002750e+00
   2.7417860e+02   3.5589370e+00
   2.7466080e+02   2.0054240e+00
   2.7514290e+02   1.1204380e+00
   2.7562500e+02   1.6207500e+00
   2.7610710e+02   3.2404560e+00
   2.7658920e+02   3.8737340e+00
   2.7707140e+02   3.2978900e+00
   2.7755350e+02   2.3502960e+00
   2.7803560e+02   1.8301470e+00
   2.7851770e+02   1.7901840e+00
   2.7899980e+02   1.5977860e+00
   2.7948190e+02   1.0229870e+00
   2.7996410e+02   2.1439400e-01
   2.8044620e+02   4.8186999e-02
   2.8092830e+02   3.5800900e-01
   2.8141040e+02   7.7568100e-01
   2.8189250e+02   4.9237800e-01
   2.8237460e+02   5.0802600e-01
   2.8285680e+02   9.7449500e-01
   2.8333890e+02   5.3348500e-01
   2.8382100e+02   4.3917800e-01
   2.8430310e+02   9.1524500e-01
   2.8478520e+02   8.6880500e-01
   2.8526730e+02   5.7086200e-01
   2.8574950e+02   1.5250400e-01
   2.8623160e+02   3.7677000e-01
   2.8671370e+02   9.3233500e-01
   2.8719580e+02   1.5607220e+00
   2.8767790e+02   2.1282270e+00
   2.8816000e+02   2.3033370e+00
   2.8864220e+02   2.0807270e+00
   2.8912430e+02   1.7926790e+00
   2.8960640e+02   1.6560520e+00
   2.9008850e+02   1.6389160e+00
   2.9057060e+02   1.5888060e+00
   2.9105270e+02   1.5041280e+00
   2.9153490e+02   1.3502810e+00
   2.9201700e+02   1.0318760e+00
   2.9249910e+02   5.6613200e-01
   2.9298120e+02   1.0127300e-01
   2.9346330e+02   3.3506800e-01
   2.9394540e+02   7.1075400e-01
   2.9442760e+02   8.9725500e-01
   2.9490970e+02   8.6972800e-01
   2.9539180e+02   7.3383300e-01
   2.9587390e+02   5.6246200e-01
   2.9635600e+02   3.7765500e-01
   2.9683810e+02   2.6849400e-01
   2.9732030e+02   3.6441800e-01
   2.9780240e+02   5.5391700e-01
   2.9828450e+02   5.8212300e-01
   2.9876660e+02   4.3237300e-01
   2.9924870e+02   2.4853500e-01
   2.9973080e+02   1.6807600e-01
   3.0021300e+02   1.6497800e-01
   3.0069510e+02   1.6407800e-01
   3.0117720e+02   7.1419001e-02
   3.0165930e+02   2.2399100e-01
   3.0214140e+02   3.5994000e-01
   3.0262350e+02   1.6611250e+00
   3.0310570e+02   2.8793560e+00
   3.0358780e+02   3.2211610e+00
   3.0406990e+02   3.0189130e+00
   3.0455200e+02   2.8620300e+00
   3.0503410e+02   2.8672640e+00
   3.0551620e+02   3.0693970e+00
   3.0599840e+02   3.7142410e+00
   3.0648050e+02   4.7082520e+00
   3.0696260e+02   5.4432980e+00
   3.0744470e+02   5.2068330e+00
   3.0792680e+02   4.5520480e+00
   3.0840890e+02   4.2382580e+00
   3.0889110e+02   4.6980290e+00
   3.0937320e+02   5.1805950e+00
   3.0985530e+02   4.8911510e+00
   3.1033740e+02   4.0705640e+00
   3.1081950e+02   3.5237580e+00
   3.1130160e+02   3.8890230e+00
   3.1178380e+02   4.6467970e+00
   3.1226590e+02   5.3736340e+00
   3.1274800e+02   6.0413670e+00
   3.1323010e+02   6.5432130e+00
   3.1371220e+02   6.7069780e+00
   3.1419430e+02   6.6624910e+00
   3.1467650e+02   6.6816250e+00
   3.1515860e+02   6.9354710e+00
   3.1564070e+02   7.2568740e+00
   3.1612280e+02   7.4799650e+00
   3.1660490e+02   7.5033420e+00
   3.1708700e+02   7.7896880e+00
   3.1756920e+02   9.0223540e+00
   3.1805130e+02   1.0536980e+01
   3.1853340e+02   1.1396410e+01
   3.1901550e+02   1.0675010e+01
   3.1949760e+02   9.7870250e+00
   3.1997970e+02   9.1850740e+00
   3.2046190e+02   8.8849950e+00
   3.2094400e+02   9.1080320e+00
   3.2142610e+02   1.0769870e+01
   3.2190820e+02   1.2618120e+01
   3.2239030e+02   1.3457820e+01
   3.2287240e+02   1.1845540e+01
   3.2335460e+02   1.0399010e+01
   3.2383670e+02   9.9650190e+00
   3.2431880e+02   1.0511860e+01
   3.2480090e+02   1.0754620e+01
   3.2528300e+02   1.0264110e+01
   3.2576510e+02   9.5502550e+00
   3.2624730e+02   8.9683760e+00
   3.2672940e+02   8.1767200e+00
   3.2721150e+02   7.8620990e+00
   3.2769360e+02   8.4643940e+00
   3.2817570e+02   9.7538990e+00
   3.2865780e+02   1.0594990e+01
   3.2914000e+02   1.0797280e+01
   3.2962210e+02   1.0718930e+01
   3.3010420e+02   1.0477710e+01
   3.3058630e+02   9.8697590e+00
   3.3106840e+02   9.4716570e+00
   3.3155050e+02   9.4437410e+00
   3.3203270e+02   9.5833890e+00
   3.3251480e+02   9.4426120e+00
   3.3299690e+02   8.7273790e+00
   3.3347900e+02   8.1380770e+00
   3.3396110e+02   7.9870000e+00
   3.3444320e+02   8.4975280e+00
   3.3492540e+02   8.4726260e+00
   3.3540750e+02   7.5776140e+00
   3.3588960e+02   6.4293590e+00
   3.3637170e+02   5.9462810e+00
   3.3685380e+02   6.4117200e+00
   3.3733590e+02   6.8724980e+00
   3.3781800e+02   7.0218200e+00
   3.3830010e+02   6.8631670e+00
   3.3878230e+02   7.0489810e+00
   3.3926440e+02   7.7607420e+00
   3.3974650e+02   8.4258880e+00
   3.4022860e+02   8.3869930e+00
   3.4071070e+02   7.5586620e+00
   3.4119280e+02   6.7223890e+00
   3.4167500e+02   6.0381770e+00
   3.4215710e+02   5.4369050e+00
   3.4263920e+02   4.7951890e+00
   3.4312130e+02   4.0593190e+00
   3.4360340e+02   3.5061260e+00
   3.4408550e+02   3.4659730e+00
   3.4456770e+02   3.9051060e+00
   3.4504980e+02   3.9592970e+00
   3.4553190e+02   3.4063640e+00
   3.4601400e+02   2.6561580e+00
   3.4649610e+02   2.6414030e+00
   3.4697820e+02   3.3297120e+00
   3.4746040e+02   3.7886660e+00
   3.4794250e+02   3.1753690e+00
   3.4842460e+02   1.8517150e+00
   3.4890670e+02   1.2151260e+00
   3.4938880e+02   1.4219740e+00
   3.4987090e+02   1.9366610e+00
   3.5035310e+02   2.1687930e+00
   3.5083520e+02   2.1715010e+00
   3.5131730e+02   2.1372150e+00
   3.5179940e+02   2.0959010e+00
   3.5228150e+02   2.0650020e+00
   3.5276360e+02   2.0773770e+00
   3.5324580e+02   2.1294560e+00
   3.5372790e+02   2.2194750e+00
   3.5421000e+02   2.4486540e+00
   3.5469210e+02   2.7001720e+00
   3.5517420e+02   2.7743840e+00
   3.5565630e+02   2.5590520e+00
   3.5613850e+02   2.1906130e+00
   3.5662060e+02   1.6671140e+00
   3.5710270e+02   1.0430980e+00
   3.5758480e+02   6.1987300e-01
   3.5806690e+02   6.0295900e-01
   3.5854900e+02   8.5682700e-01
   3.5903120e+02   1.3335040e+00
   3.5951330e+02   2.2864760e+00
   3.5999540e+02   2.9323880e+00
   3.6047750e+02   2.4880520e+00
   3.6095960e+02   1.3662800e+00
   3.6144170e+02   4.9530000e-01
   3.6192390e+02   3.2822400e-01
   3.6240600e+02   4.4603000e-01
   3.6288810e+02   6.7001300e-01
   3.6337020e+02   1.0084230e+00
   3.6385230e+02   1.3098980e+00
   3.6433440e+02   1.5738680e+00
   3.6481660e+02   1.7562410e+00
   3.6529870e+02   1.8105090e+00
   3.6578080e+02   1.4818500e+00
   3.6626290e+02   1.2652210e+00
   3.6674500e+02   1.4239500e+00
   3.6722710e+02   1.9538120e+00
   3.6770930e+02   2.1872100e+00
   3.6819140e+02   1.5976030e+00
   3.6867350e+02   9.6439400e-01
   3.6915560e+02   7.9880500e-01
   3.6963770e+02   1.5997850e+00
   3.7011980e+02   2.2758560e+00
   3.7060200e+02   2.8321610e+00
   3.7108410e+02   3.2393110e+00
   3.7156620e+02   3.3884430e+00
   3.7204830e+02   3.2253040e+00
   3.7253040e+02   2.8661730e+00
   3.7301250e+02   2.2822720e+00
   3.7349470e+02   1.2405850e+00
   3.7397680e+02   7.0115700e-01
   3.7445890e+02   9.2988600e-01
   3.7494100e+02   1.4413070e+00
   3.7542310e+02   1.3938670e+00
   3.7590520e+02   5.3733100e-01
   3.7638740e+02   1.7362200e-01
   3.7686950e+02   4.3270100e-01
   3.7735160e+02   2.4987800e-01
   3.7783370e+02   2.7496001e-02
   3.7831580e+02   4.5285000e-01
   3.7879790e+02   8.4104900e-01
   3.7928010e+02   1.0004880e+00
   3.7976220e+02   9.2657500e-01
   3.8024430e+02   7.4331700e-01
   3.8072640e+02   4.0889000e-01
   3.8120850e+02   3.2683998e-02
   3.8169060e+02   1.4664000e-02
   3.8217280e+02   2.7437600e-01
   3.8265490e+02   4.8827400e-01
   3.8313700e+02   1.0362200e-01
   3.8361910e+02   6.4361600e-01
   3.8410120e+02   6.5537300e-01
   3.8458330e+02   3.5476700e-01
   3.8506550e+02   1.5059280e+00
   3.8554760e+02   1.4754260e+00
   3.8602970e+02   5.3934500e-01
   3.8651180e+02   2.9583000e-01
   3.8699390e+02   4.3884300e-01
   3.8747600e+02   2.4130200e-01
   3.8795820e+02   2.3314700e-01
   3.8844030e+02   4.2726900e-01
   3.8892240e+02   5.8015400e-01
   3.8940450e+02   4.6035800e-01
   3.8988660e+02   1.8286900e-01
   3.9036870e+02   1.0192900e-01
   3.9085090e+02   4.5931200e-01
   3.9133300e+02   6.8311300e-01
   3.9181510e+02   5.0631000e-01
   3.9229720e+02   3.1714998e-02
   3.9277930e+02   3.2661400e-01
   3.9326140e+02   2.8912400e-01
   3.9374360e+02   1.0540800e-01
   3.9422570e+02   5.9296001e-02
   3.9470780e+02   1.8801900e-01
   3.9518990e+02   2.6278700e-01
   3.9567200e+02   1.9523600e-01
   3.9615410e+02   8.2771003e-02
   3.9663630e+02   8.2298003e-02
   3.9711840e+02   2.2385400e-01
   3.9760050e+02   4.8959400e-01
   3.9808260e+02   9.7920200e-01
   3.9856470e+02   1.7565160e+00
   3.9904680e+02   2.2221680e+00
   3.9952900e+02   2.1314470e+00
   4.0001110e+02   1.8099900e+00
   4.0049320e+02   1.5118100e+00
   4.0097530e+02   1.0610660e+00
   4.0145740e+02   8.7471000e-01
   4.0193950e+02   1.1120610e+00
   4.0242170e+02   1.6729350e+00
   4.0290380e+02   2.0734180e+00
   4.0338590e+02   2.2811200e+00
   4.0386800e+02   2.3707200e+00
   4.0435010e+02   2.3775410e+00
   4.0483220e+02   2.3039700e+00
   4.0531440e+02   2.0980070e+00
   4.0579650e+02   1.6028060e+00
   4.0627860e+02   1.1525040e+00
   4.0676070e+02   1.4470290e+00
   4.0724280e+02   2.6746520e+00
   4.0772490e+02   3.6354600e+00
   4.0820710e+02   3.8442230e+00
   4.0868920e+02   3.4233470e+00
   4.0917130e+02   3.1050420e+00
   4.0965340e+02   2.8834690e+00
   4.1013550e+02   2.7922740e+00
   4.1061760e+02   2.9716190e+00
   4.1109980e+02   3.3543090e+00
   4.1158190e+02   3.4958270e+00
   4.1206400e+02   3.1990970e+00
   4.1254610e+02   2.8116230e+00
   4.1302820e+02   2.9656680e+00
   4.1351030e+02   3.5824580e+00
   4.1399250e+02   4.1950300e+00
   4.1447460e+02   4.5734410e+00
   4.1495670e+02   4.7641600e+00
   4.1543880e+02   4.7961960e+00
   4.1592090e+02   4.6578290e+00
   4.1640300e+02   4.5132450e+00
   4.1688520e+02   4.5766600e+00
   4.1736730e+02   4.7140500e+00
   4.1784940e+02   4.7032470e+00
   4.1833150e+02   4.2740480e+00
   4.1881360e+02   3.8211210e+00
   4.1929570e+02   3.7006230e+00
   4.1977790e+02   3.8452840e+00
   4.2026000e+02   3.7755660e+00
   4.2074210e+02   3.0430450e+00
   4.2122420e+02   2.1543500e+00
   4.2170630e+02   1.4790190e+00
   4.2218840e+02   1.0600740e+00
   4.2267060e+02   8.7485500e-01
   4.2315270e+02   1.0624540e+00
   4.2363480e+02   1.4608540e+00
   4.2411690e+02   1.7649230e+00
   4.2459900e+02   1.8191600e+00
   4.2508110e+02   1.8837510e+00
   4.2556330e+02   2.0939870e+00
   4.2604540e+02   2.5068970e+00
   4.2652750e+02   2.6497800e+00
   4.2700960e+02   2.3097760e+00
   4.2749170e+02   1.8720470e+00
   4.2797380e+02   1.6474150e+00
   4.2845600e+02   1.7191620e+00
   4.2893810e+02   1.8298950e+00
   4.2942020e+02   1.9638370e+00
   4.2990230e+02   2.1132970e+00
   4.3038440e+02   2.2577590e+00
   4.3086650e+02   2.3944780e+00
   4.3134870e+02   2.5317380e+00
   4.3183080e+02   2.6930920e+00
   4.3231290e+02   2.8877490e+00
   4.3279500e+02   2.9881590e+00
   4.3327710e+02   2.9876020e+00
   4.3375920e+02   2.9011610e+00
   4.3424140e+02   2.7619250e+00
   4.3472350e+02   2.5617980e+00
   4.3520560e+02   2.2104260e+00
   4.3568770e+02   1.5067600e+00
   4.3616980e+02   7.4147000e-01
   4.3665190e+02   7.1786500e-01
   4.3713410e+02   1.3909230e+00
   4.3761620e+02   1.9563900e+00
   4.3809830e+02   1.4677120e+00
   4.3858040e+02   5.5417600e-01
   4.3906250e+02   4.1832700e-01
   4.3954460e+02   1.4526750e+00
   4.4002680e+02   2.6258390e+00
   4.4050890e+02   2.9619670e+00
   4.4099100e+02   2.7543330e+00
   4.4147310e+02   2.5796360e+00
   4.4195520e+02   3.0909650e+00
   4.4243730e+02   3.4992140e+00
   4.4291950e+02   2.9878770e+00
   4.4340160e+02   1.5735780e+00
   4.4388370e+02   6.0643800e-01
   4.4436580e+02   9.2192800e-01
   4.4484790e+02   1.7403410e+00
   4.4533000e+02   2.4542770e+00
   4.4581220e+02   2.7104950e+00
   4.4629430e+02   3.1352540e+00
   4.4677640e+02   4.3478470e+00
   4.4725850e+02   5.8413540e+00
   4.4774060e+02   6.2869640e+00
   4.4822270e+02   4.1393810e+00
   4.4870490e+02   2.3741990e+00
   4.4918700e+02   2.0635150e+00
   4.4966910e+02   3.6016240e+00
   4.5015120e+02   4.1747130e+00
   4.5063330e+02   3.1707230e+00
   4.5111540e+02   1.8576970e+00
   4.5159760e+02   1.4711530e+00
   4.5207970e+02   2.2766040e+00
   4.5256180e+02   3.1432720e+00
   4.5304390e+02   3.9818340e+00
   4.5352600e+02   4.7274400e+00
   4.5400810e+02   5.1904450e+00
   4.5449030e+02   5.3439790e+00
   4.5497240e+02   5.3985600e+00
   4.5545450e+02   5.5031970e+00
   4.5593660e+02   5.6282960e+00
   4.5641870e+02   5.4901500e+00
   4.5690080e+02   5.0295410e+00
   4.5738300e+02   4.5876310e+00
   4.5786510e+02   4.7201920e+00
   4.5834720e+02   5.2330630e+00
   4.5882930e+02   5.4595950e+00
   4.5931140e+02   4.8907470e+00
   4.5979350e+02   4.2313610e+00
   4.6027570e+02   4.5647810e+00
   4.6075780e+02   5.6954420e+00
   4.6123990e+02   6.6395950e+00
   4.6172200e+02   6.6143950e+00
   4.6220410e+02   6.2114790e+00
   4.6268620e+02   5.9815600e+00
   4.6316840e+02   6.0553970e+00
   4.6365050e+02   6.1653210e+00
   4.6413260e+02   6.3251190e+00
   4.6461470e+02   6.4583280e+00
   4.6509680e+02   6.4646610e+00
   4.6557890e+02   6.0395740e+00
   4.6606110e+02   5.7563020e+00
   4.6654320e+02   5.9822010e+00
   4.6702530e+02   6.6415410e+00
   4.6750740e+02   6.8683090e+00
   4.6798950e+02   6.0606690e+00
   4.6847160e+02   5.2035900e+00
   4.6895380e+02   4.7447810e+00
   4.6943590e+02   4.7241900e+00
   4.6991800e+02   5.0640640e+00
   4.7040010e+02   6.0984800e+00
   4.7088220e+02   7.2642670e+00
   4.7136430e+02   7.6490710e+00
   4.7184650e+02   6.9662020e+00
   4.7232860e+02   6.3144150e+00
   4.7281070e+02   5.8982390e+00
   4.7329280e+02   5.7451320e+00
   4.7377490e+02   6.1922150e+00
   4.7425700e+02   7.3378450e+00
   4.7473920e+02   8.3953320e+00
   4.7522130e+02   8.6372450e+00
   4.7570340e+02   8.1111680e+00
   4.7618550e+02   7.6777270e+00
   4.7666760e+02   7.4725950e+00
   4.7714970e+02   7.4743350e+00
   4.7763190e+02   7.8305590e+00
   4.7811400e+02   8.4056090e+00
   4.7859610e+02   8.7483220e+00
   4.7907820e+02   8.4246830e+00
   4.7956030e+02   7.9362950e+00
   4.8004240e+02   7.8916020e+00
   4.8052460e+02   8.2217330e+00
   4.8100670e+02   8.5969620e+00
   4.8148880e+02   8.8746800e+00
   4.8197090e+02   9.0288390e+00
   4.8245300e+02   9.1315230e+00
   4.8293520e+02   9.2727280e+00
   4.8341730e+02   9.1621250e+00
   4.8389940e+02   8.2390670e+00
   4.8438150e+02   7.0801160e+00
   4.8486360e+02   6.5790330e+00
   4.8534570e+02   7.6935810e+00
   4.8582790e+02   8.7115780e+00
   4.8631000e+02   9.1980290e+00
   4.8679210e+02   9.1547390e+00
   4.8727420e+02   8.9349900e+00
   4.8775630e+02   8.1818700e+00
   4.8823840e+02   7.5597460e+00
   4.8872060e+02   7.5613020e+00
   4.8920270e+02   8.6648940e+00
   4.8968480e+02   9.0829320e+00
   4.9016690e+02   8.5644150e+00
   4.9064900e+02   7.6100690e+00
   4.9113110e+02   7.0015790e+00
   4.9161330e+02   6.7757340e+00
   4.9209540e+02   6.6441800e+00
   4.9257750e+02   6.5663600e+00
   4.9305960e+02   6.4764790e+00
   4.9354170e+02   6.1532210e+00
   4.9402380e+02   5.5950390e+00
   4.9450600e+02   5.1344220e+00
   4.9498810e+02   5.1218260e+00
   4.9547020e+02   5.3905110e+00
   4.9595230e+02   5.5177230e+00
   4.9643440e+02   5.4441220e+00
   4.9691650e+02   5.3512800e+00
   4.9739870e+02   5.2906610e+00
   4.9788080e+02   5.2094350e+00
   4.9836290e+02   5.1659890e+00
   4.9884500e+02   5.2897030e+00
   4.9932710e+02   5.3565520e+00
   4.9980920e+02   5.1815190e+00
   5.0029140e+02   4.8002470e+00
   5.0077350e+02   4.4306260e+00
   5.0125560e+02   4.1229710e+00
   5.0173770e+02   3.8788110e+00
   5.0221980e+02   3.6969950e+00
   5.0270190e+02   3.5632630e+00
   5.0318410e+02   3.4646000e+00
   5.0366620e+02   3.4053080e+00
   5.0414830e+02   3.3806840e+00
   5.0463040e+02   3.3861350e+00
   5.0511250e+02   3.4240190e+00
   5.0559460e+02   3.4857440e+00
   5.0607680e+02   3.6134300e+00
   5.0655890e+02   3.7675020e+00
   5.0704100e+02   3.7124180e+00
   5.0752310e+02   3.3542900e+00
   5.0800520e+02   3.0492360e+00
   5.0848730e+02   2.9690060e+00
   5.0896950e+02   3.1159400e+00
   5.0945160e+02   3.5056840e+00
   5.0993370e+02   4.2257650e+00
   5.1041580e+02   4.8188670e+00
   5.1089790e+02   4.6656490e+00
   5.1138000e+02   3.9099120e+00
   5.1186220e+02   3.1120260e+00
   5.1234430e+02   2.2098430e+00
   5.1282640e+02   1.5343130e+00
   5.1330850e+02   1.5999640e+00
   5.1379060e+02   2.2641680e+00
   5.1427280e+02   3.0152820e+00
   5.1475490e+02   3.8550000e+00
   5.1523700e+02   4.4612010e+00
   5.1571910e+02   4.3769570e+00
   5.1620120e+02   3.5272330e+00
   5.1668330e+02   2.9177360e+00
   5.1716550e+02   3.2575610e+00
   5.1764760e+02   3.9094160e+00
   5.1812970e+02   4.3340450e+00
   5.1861180e+02   4.7033000e+00
   5.1909390e+02   4.4864850e+00
   5.1957600e+02   2.9449730e+00
   5.2005820e+02   7.9657400e-01
   5.2054030e+02   2.7013000e-01
   5.2102240e+02   5.7164000e-01
   5.2150450e+02   1.3458900e+00
   5.2198660e+02   1.3864210e+00
   5.2246880e+02   6.9576300e-01
   5.2295090e+02   8.0974200e-01
   5.2343300e+02   2.0743060e+00
   5.2391510e+02   3.3377650e+00
   5.2439720e+02   3.5880930e+00
   5.2487930e+02   2.7972180e+00
   5.2536150e+02   2.2735940e+00
   5.2584360e+02   2.1704790e+00
   5.2632570e+02   2.2493130e+00
   5.2680780e+02   2.0703740e+00
   5.2728990e+02   1.7253460e+00
   5.2777200e+02   1.6853640e+00
   5.2825420e+02   2.4931030e+00
   5.2873630e+02   3.4254680e+00
   5.2921840e+02   3.5097010e+00
   5.2970050e+02   2.8278620e+00
   5.3018260e+02   1.8313370e+00
   5.3066470e+02   3.5688400e-01
   5.3114690e+02   1.0413550e+00
   5.3162900e+02   1.9639430e+00
   5.3211110e+02   2.3740460e+00
   5.3259320e+02   2.1660270e+00
   5.3307530e+02   7.2326700e-01
   5.3355740e+02   1.1116370e+00
   5.3403960e+02   2.4409680e+00
   5.3452170e+02   3.0761300e+00
   5.3500380e+02   3.2499540e+00
   5.3548590e+02   2.8447300e+00
   5.3596800e+02   2.0000690e+00
   5.3645010e+02   1.0943570e+00
   5.3693230e+02   8.2484998e-02
   5.3741440e+02   9.6524000e-01
   5.3789650e+02   1.3390200e+00
   5.3837860e+02   1.2006650e+00
   5.3886070e+02   6.4935700e-01
   5.3934280e+02   4.7543300e-01
   5.3982500e+02   1.5041080e+00
   5.4030710e+02   1.6119310e+00
   5.4078920e+02   9.1996400e-01
   5.4127130e+02   6.8390700e-01
   5.4175340e+02   1.2268100e+00
   5.4223550e+02   1.9077340e+00
   5.4271770e+02   1.7481160e+00
   5.4319980e+02   9.6044500e-01
   5.4368190e+02   2.2475400e-01
   5.4416400e+02   2.2233200e-01
   5.4464610e+02   4.1348300e-01
   5.4512820e+02   3.1313700e-01
   5.4561040e+02   4.8992001e-02
   5.4609250e+02   4.8536700e-01
   5.4657460e+02   1.2407990e+00
   5.4705670e+02   1.7969320e+00
   5.4753880e+02   1.7029530e+00
   5.4802090e+02   6.3822900e-01
   5.4850310e+02   1.9736500e-01
   5.4898520e+02   5.2901800e-01
   5.4946730e+02   5.2953700e-01
   5.4994940e+02   3.7048300e-01
   5.5043150e+02   1.3987000e-01
   5.5091360e+02   4.9733400e-01
   5.5139580e+02   6.1485700e-01
   5.5187790e+02   5.5438200e-01
   5.5236000e+02   5.1907300e-01
   5.5284210e+02   5.5191400e-01
   5.5332420e+02   4.4442000e-01
   5.5380630e+02   7.2136000e-02
   5.5428850e+02   8.7335600e-01
   5.5477060e+02   8.2397800e-01
   5.5525270e+02   1.4436300e-01
   5.5573480e+02   1.2406230e+00
   5.5621690e+02   1.8688740e+00
   5.5669900e+02   2.0855260e+00
   5.5718120e+02   2.0027620e+00
   5.5766330e+02   1.5876240e+00
   5.5814540e+02   1.0769390e+00
   5.5862750e+02   4.8180400e-01
   5.5910960e+02   1.5686000e-02
   5.5959170e+02   1.0697200e-01
   5.6007390e+02   9.2476700e-01
   5.6055600e+02   1.8356820e+00
   5.6103810e+02   1.7796710e+00
   5.6152020e+02   9.9992800e-01
   5.6200230e+02   5.8214600e-01
   5.6248440e+02   1.2279400e+00
   5.6296660e+02   1.9269870e+00
   5.6344870e+02   2.2127110e+00
   5.6393080e+02   1.9955520e+00
   5.6441290e+02   1.7768140e+00
   5.6489500e+02   1.5091590e+00
   5.6537710e+02   1.2906610e+00
   5.6585930e+02   1.2303920e+00
   5.6634140e+02   1.3900600e+00
   5.6682350e+02   1.4490090e+00
   5.6730560e+02   1.3880310e+00
   5.6778770e+02   1.1948130e+00
   5.6826980e+02   6.5891300e-01
   5.6875200e+02   1.7943600e-01
   5.6923410e+02   5.2805700e-01
   5.6971620e+02   2.9372800e-01
   5.7019830e+02   1.5322340e+00
   5.7068040e+02   1.6778830e+00
   5.7116250e+02   8.6962500e-01
   5.7164470e+02   8.1744999e-02
   5.7212680e+02   2.2072000e-02
   5.7260890e+02   1.8629100e-01
   5.7309100e+02   3.3223000e-01
   5.7357310e+02   3.4863300e-01
   5.7405520e+02   5.0942600e-01
   5.7453740e+02   1.1820180e+00
   5.7501950e+02   1.9391170e+00
   5.7550160e+02   2.3836670e+00
   5.7598370e+02   2.2161030e+00
   5.7646580e+02   2.0028800e+00
   5.7694790e+02   1.5977250e+00
   5.7743010e+02   1.2217520e+00
   5.7791220e+02   1.3658490e+00
   5.7839430e+02   2.3715290e+00
   5.7887640e+02   3.1830560e+00
   5.7935850e+02   3.4025080e+00
   5.7984060e+02   3.1261330e+00
   5.8032280e+02   3.0790520e+00
   5.8080490e+02   3.3015940e+00
   5.8128700e+02   3.5172230e+00
   5.8176910e+02   3.4658280e+00
   5.8225120e+02   3.2390250e+00
   5.8273330e+02   3.2489170e+00
   5.8321550e+02   3.5421180e+00
   5.8369750e+02   3.8532070e+00
   5.8417960e+02   3.8406330e+00
   5.8466170e+02   3.7028730e+00
   5.8514390e+02   3.8102570e+00
   5.8562600e+02   4.4810220e+00
   5.8610810e+02   5.0259780e+00
   5.8659020e+02   4.8088840e+00
   5.8707230e+02   4.1897620e+00
   5.8755440e+02   3.8665240e+00
   5.8803660e+02   4.4261820e+00
   5.8851870e+02   4.9076000e+00
   5.8900080e+02   4.9084320e+00
   5.8948290e+02   4.4550210e+00
   5.8996500e+02   3.9286580e+00
   5.9044710e+02   3.0864940e+00
   5.9092930e+02   2.6536100e+00
   5.9141140e+02   2.9964100e+00
   5.9189350e+02   4.1820140e+00
   5.9237560e+02   5.2475970e+00
   5.9285770e+02   6.2914850e+00
   5.9333980e+02   6.9501910e+00
   5.9382200e+02   6.4587520e+00
   5.9430410e+02   5.0378420e+00
   5.9478620e+02   4.5497320e+00
   5.9526830e+02   5.5564960e+00
   5.9575040e+02   6.9251790e+00
   5.9623250e+02   7.1252440e+00
   5.9671470e+02   6.5350570e+00
   5.9719680e+02   6.0881960e+00
   5.9767890e+02   6.1581380e+00
   5.9816100e+02   6.4459990e+00
   5.9864310e+02   6.8743100e+00
   5.9912520e+02   7.3802260e+00
   5.9960740e+02   7.6880720e+00
   6.0008950e+02   7.4541320e+00
   6.0057160e+02   7.2065240e+00
   6.0105370e+02   7.2539330e+00
   6.0153580e+02   7.7283740e+00
   6.0201790e+02   7.9009130e+00
   6.0250010e+02   7.4630700e+00
   6.0298220e+02   7.0631260e+00
   6.0346430e+02   7.2456440e+00
   6.0394640e+02   8.2035520e+00
   6.0442850e+02   8.8723340e+00
   6.0491060e+02   9.0814670e+00
   6.0539280e+02   9.1831050e+00
   6.0587490e+02   9.8599400e+00
   6.0635700e+02   1.1030180e+01
   6.0683910e+02   1.1844360e+01
   6.0732120e+02   1.1967080e+01
   6.0780330e+02   1.1754220e+01
   6.0828550e+02   1.1658240e+01
   6.0876760e+02   1.1655780e+01
   6.0924970e+02   1.1753060e+01
   6.0973180e+02   1.1989510e+01
   6.1021390e+02   1.2300540e+01
   6.1069600e+02   1.2721000e+01
   6.1117820e+02   1.3236760e+01
   6.1166030e+02   1.3511830e+01
   6.1214240e+02   1.3189220e+01
   6.1262450e+02   1.2760860e+01
   6.1310660e+02   1.2524740e+01
   6.1358870e+02   1.2371310e+01
   6.1407090e+02   1.2551340e+01
   6.1455300e+02   1.3229150e+01
   6.1503510e+02   1.4096760e+01
   6.1551720e+02   1.4837840e+01
   6.1599930e+02   1.5422560e+01
   6.1648140e+02   1.6065710e+01
   6.1696360e+02   1.6846390e+01
   6.1744570e+02   1.7615300e+01
   6.1792780e+02   1.8027860e+01
   6.1840990e+02   1.8111720e+01
   6.1889200e+02   1.8300470e+01
   6.1937410e+02   1.8929160e+01
   6.1985630e+02   1.9652760e+01
   6.2033840e+02   1.9722850e+01
   6.2082050e+02   1.9320790e+01
   6.2130260e+02   1.9371280e+01
   6.2178470e+02   2.0800760e+01
   6.2226680e+02   2.2607410e+01
   6.2274900e+02   2.4094910e+01
   6.2323110e+02   2.5201350e+01
   6.2371320e+02   2.6034490e+01
   6.2419530e+02   2.6444870e+01
   6.2467740e+02   2.6712900e+01
   6.2515950e+02   2.7023780e+01
   6.2564170e+02   2.7311160e+01
   6.2612380e+02   2.7787640e+01
   6.2660590e+02   2.8477160e+01
   6.2708800e+02   2.9293120e+01
   6.2757010e+02   3.0229930e+01
   6.2805220e+02   3.1278730e+01
   6.2853440e+02   3.2226470e+01
   6.2901650e+02   3.3056220e+01
   6.2949860e+02   3.3717050e+01
   6.2998070e+02   3.3988170e+01
   6.3046280e+02   3.3955420e+01
   6.3094490e+02   3.4052750e+01
   6.3142710e+02   3.4472840e+01
   6.3190920e+02   3.5146010e+01
   6.3239130e+02   3.6196170e+01
   6.3287340e+02   3.7526450e+01
   6.3335550e+02   3.8534340e+01
   6.3383760e+02   3.8669130e+01
   6.3431980e+02   3.8730660e+01
   6.3480190e+02   3.9005210e+01
   6.3528400e+02   3.9399590e+01
   6.3576610e+02   3.9779670e+01
   6.3624820e+02   4.0047960e+01
   6.3673030e+02   4.0525040e+01
   6.3721250e+02   4.1410940e+01
   6.3769460e+02   4.2903690e+01
   6.3817670e+02   4.3973090e+01
   6.3865880e+02   4.4586370e+01
   6.3914090e+02   4.4780800e+01
   6.3962300e+02   4.4416790e+01
   6.4010520e+02   4.3544520e+01
   6.4058730e+02   4.2929950e+01
   6.4106940e+02   4.2834530e+01
   6.4155150e+02   4.2978810e+01
   6.4203360e+02   4.3023640e+01
   6.4251570e+02   4.2969910e+01
   6.4299790e+02   4.2817950e+01
   6.4348000e+02   4.2564110e+01
   6.4396210e+02   4.2215130e+01
   6.4444420e+02   4.1729540e+01
   6.4492630e+02   4.1149670e+01
   6.4540840e+02   4.0648570e+01
   6.4589060e+02   4.0372130e+01
   6.4637270e+02   4.0001190e+01
   6.4685480e+02   3.9288640e+01
   6.4733690e+02   3.8155870e+01
   6.4781900e+02   3.7325100e+01
   6.4830110e+02   3.6870460e+01
   6.4878330e+02   3.6617490e+01
   6.4926540e+02   3.6618050e+01
   6.4974750e+02   3.6947040e+01
   6.5022960e+02   3.6409830e+01
   6.5071170e+02   3.4784120e+01
   6.5119380e+02   3.2900970e+01
   6.5167600e+02   3.1898640e+01
   6.5215810e+02   3.1549850e+01
   6.5264020e+02   3.1056460e+01
   6.5312230e+02   3.0159440e+01
   6.5360440e+02   2.9102830e+01
   6.5408650e+02   2.7749550e+01
   6.5456870e+02   2.6432440e+01
   6.5505080e+02   2.5643880e+01
   6.5553290e+02   2.6162300e+01
   6.5601500e+02   2.6531750e+01
   6.5649710e+02   2.6209430e+01
   6.5697920e+02   2.5301600e+01
   6.5746140e+02   2.4367340e+01
   6.5794350e+02   2.3308810e+01
   6.5842560e+02   2.2332140e+01
   6.5890770e+02   2.1515610e+01
   6.5938980e+02   2.0893370e+01
   6.5987190e+02   2.0309160e+01
   6.6035410e+02   1.9760930e+01
   6.6083620e+02   1.9261900e+01
   6.6131830e+02   1.8812090e+01
   6.6180040e+02   1.8417760e+01
   6.6228250e+02   1.8104160e+01
   6.6276460e+02   1.7887720e+01
   6.6324680e+02   1.7671510e+01
   6.6372890e+02   1.7323840e+01
   6.6421100e+02   1.6918350e+01
   6.6469310e+02   1.6579210e+01
   6.6517520e+02   1.6384360e+01
   6.6565730e+02   1.6079420e+01
   6.6613950e+02   1.5526730e+01
   6.6662160e+02   1.4803750e+01
   6.6710370e+02   1.3967620e+01
   6.6758580e+02   1.2623500e+01
   6.6806790e+02   1.1697500e+01
   6.6855000e+02   1.1402750e+01
   6.6903220e+02   1.1507850e+01
   6.6951430e+02   1.1559390e+01
   6.6999640e+02   1.1621970e+01
   6.7047850e+02   1.1556440e+01
   6.7096060e+02   1.1268260e+01
   6.7144270e+02   1.0782930e+01
   6.7192490e+02   1.0146530e+01
   6.7240700e+02   9.3921780e+00
   6.7288910e+02   8.7176970e+00
   6.7337120e+02   8.5910110e+00
   6.7385330e+02   8.4608000e+00
   6.7433540e+02   7.1853600e+00
   6.7481760e+02   4.9509510e+00
   6.7529970e+02   3.5671960e+00
   6.7578180e+02   4.6560590e+00
   6.7626390e+02   6.3409080e+00
   6.7674600e+02   7.5931400e+00
   6.7722810e+02   8.3152540e+00
   6.7771030e+02   8.3828200e+00
   6.7819240e+02   7.4127160e+00
   6.7867450e+02   6.1959420e+00
   6.7915660e+02   5.2140960e+00
   6.7963870e+02   4.4247510e+00
   6.8012080e+02   4.3243370e+00
   6.8060300e+02   5.1005630e+00
   6.8108510e+02   6.0168570e+00
   6.8156720e+02   6.1422390e+00
   6.8204930e+02   5.6353490e+00
   6.8253140e+02   5.1485900e+00
   6.8301350e+02   4.8302800e+00
   6.8349570e+02   4.6119350e+00
   6.8397780e+02   4.3924670e+00
   6.8445990e+02   4.2280120e+00
   6.8494200e+02   4.2305720e+00
   6.8542410e+02   4.8610000e+00
   6.8590630e+02   5.2200930e+00
   6.8638840e+02   4.6155510e+00
   6.8687050e+02   3.4221420e+00
   6.8735260e+02   2.9680980e+00
   6.8783470e+02   3.9092220e+00
   6.8831680e+02   4.7288930e+00
   6.8879900e+02   5.0337910e+00
   6.8928110e+02   4.8788640e+00
   6.8976320e+02   4.6909450e+00
   6.9024530e+02   4.5491940e+00
   6.9072740e+02   3.8548810e+00
   6.9120950e+02   1.4452550e+00
   6.9169170e+02   1.7201120e+00
   6.9217380e+02   2.3190040e+00
   6.9265590e+02   4.2091800e-01
   6.9313800e+02   1.3960080e+00
   6.9362010e+02   7.6456100e-01
   6.9410220e+02   5.8036000e-01
   6.9458440e+02   8.2798400e-01
   6.9506650e+02   4.5226300e-01
   6.9554860e+02   1.4807050e+00
   6.9603070e+02   1.4725300e+00
   6.9651280e+02   1.0797460e+00
   6.9699490e+02   8.0525600e-01
   6.9747710e+02   6.5684100e-01
   6.9795920e+02   6.5203500e-01
   6.9844130e+02   8.3555200e-01
   6.9892340e+02   1.1071780e+00
   6.9940550e+02   1.3764230e+00
   6.9988760e+02   1.6458020e+00
   7.0036980e+02   1.8530540e+00
   7.0085190e+02   2.0325090e+00
   7.0133400e+02   2.0243530e+00
   7.0181610e+02   1.2790720e+00
   7.0229820e+02   1.6271600e-01
   7.0278030e+02   3.8180500e-01
   7.0326250e+02   4.3411600e-01
   7.0374460e+02   1.3992500e+00
   7.0422670e+02   1.7131120e+00
   7.0470880e+02   1.5766490e+00
   7.0519090e+02   1.4249340e+00
   7.0567300e+02   1.3936160e+00
   7.0615520e+02   1.3318210e+00
   7.0663730e+02   1.1915930e+00
   7.0711940e+02   9.8930400e-01
   7.0760150e+02   8.2132300e-01
   7.0808360e+02   7.3352800e-01
   7.0856570e+02   5.1853600e-01
   7.0904790e+02   8.4572002e-02
   7.0953000e+02   8.6670700e-01
   7.1001210e+02   6.7608300e-01
   7.1049420e+02   4.3864100e-01
   7.1097630e+02   1.2731290e+00
   7.1145840e+02   6.1116800e-01
   7.1194060e+02   5.7331800e-01
   7.1242270e+02   9.8306300e-01
   7.1290480e+02   5.7299400e-01
   7.1338690e+02   2.3299400e-01
   7.1386900e+02   5.8013900e-01
   7.1435110e+02   1.0080600e+00
   7.1483330e+02   1.1403580e+00
   7.1531540e+02   9.0583400e-01
   7.1579750e+02   3.9650300e-01
   7.1627960e+02   6.7562100e-01
   7.1676170e+02   1.6766400e+00
   7.1724380e+02   2.0791470e+00
   7.1772600e+02   1.8287200e+00
   7.1820810e+02   1.5381160e+00
   7.1869020e+02   1.2429470e+00
   7.1917230e+02   9.2047500e-01
   7.1965440e+02   5.0088500e-01
   7.2013650e+02   3.8394999e-02
   7.2061870e+02   3.2994800e-01
   7.2110080e+02   5.7309700e-01
   7.2158290e+02   7.3144500e-01
   7.2206500e+02   9.3228100e-01
   7.2254710e+02   1.0377580e+00
   7.2302920e+02   8.6424600e-01
   7.2351140e+02   5.0689999e-02
   7.2399350e+02   6.6395600e-01
   7.2447560e+02   1.2179180e+00
   7.2495770e+02   1.5913160e+00
   7.2543980e+02   1.7676620e+00
   7.2592190e+02   1.7815480e+00
   7.2640410e+02   1.4197690e+00
   7.2688620e+02   4.5385000e-01
   7.2736830e+02   7.2192400e-01
   7.2785040e+02   1.0733380e+00
   7.2833250e+02   6.9277200e-01
   7.2881460e+02   1.7145200e-01
   7.2929680e+02   4.7448000e-01
   7.2977890e+02   9.0810400e-01
   7.3026100e+02   4.2707800e-01
   7.3074310e+02   6.4809400e-01
   7.3122520e+02   1.2550050e+00
   7.3170730e+02   3.7982600e-01
   7.3218950e+02   5.2196500e-01
   7.3267160e+02   7.4233600e-01
   7.3315370e+02   3.1556300e-01
   7.3363580e+02   1.3192700e-01
   7.3411790e+02   2.5647400e-01
   7.3460000e+02   5.3125000e-01
   7.3508220e+02   1.0427090e+00
   7.3556430e+02   1.7111510e+00
   7.3604640e+02   1.5211070e+00
   7.3652850e+02   4.2690700e-01
   7.3701060e+02   6.0657500e-01
   7.3749270e+02   9.3816800e-01
   7.3797490e+02   7.3692300e-01
   7.3845700e+02   1.7702100e-01
   7.3893910e+02   7.1374500e-01
   7.3942120e+02   1.6089250e+00
   7.3990330e+02   2.4604610e+00
   7.4038540e+02   3.1389770e+00
   7.4086760e+02   3.5075380e+00
   7.4134970e+02   3.4592020e+00
   7.4183180e+02   3.4839630e+00
   7.4231390e+02   3.8200190e+00
   7.4279600e+02   4.0117760e+00
   7.4327810e+02   3.5949630e+00
   7.4376030e+02   2.3809850e+00
   7.4424240e+02   2.0278890e+00
   7.4472450e+02   2.7371290e+00
   7.4520660e+02   3.6484150e+00
   7.4568870e+02   3.8162420e+00
   7.4617080e+02   3.4875950e+00
   7.4665300e+02   3.2982830e+00
   7.4713510e+02   3.3679080e+00
   7.4761720e+02   3.5224080e+00
   7.4809930e+02   3.6566280e+00
   7.4858140e+02   3.7968370e+00
   7.4906350e+02   3.9678120e+00
   7.4954570e+02   4.0130160e+00
   7.5002780e+02   4.0980990e+00
   7.5050990e+02   4.4002490e+00
   7.5099200e+02   4.8224600e+00
   7.5147410e+02   5.3263400e+00
   7.5195620e+02   5.9404640e+00
   7.5243840e+02   6.1627430e+00
   7.5292050e+02   5.8976860e+00
   7.5340260e+02   5.4593810e+00
   7.5388470e+02   5.5477100e+00
   7.5436680e+02   6.0024340e+00
   7.5484890e+02   6.1385880e+00
   7.5533110e+02   5.5268250e+00
   7.5581320e+02   4.9410100e+00
   7.5629530e+02   5.1858710e+00
   7.5677740e+02   5.9117470e+00
   7.5725950e+02   6.5031930e+00
   7.5774160e+02   6.6745380e+00
   7.5822380e+02   6.8092000e+00
   7.5870590e+02   7.0057260e+00
   7.5918800e+02   7.2277910e+00
   7.5967010e+02   7.3753050e+00
   7.6015220e+02   7.3711550e+00
   7.6063430e+02   7.4818690e+00
   7.6111650e+02   7.9206500e+00
   7.6159860e+02   8.4963680e+00
   7.6208070e+02   8.8069040e+00
   7.6256280e+02   8.8937000e+00
   7.6304490e+02   8.9924580e+00
   7.6352700e+02   9.0807300e+00
   7.6400920e+02   9.3453330e+00
   7.6449130e+02   1.0252170e+01
   7.6497340e+02   1.1520580e+01
   7.6545550e+02   1.2294240e+01
   7.6593760e+02   1.1656130e+01
   7.6641970e+02   1.1099260e+01
   7.6690190e+02   1.1216290e+01
   7.6738400e+02   1.1820450e+01
   7.6786610e+02   1.2206830e+01
   7.6834820e+02   1.2337020e+01
   7.6883030e+02   1.2490790e+01
   7.6931240e+02   1.2808720e+01
   7.6979460e+02   1.3188160e+01
   7.7027670e+02   1.3532350e+01
   7.7075880e+02   1.3888080e+01
   7.7124090e+02   1.4208080e+01
   7.7172300e+02   1.4403240e+01
   7.7220510e+02   1.4516420e+01
   7.7268730e+02   1.4562700e+01
   7.7316940e+02   1.4589410e+01
   7.7365150e+02   1.4762530e+01
   7.7413360e+02   1.5171620e+01
   7.7461570e+02   1.5684010e+01
   7.7509780e+02   1.6325010e+01
   7.7558000e+02   1.7082820e+01
   7.7606210e+02   1.7649210e+01
   7.7654420e+02   1.8026900e+01
   7.7702630e+02   1.8204060e+01
   7.7750840e+02   1.8059390e+01
   7.7799050e+02   1.7685600e+01
   7.7847270e+02   1.7504210e+01
   7.7895480e+02   1.7524540e+01
   7.7943690e+02   1.7805030e+01
   7.7991900e+02   1.8820400e+01
   7.8040110e+02   1.9827650e+01
   7.8088320e+02   1.9994220e+01
   7.8136540e+02   1.9311980e+01
   7.8184750e+02   1.8711730e+01
   7.8232960e+02   1.8436450e+01
   7.8281170e+02   1.8368450e+01
   7.8329380e+02   1.8511370e+01
   7.8377590e+02   1.8909650e+01
   7.8425810e+02   1.8949960e+01
   7.8474020e+02   1.8505970e+01
   7.8522230e+02   1.8057650e+01
   7.8570440e+02   1.8018550e+01
   7.8618650e+02   1.8347620e+01
   7.8666860e+02   1.8815250e+01
   7.8715080e+02   1.9391430e+01
   7.8763290e+02   1.9726740e+01
   7.8811500e+02   1.9293720e+01
   7.8859710e+02   1.8641270e+01
   7.8907920e+02   1.8462130e+01
   7.8956130e+02   1.9013200e+01
   7.9004350e+02   1.9135400e+01
   7.9052560e+02   1.7780590e+01
   7.9100770e+02   1.6582890e+01
   7.9148980e+02   1.6556380e+01
   7.9197190e+02   1.7983480e+01
   7.9245400e+02   1.8525770e+01
   7.9293620e+02   1.8054070e+01
   7.9341830e+02   1.7187840e+01
   7.9390040e+02   1.6161800e+01
   7.9438250e+02   1.5168780e+01
   7.9486460e+02   1.4881150e+01
   7.9534670e+02   1.5360810e+01
   7.9582890e+02   1.5917710e+01
   7.9631100e+02   1.6290950e+01
   7.9679310e+02   1.6340620e+01
   7.9727520e+02   1.5807850e+01
   7.9775730e+02   1.4424450e+01
   7.9823940e+02   1.3555390e+01
   7.9872160e+02   1.3562560e+01
   7.9920370e+02   1.3876380e+01
   7.9968580e+02   1.4274200e+01
   8.0016790e+02   1.4843480e+01
   8.0065000e+02   1.4676440e+01
   8.0113210e+02   1.3656470e+01
   8.0161430e+02   1.2624590e+01
   8.0209640e+02   1.2429530e+01
   8.0257850e+02   1.2740070e+01
   8.0306060e+02   1.2986810e+01
   8.0354270e+02   1.3112070e+01
   8.0402480e+02   1.3028940e+01
   8.0450700e+02   1.2477910e+01
   8.0498910e+02   1.1841950e+01
   8.0547120e+02   1.1381030e+01
   8.0595330e+02   1.1088830e+01
   8.0643540e+02   1.1185980e+01
   8.0691750e+02   1.2111830e+01
   8.0739970e+02   1.2782660e+01
   8.0788180e+02   1.2059040e+01
   8.0836390e+02   9.9973980e+00
   8.0884600e+02   9.1628150e+00
   8.0932810e+02   9.7103840e+00
   8.0981020e+02   1.0622200e+01
   8.1029240e+02   1.1241960e+01
   8.1077450e+02   1.1545090e+01
   8.1125660e+02   1.1371730e+01
   8.1173870e+02   1.0641480e+01
   8.1222080e+02   1.0084250e+01
   8.1270290e+02   1.0153710e+01
   8.1318510e+02   1.0390210e+01
   8.1366720e+02   1.0447920e+01
   8.1414930e+02   1.0222570e+01
   8.1463140e+02   1.0306180e+01
   8.1511350e+02   1.0856050e+01
   8.1559560e+02   1.1320350e+01
   8.1607780e+02   1.1145480e+01
   8.1655990e+02   1.0480270e+01
   8.1704200e+02   1.0040220e+01
   8.1752410e+02   9.8655780e+00
   8.1800620e+02   9.6804580e+00
   8.1848830e+02   9.1764720e+00
   8.1897050e+02   8.6064070e+00
   8.1945260e+02   8.1804350e+00
   8.1993470e+02   7.9124110e+00
   8.2041680e+02   7.8967820e+00
   8.2089890e+02   8.5008810e+00
   8.2138100e+02   9.0430150e+00
   8.2186320e+02   9.1661800e+00
   8.2234530e+02   8.8321230e+00
   8.2282740e+02   8.4039760e+00
   8.2330950e+02   7.8568610e+00
   8.2379160e+02   7.4211270e+00
   8.2427370e+02   7.3512080e+00
   8.2475590e+02   7.5106160e+00
   8.2523800e+02   7.7215000e+00
   8.2572010e+02   7.9593890e+00
   8.2620220e+02   7.9403080e+00
   8.2668430e+02   7.0761680e+00
   8.2716640e+02   6.2206920e+00
   8.2764860e+02   6.0229110e+00
   8.2813070e+02   6.6584170e+00
   8.2861280e+02   7.0881460e+00
   8.2909490e+02   7.2201920e+00
   8.2957700e+02   7.3016510e+00
   8.3005910e+02   7.5022050e+00
   8.3054130e+02   7.7952380e+00
   8.3102340e+02   7.8915980e+00
   8.3150550e+02   7.7917100e+00
   8.3198760e+02   7.5777660e+00
   8.3246970e+02   7.1673850e+00
   8.3295180e+02   6.7621990e+00
   8.3343400e+02   6.6397170e+00
   8.3391610e+02   6.7784770e+00
   8.3439820e+02   6.8598020e+00
   8.3488030e+02   6.8206210e+00
   8.3536240e+02   6.6793250e+00
   8.3584450e+02   6.4019780e+00
   8.3632670e+02   6.0017850e+00
   8.3680880e+02   5.7742540e+00
   8.3729090e+02   5.7493130e+00
   8.3777300e+02   5.7709310e+00
   8.3825510e+02   5.7948070e+00
   8.3873720e+02   5.8105390e+00
   8.3921940e+02   5.6814380e+00
   8.3970150e+02   5.4024160e+00
   8.4018360e+02   5.2035370e+00
   8.4066570e+02   5.4208950e+00
   8.4114780e+02   5.6163220e+00
   8.4162990e+02   5.4611050e+00
   8.4211210e+02   4.9912610e+00
   8.4259420e+02   4.6365590e+00
   8.4307630e+02   4.4298900e+00
   8.4355840e+02   4.3227160e+00
   8.4404050e+02   4.3293000e+00
   8.4452260e+02   4.4135060e+00
   8.4500480e+02   4.3589440e+00
   8.4548690e+02   4.1875420e+00
   8.4596900e+02   4.2511480e+00
   8.4645110e+02   5.0665360e+00
   8.4693320e+02   5.9181630e+00
   8.4741530e+02   5.8194690e+00
   8.4789750e+02   5.0989460e+00
   8.4837960e+02   4.7085150e+00
   8.4886170e+02   5.6543770e+00
   8.4934380e+02   6.1777610e+00
   8.4982590e+02   5.4818150e+00
   8.5030800e+02   4.0896260e+00
   8.5079020e+02   3.6654930e+00
   8.5127230e+02   4.4374470e+00
   8.5175440e+02   4.8765950e+00
   8.5223650e+02   4.3833350e+00
   8.5271860e+02   3.5909920e+00
   8.5320070e+02   3.6825260e+00
   8.5368290e+02   4.4046210e+00
   8.5416500e+02   5.0875090e+00
   8.5464710e+02   5.6192090e+00
   8.5512920e+02   5.8033600e+00
   8.5561130e+02   5.2266430e+00
   8.5609340e+02   4.3373300e+00
   8.5657560e+02   3.9685480e+00
   8.5705770e+02   4.3997270e+00
   8.5753980e+02   4.8670650e+00
   8.5802190e+02   5.3516880e+00
   8.5850400e+02   5.7230380e+00
   8.5898610e+02   5.7789960e+00
   8.5946830e+02   5.5515980e+00
   8.5995040e+02   5.1776500e+00
   8.6043250e+02   4.6662180e+00
   8.6091460e+02   4.1151890e+00
   8.6139670e+02   3.4942400e+00
   8.6187880e+02   2.9461900e+00
   8.6236100e+02   2.6531220e+00
   8.6284310e+02   2.8396910e+00
   8.6332520e+02   2.9698140e+00
   8.6380730e+02   2.9160840e+00
   8.6428940e+02   2.8519210e+00
   8.6477150e+02   3.1270980e+00
   8.6525370e+02   3.7837830e+00
   8.6573580e+02   3.8461880e+00
   8.6621790e+02   3.1739350e+00
   8.6670000e+02   2.3777960e+00
   8.6718210e+02   2.0391770e+00
   8.6766420e+02   2.0405270e+00
   8.6814640e+02   2.2641790e+00
   8.6862850e+02   2.7156790e+00
   8.6911060e+02   2.8134310e+00
   8.6959270e+02   1.8153000e+00
   8.7007480e+02   8.8135900e-01
   8.7055690e+02   8.2180400e-01
   8.7103910e+02   1.7945520e+00
   8.7152120e+02   2.5112920e+00
   8.7200330e+02   2.9530140e+00
   8.7248540e+02   3.2078360e+00
   8.7296750e+02   3.4085920e+00
   8.7344960e+02   3.4308010e+00
   8.7393180e+02   2.7156030e+00
   8.7441390e+02   1.3581810e+00
   8.7489600e+02   5.1606400e-01
   8.7537810e+02   1.5231900e+00
   8.7586020e+02   2.7130890e+00
   8.7634230e+02   2.9307940e+00
   8.7682450e+02   2.1149860e+00
   8.7730660e+02   1.6329120e+00
   8.7778870e+02   1.4811440e+00
   8.7827080e+02   1.7158360e+00
   8.7875290e+02   2.6102870e+00
   8.7923500e+02   3.7998770e+00
   8.7971720e+02   3.9519620e+00
   8.8019930e+02   3.2064090e+00
   8.8068140e+02   2.3702550e+00
   8.8116350e+02   1.4833450e+00
   8.8164560e+02   8.7381400e-01
   8.8212770e+02   1.0757450e+00
   8.8260990e+02   1.7762870e+00
   8.8309200e+02   2.0111690e+00
   8.8357410e+02   9.6795300e-01
   8.8405620e+02   3.4100000e-01
   8.8453830e+02   5.3541600e-01
   8.8502040e+02   1.1916470e+00
   8.8550260e+02   1.4861030e+00
   8.8598470e+02   1.4446600e+00
   8.8646680e+02   1.4067610e+00
   8.8694890e+02   1.4627570e+00
   8.8743100e+02   1.6411860e+00
   8.8791310e+02   2.0436130e+00
   8.8839530e+02   2.4469800e+00
   8.8887740e+02   2.5384900e+00
   8.8935950e+02   2.1438830e+00
   8.8984160e+02   1.5260510e+00
   8.9032370e+02   3.0363100e-01
   8.9080580e+02   7.5928100e-01
   8.9128800e+02   7.0724900e-01
   8.9177010e+02   5.7963900e-01
   8.9225220e+02   1.3729670e+00
   8.9273430e+02   1.5103990e+00
   8.9321640e+02   1.2943310e+00
   8.9369850e+02   8.3263400e-01
   8.9418070e+02   3.0638500e-01
   8.9466280e+02   1.3863000e-02
   8.9514490e+02   5.1846001e-02
   8.9562700e+02   1.1864000e-02
   8.9610910e+02   8.2060200e-01
   8.9659120e+02   1.3461490e+00
   8.9707340e+02   8.2495100e-01
   8.9755550e+02   8.8536800e-01
   8.9803760e+02   1.8108480e+00
   8.9851970e+02   1.8794210e+00
   8.9900180e+02   1.5779720e+00
   8.9948390e+02   1.0110630e+00
   8.9996610e+02   4.3753400e-01
   9.0044820e+02   2.8240600e-01
   9.0093030e+02   4.9102800e-01
   9.0141240e+02   7.6554900e-01
   9.0189450e+02   1.0702820e+00
   9.0237660e+02   1.3011280e+00
   9.0285880e+02   1.4583090e+00
   9.0334090e+02   1.5094490e+00
   9.0382300e+02   1.1633760e+00
   9.0430510e+02   1.8224000e-01
   9.0478720e+02   1.8370400e-01
   9.0526930e+02   8.3090600e-01
   9.0575150e+02   2.2605510e+00
   9.0623360e+02   1.8023260e+00
   9.0671570e+02   8.8932000e-02
   9.0719780e+02   1.0385670e+00
   9.0767990e+02   4.5239300e-01
   9.0816200e+02   4.1885000e-01
   9.0864420e+02   1.1621060e+00
   9.0912630e+02   1.7035750e+00
   9.0960840e+02   1.9524880e+00
   9.1009050e+02   1.9107440e+00
   9.1057260e+02   1.4989050e+00
   9.1105470e+02   5.3826900e-01
   9.1153690e+02   3.9184200e-01
   9.1201900e+02   3.6860300e-01
   9.1250110e+02   2.9578000e-01
   9.1298320e+02   7.2811100e-01
   9.1346530e+02   7.7268600e-01
   9.1394740e+02   6.2418700e-01
   9.1442960e+02   2.0072900e-01
   9.1491170e+02   2.2567000e-01
   9.1539380e+02   3.9947900e-01
   9.1587590e+02   2.4128300e-01
   9.1635800e+02   1.0582000e-01
   9.1684010e+02   1.1387000e-02
   9.1732230e+02   1.2834500e-01
   9.1780440e+02   3.6545600e-01
   9.1828650e+02   6.9391300e-01
   9.1876860e+02   1.2815060e+00
   9.1925070e+02   2.0550730e+00
   9.1973280e+02   2.3631820e+00
   9.2021500e+02   1.2032390e+00
   9.2069710e+02   1.0956000e-02
   9.2117920e+02   3.1267500e-01
   9.2166130e+02   2.1104400e-01
   9.2214340e+02   5.5231500e-01
   9.2262550e+02   6.6195300e-01
   9.2310770e+02   6.5138200e-01
   9.2358980e+02   5.5619800e-01
   9.2407190e+02   3.5435900e-01
   9.2455400e+02   1.7324800e-01
   9.2503610e+02   8.9390900e-01
   9.2551820e+02   1.2375870e+00
   9.2600040e+02   7.7360900e-01
   9.2648250e+02   2.4571200e-01
   9.2696460e+02   1.2573200e-01
   9.2744670e+02   2.3354000e-01
   9.2792880e+02   3.0146000e-01
   9.2841090e+02   2.7906000e-01
   9.2889310e+02   2.8708600e-01
   9.2937520e+02   3.6534100e-01
   9.2985730e+02   4.0329700e-01
   9.3033940e+02   2.3134600e-01
   9.3082150e+02   8.9576997e-02
   9.3130360e+02   3.7560700e-01
   9.3178580e+02   6.1451000e-01
   9.3226790e+02   7.1708300e-01
   9.3275000e+02   3.8526500e-01
   9.3323210e+02   7.1696997e-02
   9.3371420e+02   2.1164300e-01
   9.3419640e+02   9.3597800e-01
   9.3467850e+02   1.2377470e+00
   9.3516060e+02   9.1987200e-01
   9.3564270e+02   6.7443100e-01
   9.3612480e+02   1.0617830e+00
   9.3660690e+02   1.7442860e+00
   9.3708910e+02   1.3667490e+00
   9.3757120e+02   1.4569900e-01
   9.3805330e+02   8.2721300e-01
   9.3853540e+02   9.5061900e-01
   9.3901750e+02   6.6236100e-01
   9.3949960e+02   8.7219000e-02
   9.3998180e+02   1.0521510e+00
   9.4046390e+02   1.5332790e+00
   9.4094600e+02   1.3654060e+00
   9.4142810e+02   1.0644040e+00
   9.4191020e+02   6.1739000e-01
   9.4239230e+02   2.5804900e-01
   9.4287450e+02   6.2262700e-01
   9.4335660e+02   1.3939630e+00
   9.4383870e+02   1.5210950e+00
   9.4432080e+02   5.1237100e-01
   9.4480290e+02   2.6401100e-01
   9.4528500e+02   2.3249400e-01
   9.4576720e+02   1.1595610e+00
   9.4624930e+02   1.7586250e+00
   9.4673140e+02   1.9881100e+00
   9.4721350e+02   1.8913840e+00
   9.4769560e+02   1.3668590e+00
   9.4817770e+02   8.7964600e-01
   9.4865990e+02   8.6171700e-01
   9.4914200e+02   1.1376650e+00
   9.4962410e+02   1.2357640e+00
   9.5010620e+02   1.1603010e+00
   9.5058830e+02   1.1584050e+00
   9.5107040e+02   1.5435030e+00
   9.5155260e+02   1.8276180e+00
   9.5203470e+02   1.6294210e+00
   9.5251680e+02   1.1206630e+00
   9.5299890e+02   9.8537800e-01
   9.5348100e+02   1.3145480e+00
   9.5396310e+02   1.5463330e+00
   9.5444530e+02   1.4667510e+00
   9.5492740e+02   1.3551710e+00
   9.5540950e+02   1.8435970e+00
   9.5589160e+02   2.5410040e+00
   9.5637370e+02   2.5890310e+00
   9.5685580e+02   1.1529460e+00
   9.5733800e+02   1.0569000e-01
   9.5782010e+02   3.1347300e-01
   9.5830220e+02   1.0537260e+00
   9.5878430e+02   1.7450640e+00
   9.5926640e+02   2.4565960e+00
   9.5974850e+02   2.6034550e+00
   9.6023070e+02   2.0823480e+00
   9.6071280e+02   1.6410060e+00
   9.6119490e+02   2.2318190e+00
   9.6167700e+02   3.1757770e+00
   9.6215910e+02   3.4734270e+00
   9.6264120e+02   3.0070720e+00
   9.6312340e+02   2.5399360e+00
   9.6360550e+02   2.3136790e+00
   9.6408760e+02   2.2079580e+00
   9.6456970e+02   2.2208980e+00
   9.6505180e+02   2.2669640e+00
   9.6553390e+02   2.1893690e+00
   9.6601610e+02   1.9758830e+00
   9.6649820e+02   1.8320120e+00
   9.6698030e+02   1.8033680e+00
   9.6746240e+02   1.9142420e+00
   9.6794450e+02   2.4915120e+00
   9.6842660e+02   3.1941030e+00
   9.6890880e+02   3.4471970e+00
   9.6939090e+02   2.4680670e+00
   9.6987300e+02   1.9335820e+00
   9.7035510e+02   2.1611370e+00
   9.7083720e+02   2.6217540e+00
   9.7131930e+02   2.8732600e+00
   9.7180150e+02   2.9093630e+00
   9.7228360e+02   2.4674570e+00
   9.7276570e+02   1.4990120e+00
   9.7324780e+02   7.9909100e-01
   9.7372990e+02   1.3459010e+00
   9.7421200e+02   2.1767350e+00
   9.7469420e+02   2.4411470e+00
   9.7517630e+02   2.0678980e+00
   9.7565840e+02   1.8905330e+00
   9.7614050e+02   1.9989890e+00
   9.7662260e+02   2.1591150e+00
   9.7710470e+02   2.2653960e+00
   9.7758690e+02   2.3855780e+00
   9.7806900e+02   2.8573610e+00
   9.7855110e+02   3.5207790e+00
   9.7903320e+02   3.7867930e+00
   9.7951530e+02   3.2286910e+00
   9.7999740e+02   2.5843160e+00
   9.8047960e+02   2.1350820e+00
   9.8096170e+02   1.9034540e+00
   9.8144380e+02   1.9413150e+00
   9.8192590e+02   2.4068830e+00
   9.8240800e+02   2.5745660e+00
   9.8289010e+02   2.3115690e+00
   9.8337230e+02   2.0346410e+00
   9.8385440e+02   2.2788730e+00
   9.8433650e+02   2.8130190e+00
   9.8481860e+02   3.2189450e+00
   9.8530070e+02   3.4447780e+00
   9.8578280e+02   3.4558330e+00
   9.8626500e+02   3.1575740e+00
   9.8674710e+02   2.7173770e+00
   9.8722920e+02   2.0844420e+00
   9.8771130e+02   1.3691140e+00
   9.8819340e+02   1.2412950e+00
   9.8867550e+02   1.7381290e+00
   9.8915770e+02   2.1462360e+00
   9.8963980e+02   2.1383630e+00
   9.9012190e+02   1.9805410e+00
   9.9060400e+02   1.8971600e+00
   9.9108610e+02   1.8998490e+00
   9.9156820e+02   2.0579990e+00
   9.9205040e+02   2.8414150e+00
   9.9253250e+02   3.0118480e+00
   9.9301460e+02   2.0803720e+00
   9.9349670e+02   1.0641140e+00
   9.9397880e+02   1.0580220e+00
   9.9446090e+02   1.9134220e+00
   9.9494310e+02   2.3309060e+00
   9.9542520e+02   2.2209660e+00
   9.9590730e+02   1.8482060e+00
   9.9638940e+02   1.2923320e+00
   9.9687150e+02   8.0164300e-01
   9.9735360e+02   5.8835200e-01
   9.9783580e+02   6.3338100e-01
   9.9831790e+02   6.5589500e-01
   9.9880000e+02   5.4677600e-01
   9.9928210e+02   7.3379100e-01
   9.9976420e+02   1.4962920e+00
   1.0002460e+03   2.3776550e+00
   1.0007280e+03   2.2716140e+00
   1.0012110e+03   1.5686720e+00
   1.0016930e+03   1.3383670e+00
   1.0021750e+03   2.2679980e+00
   1.0026570e+03   2.8487700e+00
   1.0031390e+03   2.0313800e+00
   1.0036210e+03   9.7760800e-01
   1.0041030e+03   7.9341100e-01
   1.0045850e+03   1.7147330e+00
   1.0050680e+03   2.1002010e+00
   1.0055500e+03   1.9145050e+00
   1.0060320e+03   1.5515480e+00
   1.0065140e+03   1.2558750e+00
   1.0069960e+03   1.0103380e+00
   1.0074780e+03   6.1903400e-01
   1.0079600e+03   1.8307100e-01
   1.0084420e+03   2.6113100e-01
   1.0089240e+03   1.5925980e+00
   1.0094070e+03   2.7382580e+00
   1.0098890e+03   3.5037420e+00
   1.0103710e+03   3.8286400e+00
   1.0108530e+03   3.3966450e+00
   1.0113350e+03   2.3693390e+00
   1.0118170e+03   1.8194690e+00
   1.0122990e+03   2.0771900e+00
   1.0127810e+03   2.4653660e+00
   1.0132630e+03   2.5748330e+00
   1.0137460e+03   2.5090180e+00
   1.0142280e+03   2.2879330e+00
   1.0147100e+03   1.8084640e+00
   1.0151920e+03   1.8557660e+00
   1.0156740e+03   2.7255170e+00
   1.0161560e+03   3.3509030e+00
   1.0166380e+03   2.7813490e+00
   1.0171200e+03   1.6257740e+00
   1.0176030e+03   1.3637470e+00
   1.0180850e+03   1.7222900e+00
   1.0185670e+03   1.7470930e+00
   1.0190490e+03   2.2493000e-01
   1.0195310e+03   7.2059200e-01
   1.0200130e+03   2.2176400e-01
   1.0204950e+03   1.0225370e+00
   1.0209770e+03   2.2412830e+00
   1.0214590e+03   3.4506720e+00
   1.0219420e+03   3.7328830e+00
   1.0224240e+03   2.8907320e+00
   1.0229060e+03   1.7488370e+00
   1.0233880e+03   7.3386400e-01
   1.0238700e+03   2.2282001e-02
   1.0243520e+03   1.3055400e-01
   1.0248340e+03   3.3915700e-01
   1.0253160e+03   8.7582800e-01
   1.0257990e+03   1.6869890e+00
   1.0262810e+03   2.0196500e+00
   1.0267630e+03   1.3732800e+00
   1.0272450e+03   2.1802100e-01
   1.0277270e+03   3.5851700e-01
   1.0282090e+03   4.0992400e-01
   1.0286910e+03   1.0198600e-01
   1.0291730e+03   7.5548900e-01
   1.0296560e+03   1.5582200e+00
   1.0301380e+03   2.2019160e+00
   1.0306200e+03   2.5116840e+00
   1.0311020e+03   2.2488630e+00
   1.0315840e+03   1.2860570e+00
   1.0320660e+03   5.8010100e-01
   1.0325480e+03   1.3592500e-01
   1.0330300e+03   1.2909000e-02
   1.0335120e+03   4.6624800e-01
   1.0339950e+03   1.0592650e+00
   1.0344770e+03   1.0447310e+00
   1.0349590e+03   5.0773200e-01
   1.0354410e+03   1.7023800e-01
   1.0359230e+03   5.7686001e-02
   1.0364050e+03   4.3561900e-01
   1.0368870e+03   1.6553120e+00
   1.0373690e+03   3.0404550e+00
   1.0378510e+03   3.1221500e+00
   1.0383340e+03   2.2054440e+00
   1.0388160e+03   1.4224660e+00
   1.0392980e+03   9.9816900e-01
   1.0397800e+03   8.7249000e-01
   1.0402620e+03   1.3010790e+00
   1.0407440e+03   1.7803120e+00
   1.0412260e+03   1.8901630e+00
   1.0417080e+03   1.6107180e+00
   1.0421910e+03   1.3226510e+00
   1.0426730e+03   1.0144810e+00
   1.0431550e+03   7.6034900e-01
   1.0436370e+03   4.9752000e-01
   1.0441190e+03   3.9788100e-01
   1.0446010e+03   9.3492900e-01
   1.0450830e+03   1.8013340e+00
   1.0455650e+03   2.2718660e+00
   1.0460470e+03   1.5132640e+00
   1.0465300e+03   1.3293230e+00
   1.0470120e+03   2.2633820e+00
   1.0474940e+03   3.2220190e+00
   1.0479760e+03   2.6597140e+00
   1.0484580e+03   9.9673100e-01
   1.0489400e+03   4.2073800e-01
   1.0494220e+03   1.0673100e+00
   1.0499040e+03   1.7782480e+00
   1.0503860e+03   1.7812190e+00
   1.0508690e+03   1.6718790e+00
   1.0513510e+03   1.8969610e+00
   1.0518330e+03   2.3305930e+00
   1.0523150e+03   2.3295750e+00
   1.0527970e+03   1.7986450e+00
   1.0532790e+03   1.5524140e+00
   1.0537610e+03   1.8923380e+00
   1.0542430e+03   2.3710520e+00
   1.0547260e+03   2.3603940e+00
   1.0552080e+03   2.1550140e+00
   1.0556900e+03   2.2354580e+00
   1.0561720e+03   2.9297220e+00
   1.0566540e+03   3.0888480e+00
   1.0571360e+03   2.3342480e+00
   1.0576180e+03   1.6050760e+00
   1.0581000e+03   1.5335920e+00
   1.0585830e+03   1.9208910e+00
   1.0590650e+03   1.8546330e+00
   1.0595470e+03   1.4835820e+00
   1.0600290e+03   1.5034070e+00
   1.0605110e+03   2.9685970e+00
   1.0609930e+03   4.0911900e+00
   1.0614750e+03   3.8140450e+00
   1.0619570e+03   2.9012180e+00
   1.0624390e+03   2.3834650e+00
   1.0629220e+03   2.3061870e+00
   1.0634040e+03   2.1736530e+00
   1.0638860e+03   1.9381680e+00
   1.0643680e+03   1.7463990e+00
   1.0648500e+03   1.9406970e+00
   1.0653320e+03   2.0900340e+00
   1.0658140e+03   1.5886040e+00
   1.0662960e+03   4.9089100e-01
   1.0667780e+03   1.6674400e-01
   1.0672610e+03   2.8410700e-01
   1.0677430e+03   2.9716000e-02
   1.0682250e+03   6.6310900e-01
   1.0687070e+03   1.5164530e+00
   1.0691890e+03   2.1230700e+00
   1.0696710e+03   2.4595220e+00
   1.0701530e+03   2.3712460e+00
   1.0706350e+03   1.6489830e+00
   1.0711180e+03   1.1588900e+00
   1.0716000e+03   1.4460560e+00
   1.0720820e+03   1.9020200e+00
   1.0725640e+03   2.1980130e+00
   1.0730460e+03   2.3476140e+00
   1.0735280e+03   2.6272890e+00
   1.0740100e+03   3.0113490e+00
   1.0744920e+03   3.0870060e+00
   1.0749740e+03   2.3890300e+00
   1.0754570e+03   1.5426560e+00
   1.0759390e+03   7.4896200e-01
   1.0764210e+03   2.0683300e-01
   1.0769030e+03   3.2545900e-01
   1.0773850e+03   1.4335100e+00
   1.0778670e+03   2.0216830e+00
   1.0783490e+03   1.9321710e+00
   1.0788310e+03   1.6641810e+00
   1.0793130e+03   1.6854930e+00
   1.0797960e+03   1.8452030e+00
   1.0802780e+03   1.9670830e+00
   1.0807600e+03   2.0266040e+00
   1.0812420e+03   1.9398920e+00
   1.0817240e+03   1.4164160e+00
   1.0822060e+03   1.0972750e+00
   1.0826880e+03   1.2238660e+00
   1.0831700e+03   1.5304340e+00
   1.0836520e+03   1.5674210e+00
   1.0841350e+03   1.3679850e+00
   1.0846170e+03   9.9221400e-01
   1.0850990e+03   3.8676500e-01
   1.0855810e+03   3.9912999e-02
   1.0860630e+03   5.2825200e-01
   1.0865450e+03   1.1953580e+00
   1.0870270e+03   1.6746060e+00
   1.0875090e+03   1.9428560e+00
   1.0879920e+03   1.8628770e+00
   1.0884740e+03   1.4306640e+00
   1.0889560e+03   1.0248720e+00
   1.0894380e+03   7.3108300e-01
   1.0899200e+03   6.6262400e-01
   1.0904020e+03   1.2564280e+00
   1.0908840e+03   1.9818310e+00
   1.0913660e+03   2.0474010e+00
   1.0918490e+03   8.5966100e-01
   1.0923310e+03   4.2052100e-01
   1.0928130e+03   9.2815400e-01
   1.0932950e+03   1.5039100e+00
   1.0937770e+03   1.3570100e+00
   1.0942590e+03   9.1709900e-01
   1.0947410e+03   1.1146810e+00
   1.0952230e+03   1.7423440e+00
   1.0957050e+03   2.0548400e+00
   1.0961880e+03   1.2593770e+00
   1.0966700e+03   8.6845800e-01
   1.0971520e+03   1.3446350e+00
   1.0976340e+03   2.0131300e+00
   1.0981160e+03   1.8876610e+00
   1.0985980e+03   1.1699750e+00
   1.0990800e+03   7.8039600e-01
   1.0995620e+03   7.8516000e-01
   1.1000440e+03   1.0541530e+00
   1.1005270e+03   1.8497850e+00
   1.1010090e+03   2.5382080e+00
   1.1014910e+03   2.7670440e+00
   1.1019730e+03   2.6269530e+00
   1.1024550e+03   2.3411710e+00
   1.1029370e+03   1.9069670e+00
   1.1034190e+03   1.3059540e+00
   1.1039010e+03   4.1217400e-01
   1.1043840e+03   1.3796200e-01
   1.1048660e+03   7.0334200e-01
   1.1053480e+03   1.9266740e+00
   1.1058300e+03   2.4918710e+00
   1.1063120e+03   2.2040670e+00
   1.1067940e+03   1.9810140e+00
   1.1072760e+03   1.8253060e+00
   1.1077580e+03   1.7392540e+00
   1.1082400e+03   1.7427790e+00
   1.1087230e+03   1.7917370e+00
   1.1092050e+03   1.9004630e+00
   1.1096870e+03   1.9815670e+00
   1.1101690e+03   1.8497730e+00
   1.1106510e+03   1.1192440e+00
   1.1111330e+03   8.4053000e-01
   1.1116150e+03   1.2844240e+00
   1.1120970e+03   1.7934150e+00
   1.1125790e+03   1.8225360e+00
   1.1130620e+03   1.5077360e+00
   1.1135440e+03   1.2034760e+00
   1.1140260e+03   9.5845000e-01
   1.1145080e+03   1.0065920e+00
   1.1149900e+03   2.0714190e+00
   1.1154720e+03   2.6677590e+00
   1.1159540e+03   1.9448050e+00
   1.1164360e+03   8.4380300e-01
   1.1169190e+03   6.8940700e-01
   1.1174010e+03   1.3876990e+00
   1.1178830e+03   1.4988820e+00
   1.1183650e+03   8.9677800e-01
   1.1188470e+03   4.8883800e-01
   1.1193290e+03   1.3774600e+00
   1.1198110e+03   2.2556190e+00
   1.1202930e+03   2.0846750e+00
   1.1207760e+03   1.1788560e+00
   1.1212580e+03   6.3618100e-01
   1.1217400e+03   4.7719600e-01
   1.1222220e+03   4.8606500e-01
   1.1227040e+03   6.2813600e-01
   1.1231860e+03   8.7984800e-01
   1.1236680e+03   1.4079360e+00
   1.1241500e+03   1.9133260e+00
   1.1246320e+03   2.0184250e+00
   1.1251150e+03   1.6332130e+00
   1.1255970e+03   1.4335020e+00
   1.1260790e+03   1.4978070e+00
   1.1265610e+03   1.4692120e+00
   1.1270430e+03   1.1533160e+00
   1.1275250e+03   7.7150700e-01
   1.1280070e+03   7.5851100e-01
   1.1284890e+03   9.1768300e-01
   1.1289710e+03   8.9614900e-01
   1.1294540e+03   5.0754200e-01
   1.1299360e+03   2.1803700e-01
   1.1304180e+03   1.0429800e-01
   1.1309000e+03   2.7462000e-02
   1.1313820e+03   1.6915900e-01
   1.1318640e+03   3.6539100e-01
   1.1323460e+03   1.6045000e-02
   1.1328280e+03   6.9242900e-01
   1.1333110e+03   1.0765650e+00
   1.1337930e+03   4.0176000e-01
   1.1342750e+03   1.2815900e-01
   1.1347570e+03   1.7321400e-01
   1.1352390e+03   2.4800000e-03
   1.1357210e+03   1.3820600e-01
   1.1362030e+03   2.6176500e-01
   1.1366850e+03   4.8423000e-01
   1.1371670e+03   8.1601000e-01
   1.1376500e+03   1.3020740e+00
   1.1381320e+03   2.5011980e+00
   1.1386140e+03   3.2783970e+00
   1.1390960e+03   2.7705650e+00
   1.1395780e+03   1.6183740e+00
   1.1400600e+03   6.7715100e-01
   1.1405420e+03   6.4948998e-02
   1.1410240e+03   7.5207002e-02
   1.1415060e+03   7.4258000e-01
   1.1419890e+03   1.4990690e+00
   1.1424710e+03   1.4274560e+00
   1.1429530e+03   1.0781140e+00
   1.1434350e+03   7.8697200e-01
   1.1439170e+03   5.8637200e-01
   1.1443990e+03   5.1914200e-01
   1.1448810e+03   6.2369900e-01
   1.1453630e+03   5.8462900e-01
   1.1458460e+03   3.0668600e-01
   1.1463280e+03   1.4198000e-02
   1.1468100e+03   2.6649500e-01
   1.1472920e+03   3.7667800e-01
   1.1477740e+03   2.0382300e-01
   1.1482560e+03   3.1863000e-01
   1.1487380e+03   6.6921600e-01
   1.1492200e+03   8.6050800e-01
   1.1497030e+03   9.4502600e-01
   1.1501850e+03   9.3004200e-01
   1.1506670e+03   8.3894700e-01
   1.1511490e+03   5.3974200e-01
   1.1516310e+03   2.5125500e-01
   1.1521130e+03   4.1667900e-01
   1.1525950e+03   1.4232290e+00
   1.1530770e+03   1.7298280e+00
   1.1535590e+03   9.2576200e-01
   1.1540420e+03   2.1456500e-01
   1.1545240e+03   4.0601300e-01
   1.1550060e+03   1.0113530e+00
   1.1554880e+03   8.0138000e-01
   1.1559700e+03   1.2443900e-01
   1.1564520e+03   1.5049700e-01
   1.1569340e+03   6.3920600e-01
   1.1574160e+03   1.1316150e+00
   1.1578980e+03   1.0377850e+00
   1.1583810e+03   8.3342700e-01
   1.1588630e+03   9.2710900e-01
   1.1593450e+03   8.0869300e-01
   1.1598270e+03   1.1406630e+00
   1.1603090e+03   8.2547800e-01
   1.1607910e+03   6.3147700e-01
   1.1612730e+03   8.0823900e-01
   1.1617550e+03   1.0423320e+00
   1.1622380e+03   1.3375510e+00
   1.1627200e+03   1.5328830e+00
   1.1632020e+03   1.4083440e+00
   1.1636840e+03   1.0451620e+00
   1.1641660e+03   1.0397950e+00
   1.1646480e+03   1.3875270e+00
   1.1651300e+03   1.6513750e+00
   1.1656120e+03   1.4804340e+00
   1.1660940e+03   1.3441850e+00
   1.1665770e+03   1.6246150e+00
   1.1670590e+03   1.9358830e+00
   1.1675410e+03   1.4674000e+00
   1.1680230e+03   3.2210500e-01
   1.1685050e+03   7.6029999e-03
   1.1689870e+03   6.8203000e-01
   1.1694690e+03   1.2697790e+00
   1.1699510e+03   7.7317400e-01
   1.1704330e+03   2.0801500e-01
   1.1709160e+03   6.8405002e-02
   1.1713980e+03   3.5812400e-01
   1.1718800e+03   1.4590300e+00
   1.1723620e+03   3.3165050e+00
   1.1728440e+03   3.9294430e+00
   1.1733260e+03   2.8168950e+00
   1.1738080e+03   1.5671200e+00
   1.1742900e+03   1.5247040e+00
   1.1747730e+03   1.8551790e+00
   1.1752550e+03   1.9559780e+00
   1.1757370e+03   1.8430900e+00
   1.1762190e+03   1.6657070e+00
   1.1767010e+03   1.4138680e+00
   1.1771830e+03   1.2946240e+00
   1.1776650e+03   1.3892520e+00
   1.1781470e+03   1.5389210e+00
   1.1786300e+03   1.5506780e+00
   1.1791120e+03   1.5711100e+00
   1.1795940e+03   1.7763820e+00
   1.1800760e+03   2.1710050e+00
   1.1805580e+03   2.5495030e+00
   1.1810400e+03   2.9449960e+00
   1.1815220e+03   3.0171810e+00
   1.1820040e+03   2.5238570e+00
   1.1824860e+03   1.8999370e+00
   1.1829690e+03   1.5536000e+00
   1.1834510e+03   1.3833540e+00
   1.1839330e+03   1.2645260e+00
   1.1844150e+03   1.1711770e+00
   1.1848970e+03   1.1885110e+00
   1.1853790e+03   1.3048400e+00
   1.1858610e+03   1.6372340e+00
   1.1863430e+03   2.4922710e+00
   1.1868250e+03   3.2537160e+00
   1.1873080e+03   2.9876250e+00
   1.1877900e+03   2.2053870e+00
   1.1882720e+03   1.7444310e+00
   1.1887540e+03   1.9765780e+00
   1.1892360e+03   1.6593590e+00
   1.1897180e+03   6.6654600e-01
   1.1902000e+03   2.2080600e-01
   1.1906820e+03   5.3635800e-01
   1.1911650e+03   4.6878800e-01
   1.1916470e+03   5.1086001e-02
   1.1921290e+03   5.1441600e-01
   1.1926110e+03   8.1767300e-01
   1.1930930e+03   5.5624400e-01
   1.1935750e+03   5.7753000e-01
   1.1940570e+03   9.5383100e-01
   1.1945390e+03   1.3652190e+00
   1.1950210e+03   1.5709530e+00
   1.1955040e+03   1.6576190e+00
   1.1959860e+03   1.8082960e+00
   1.1964680e+03   1.9380570e+00
   1.1969500e+03   1.7642290e+00
   1.1974320e+03   9.4096000e-01
   1.1979140e+03   5.0545900e-01
   1.1983960e+03   5.6506700e-01
   1.1988780e+03   8.4007300e-01
   1.1993600e+03   1.1238250e+00
   1.1998430e+03   1.4161800e+00
   1.2003250e+03   1.8083690e+00
   1.2008070e+03   2.2302670e+00
   1.2012890e+03   2.3592410e+00
   1.2017710e+03   1.9780040e+00
   1.2022530e+03   1.6547850e+00
   1.2027350e+03   1.4302020e+00
   1.2032170e+03   1.3502040e+00
   1.2037000e+03   1.7536350e+00
   1.2041820e+03   2.1635780e+00
   1.2046640e+03   1.5594220e+00
   1.2051460e+03   1.4086200e-01
   1.2056280e+03   3.5833700e-01
   1.2061100e+03   8.5643800e-01
   1.2065920e+03   1.7439500e+00
   1.2070740e+03   1.9751510e+00
   1.2075570e+03   1.8321530e+00
   1.2080390e+03   1.4930340e+00
   1.2085210e+03   1.1076550e+00
   1.2090030e+03   9.5403700e-01
   1.2094850e+03   1.0280950e+00
   1.2099670e+03   8.6713000e-01
   1.2104490e+03   1.3162200e-01
   1.2109310e+03   1.4036600e-01
   1.2114130e+03   3.4452100e-01
   1.2118960e+03   1.1616550e+00
   1.2123780e+03   2.0075000e+00
   1.2128600e+03   2.6872790e+00
   1.2133420e+03   2.8388670e+00
   1.2138240e+03   2.4246940e+00
   1.2143060e+03   1.9093020e+00
   1.2147880e+03   1.1226390e+00
   1.2152700e+03   9.5898800e-01
   1.2157520e+03   1.8525010e+00
   1.2162350e+03   2.9652100e+00
   1.2167170e+03   3.1511800e+00
   1.2171990e+03   2.7575380e+00
   1.2176810e+03   2.2327460e+00
   1.2181630e+03   1.6265180e+00
   1.2186450e+03   9.6301300e-01
   1.2191270e+03   2.0450000e-03
   1.2196090e+03   2.1024700e-01
   1.2200920e+03   9.6841000e-01
   1.2205740e+03   2.3393210e+00
   1.2210560e+03   1.8259010e+00
   1.2215380e+03   4.9446900e-01
   1.2220200e+03   1.0426700e-01
   1.2225020e+03   3.9657200e-01
   1.2229840e+03   8.0258200e-01
   1.2234660e+03   1.0276950e+00
   1.2239480e+03   1.2292210e+00
   1.2244310e+03   1.4074670e+00
   1.2249130e+03   1.7090230e+00
   1.2253950e+03   2.7433620e+00
   1.2258770e+03   3.8406180e+00
   1.2263590e+03   3.9626160e+00
   1.2268410e+03   2.6581340e+00
   1.2273230e+03   1.9264600e+00
   1.2278050e+03   1.9467700e+00
   1.2282870e+03   1.7321890e+00
   1.2287700e+03   6.5612800e-01
   1.2292520e+03   4.6339800e-01
   1.2297340e+03   4.6948200e-01
   1.2302160e+03   1.6863300e-01
   1.2306980e+03   8.6727900e-01
   1.2311800e+03   1.5663530e+00
   1.2316620e+03   2.2333980e+00
   1.2321440e+03   2.9120940e+00
   1.2326270e+03   3.3256680e+00
   1.2331090e+03   3.3005910e+00
   1.2335910e+03   3.0315280e+00
   1.2340730e+03   2.6099170e+00
   1.2345550e+03   2.1629410e+00
   1.2350370e+03   1.8178520e+00
   1.2355190e+03   1.5305480e+00
   1.2360010e+03   1.8758320e+00
   1.2364840e+03   2.9926640e+00
   1.2369660e+03   3.5319790e+00
   1.2374480e+03   2.4819450e+00
   1.2379300e+03   1.1168590e+00
   1.2384120e+03   6.1381500e-01
   1.2388940e+03   6.3529600e-01
   1.2393760e+03   7.5517700e-01
   1.2398580e+03   9.2891300e-01
   1.2403400e+03   1.3604930e+00
   1.2408230e+03   2.0706560e+00
   1.2413050e+03   2.4609180e+00
   1.2417870e+03   2.0132140e+00
   1.2422690e+03   1.3955500e+00
   1.2427510e+03   1.0699160e+00
   1.2432330e+03   9.7282800e-01
   1.2437150e+03   1.0394330e+00
   1.2441970e+03   1.2745630e+00
   1.2446790e+03   1.5905000e+00
   1.2451620e+03   1.9771270e+00
   1.2456440e+03   2.0782010e+00
   1.2461260e+03   1.4425770e+00
   1.2466080e+03   8.5797100e-01
   1.2470900e+03   8.5092200e-01
   1.2475720e+03   1.1882320e+00
   1.2480540e+03   1.6131480e+00
   1.2485360e+03   2.1036570e+00
   1.2490190e+03   1.8082470e+00
   1.2495010e+03   8.2347100e-01
   1.2499830e+03   2.1632000e-01
   1.2504650e+03   1.0191380e+00
   1.2509470e+03   1.7955470e+00
   1.2514290e+03   1.6394160e+00
   1.2519110e+03   1.2486880e+00
   1.2523930e+03   1.3179590e+00
   1.2528750e+03   1.8082810e+00
   1.2533580e+03   1.9918440e+00
   1.2538400e+03   1.8878940e+00
   1.2543220e+03   1.6380120e+00
   1.2548040e+03   1.1344600e+00
   1.2552860e+03   7.3435200e-01
   1.2557680e+03   4.1929600e-01
   1.2562500e+03   2.9054600e-01
   1.2567320e+03   6.0172700e-01
   1.2572140e+03   1.1909410e+00
   1.2576970e+03   1.1052250e+00
   1.2581790e+03   5.0277700e-01
   1.2586610e+03   2.1191000e-01
   1.2591430e+03   9.3331900e-01
   1.2596250e+03   1.5451580e+00
   1.2601070e+03   1.8399090e+00
   1.2605890e+03   2.1307450e+00
   1.2610710e+03   2.0851360e+00
   1.2615540e+03   2.0920410e+00
   1.2620360e+03   1.8593480e+00
   1.2625180e+03   1.4288410e+00
   1.2630000e+03   1.0738600e+00
   1.2634820e+03   7.6792500e-01
   1.2639640e+03   9.5410500e-01
   1.2644460e+03   1.9223210e+00
   1.2649280e+03   2.7652590e+00
   1.2654110e+03   2.4317700e+00
   1.2658930e+03   1.6025810e+00
   1.2663750e+03   1.6446610e+00
   1.2668570e+03   2.2867050e+00
   1.2673390e+03   2.6814770e+00
   1.2678210e+03   2.3331070e+00
   1.2683030e+03   1.9836730e+00
   1.2687850e+03   1.6360170e+00
   1.2692670e+03   1.3390660e+00
   1.2697500e+03   1.1776620e+00
   1.2702320e+03   1.0581550e+00
   1.2707140e+03   6.8730200e-01
   1.2711960e+03   2.8488900e-01
   1.2716780e+03   4.6642700e-01
   1.2721600e+03   1.5843620e+00
   1.2726420e+03   2.2511980e+00
   1.2731240e+03   2.4180300e+00
   1.2736060e+03   2.2387890e+00
   1.2740890e+03   1.3465390e+00
   1.2745710e+03   6.2037300e-01
   1.2750530e+03   1.0991630e+00
   1.2755350e+03   2.2093200e+00
   1.2760170e+03   2.9795530e+00
   1.2764990e+03   3.4156800e+00
   1.2769810e+03   3.0842250e+00
   1.2774630e+03   2.0073390e+00
   1.2779460e+03   1.0980640e+00
   1.2784280e+03   1.2226830e+00
   1.2789100e+03   1.4186740e+00
   1.2793920e+03   9.3621100e-01
   1.2798740e+03   2.9643200e-01
   1.2803560e+03   1.4901400e-01
   1.2808380e+03   4.7513200e-01
   1.2813200e+03   8.1341900e-01
   1.2818020e+03   1.1799470e+00
   1.2822850e+03   1.6371650e+00
   1.2827670e+03   2.8565900e+00
   1.2832490e+03   3.3280790e+00
   1.2837310e+03   1.8109050e+00
   1.2842130e+03   9.1205999e-02
   1.2846950e+03   1.0616700e-01
   1.2851770e+03   8.4516900e-01
   1.2856590e+03   1.1006130e+00
   1.2861410e+03   8.2010700e-01
   1.2866240e+03   7.2399500e-01
   1.2871060e+03   1.1881940e+00
   1.2875880e+03   1.8197140e+00
   1.2880700e+03   2.8299790e+00
   1.2885520e+03   3.4925460e+00
   1.2890340e+03   2.9102360e+00
   1.2895160e+03   1.6870160e+00
   1.2899980e+03   1.0416150e+00
   1.2904810e+03   8.8940000e-01
   1.2909630e+03   9.9894700e-01
   1.2914450e+03   1.5969280e+00
   1.2919270e+03   1.9378590e+00
   1.2924090e+03   2.0872650e+00
   1.2928910e+03   1.9426350e+00
   1.2933730e+03   9.2296600e-01
   1.2938550e+03   5.2733999e-02
   1.2943380e+03   6.4290200e-01
   1.2948200e+03   2.2186580e+00
   1.2953020e+03   2.8062550e+00
   1.2957840e+03   2.0743830e+00
   1.2962660e+03   1.2953760e+00
   1.2967480e+03   4.4674300e-01
   1.2972300e+03   5.0517999e-02
   1.2977120e+03   1.4306600e-01
   1.2981940e+03   7.0184300e-01
   1.2986770e+03   1.7055050e+00
   1.2991590e+03   2.7107280e+00
   1.2996410e+03   2.6823810e+00
   1.3001230e+03   1.5249020e+00
   1.3006050e+03   5.2500900e-01
   1.3010870e+03   2.5966600e-01
   1.3015690e+03   2.3020200e-01
   1.3020510e+03   3.8099999e-04
   1.3025330e+03   1.5267600e-01
   1.3030160e+03   0.0000000e+00
   1.5000000e+03   0.0000000e+00
