   1.0000000e+02   0.0000000e+00
   1.1832570e+02   0.0000000e+00
   1.1880780e+02   3.2080930e+01
   1.1928990e+02   3.4445560e+01
   1.1977200e+02   1.1829830e+00
   1.2025410e+02   3.9184600e-01
   1.2073630e+02   5.7095830e+01
   1.2121840e+02   1.1473220e+02
   1.2170050e+02   1.2742130e+02
   1.2218260e+02   1.0830100e+02
   1.2266470e+02   1.0077810e+02
   1.2314680e+02   1.4725200e+02
   1.2362900e+02   2.1482410e+02
   1.2411110e+02   2.6228420e+02
   1.2459320e+02   2.6289640e+02
   1.2507530e+02   2.5062770e+02
   1.2555740e+02   2.6213490e+02
   1.2603950e+02   2.9663240e+02
   1.2652170e+02   3.3719740e+02
   1.2700380e+02   3.6377200e+02
   1.2748590e+02   3.8385180e+02
   1.2796800e+02   4.1664500e+02
   1.2845010e+02   4.9053410e+02
   1.2893220e+02   5.8016410e+02
   1.2941440e+02   6.2536820e+02
   1.2989650e+02   6.1189040e+02
   1.3037860e+02   5.9398900e+02
   1.3086070e+02   6.4044140e+02
   1.3134280e+02   7.4968710e+02
   1.3182490e+02   8.5193360e+02
   1.3230710e+02   8.4978830e+02
   1.3278920e+02   7.7613610e+02
   1.3327130e+02   7.1899350e+02
   1.3375340e+02   7.0311900e+02
   1.3423550e+02   7.0875350e+02
   1.3471760e+02   6.7566020e+02
   1.3519980e+02   6.0204910e+02
   1.3568190e+02   5.1928750e+02
   1.3616400e+02   4.4717970e+02
   1.3664610e+02   3.8541300e+02
   1.3712820e+02   3.4739820e+02
   1.3761030e+02   3.4367930e+02
   1.3809250e+02   3.7182170e+02
   1.3857460e+02   3.9347670e+02
   1.3905670e+02   4.1523610e+02
   1.3953880e+02   4.1913280e+02
   1.4002090e+02   3.6954240e+02
   1.4050300e+02   2.4798570e+02
   1.4098520e+02   1.3261490e+02
   1.4146730e+02   5.0582030e+01
   1.4194940e+02   4.5621340e+00
   1.4243150e+02   1.7406980e+01
   1.4291360e+02   5.3435060e+00
   1.4339570e+02   2.7073610e+01
   1.4387790e+02   3.9627690e+01
   1.4436000e+02   2.0687130e+01
   1.4484210e+02   5.7617200e-01
   1.4532420e+02   3.4834350e+01
   1.4580630e+02   5.8104999e-02
   1.4628840e+02   2.1428960e+01
   1.4677050e+02   2.9981930e+01
   1.4725270e+02   1.2737180e+01
   1.4773480e+02   1.0771610e+01
   1.4821690e+02   7.7340090e+00
   1.4869900e+02   3.6967770e+00
   1.4918110e+02   3.6705320e+01
   1.4966320e+02   1.6193850e+00
   1.5014540e+02   3.4029540e+01
   1.5062750e+02   3.9477540e+01
   1.5110960e+02   5.7253660e+01
   1.5159170e+02   4.8297360e+01
   1.5207380e+02   4.7567260e+01
   1.5255590e+02   7.3533690e+01
   1.5303810e+02   8.4684810e+01
   1.5352020e+02   7.2563110e+01
   1.5400230e+02   9.0986330e+01
   1.5448440e+02   5.4766850e+01
   1.5496650e+02   6.6449950e+01
   1.5544860e+02   6.8943240e+01
   1.5593080e+02   9.5398560e+01
   1.5641290e+02   1.3707260e+02
   1.5689500e+02   1.5390920e+02
   1.5737710e+02   1.0382590e+02
   1.5785920e+02   4.8689450e+01
   1.5834130e+02   2.4050660e+01
   1.5882350e+02   6.3263790e+01
   1.5930560e+02   1.0730880e+02
   1.5978770e+02   1.4694890e+02
   1.6026980e+02   1.8169170e+02
   1.6075190e+02   2.0243330e+02
   1.6123400e+02   1.9093130e+02
   1.6171620e+02   1.7023450e+02
   1.6219830e+02   1.6283580e+02
   1.6268040e+02   1.9504660e+02
   1.6316250e+02   2.2654590e+02
   1.6364460e+02   2.3502150e+02
   1.6412670e+02   2.1604360e+02
   1.6460890e+02   1.9925110e+02
   1.6509100e+02   2.0387650e+02
   1.6557310e+02   2.1881790e+02
   1.6605520e+02   2.2619760e+02
   1.6653730e+02   2.0392460e+02
   1.6701940e+02   1.7965480e+02
   1.6750160e+02   1.7824900e+02
   1.6798370e+02   2.1197610e+02
   1.6846580e+02   2.4722360e+02
   1.6894790e+02   2.6240120e+02
   1.6943000e+02   2.6508140e+02
   1.6991210e+02   2.6845610e+02
   1.7039430e+02   2.8892880e+02
   1.7087640e+02   3.2278190e+02
   1.7135850e+02   3.4065550e+02
   1.7184060e+02   3.3942750e+02
   1.7232270e+02   3.3177390e+02
   1.7280480e+02   3.2195170e+02
   1.7328700e+02   3.0840760e+02
   1.7376910e+02   3.0188660e+02
   1.7425120e+02   3.1994470e+02
   1.7473330e+02   3.4546830e+02
   1.7521540e+02   3.6251270e+02
   1.7569750e+02   3.4626430e+02
   1.7617970e+02   3.2151390e+02
   1.7666180e+02   3.2185500e+02
   1.7714390e+02   3.4886350e+02
   1.7762600e+02   3.7599150e+02
   1.7810810e+02   3.7965410e+02
   1.7859020e+02   3.6592050e+02
   1.7907240e+02   3.4986540e+02
   1.7955450e+02   3.2870580e+02
   1.8003660e+02   3.1017580e+02
   1.8051870e+02   3.1198110e+02
   1.8100080e+02   3.4015420e+02
   1.8148290e+02   3.7397800e+02
   1.8196510e+02   3.8447680e+02
   1.8244720e+02   3.7614600e+02
   1.8292930e+02   3.7290280e+02
   1.8341140e+02   3.9394170e+02
   1.8389350e+02   4.3026180e+02
   1.8437560e+02   4.5802380e+02
   1.8485780e+02   4.7099160e+02
   1.8533990e+02   4.7769690e+02
   1.8582200e+02   4.9384990e+02
   1.8630410e+02   5.1911060e+02
   1.8678620e+02   5.4050220e+02
   1.8726830e+02   5.4957540e+02
   1.8775040e+02   5.4689360e+02
   1.8823260e+02   5.3268990e+02
   1.8871470e+02   4.9693080e+02
   1.8919680e+02   4.5586740e+02
   1.8967890e+02   4.5898680e+02
   1.9016100e+02   5.1043590e+02
   1.9064310e+02   5.6434860e+02
   1.9112530e+02   5.6926970e+02
   1.9160740e+02   5.2923900e+02
   1.9208950e+02   4.9119420e+02
   1.9257160e+02   4.6399890e+02
   1.9305370e+02   4.5021220e+02
   1.9353580e+02   4.7295690e+02
   1.9401800e+02   5.4152620e+02
   1.9450010e+02   6.1457100e+02
   1.9498220e+02   6.2782310e+02
   1.9546430e+02   5.7908020e+02
   1.9594640e+02   5.4097770e+02
   1.9642850e+02   5.5957650e+02
   1.9691070e+02   6.3033090e+02
   1.9739280e+02   6.5464820e+02
   1.9787490e+02   6.2065620e+02
   1.9835700e+02   5.5864150e+02
   1.9883910e+02   5.2252140e+02
   1.9932120e+02   5.1551600e+02
   1.9980340e+02   5.1115030e+02
   2.0028550e+02   4.9289010e+02
   2.0076760e+02   4.6190260e+02
   2.0124970e+02   4.3789770e+02
   2.0173180e+02   4.2212040e+02
   2.0221390e+02   4.1249990e+02
   2.0269610e+02   4.0662000e+02
   2.0317820e+02   4.0562890e+02
   2.0366030e+02   4.0059000e+02
   2.0414240e+02   3.7464090e+02
   2.0462450e+02   3.2168960e+02
   2.0510660e+02   2.8485500e+02
   2.0558880e+02   2.7584470e+02
   2.0607090e+02   2.8848620e+02
   2.0655300e+02   3.0052580e+02
   2.0703510e+02   3.1462450e+02
   2.0751720e+02   3.2298230e+02
   2.0799930e+02   3.2213840e+02
   2.0848150e+02   3.1227260e+02
   2.0896360e+02   2.8824610e+02
   2.0944570e+02   2.4182450e+02
   2.0992780e+02   1.7503050e+02
   2.1040990e+02   1.3317710e+02
   2.1089200e+02   1.2253090e+02
   2.1137420e+02   1.2682310e+02
   2.1185630e+02   1.3160230e+02
   2.1233840e+02   1.4157470e+02
   2.1282050e+02   1.3658450e+02
   2.1330260e+02   1.0043800e+02
   2.1378470e+02   2.7047610e+01
   2.1426690e+02   1.8803710e+00
   2.1474900e+02   4.5423710e+01
   2.1523110e+02   1.1596480e+02
   2.1571320e+02   1.4803690e+02
   2.1619530e+02   1.2915720e+02
   2.1667740e+02   1.0034290e+02
   2.1715960e+02   7.4350460e+01
   2.1764170e+02   5.1266720e+01
   2.1812380e+02   3.1146120e+01
   2.1860590e+02   1.4412230e+01
   2.1908800e+02   4.4799800e-01
   2.1957010e+02   1.3177490e+01
   2.2005230e+02   2.9295780e+01
   2.2053440e+02   3.9850220e+01
   2.2101650e+02   3.8073970e+01
   2.2149860e+02   1.3225710e+01
   2.2198070e+02   7.7469480e+00
   2.2246280e+02   3.4916140e+01
   2.2294500e+02   7.9863650e+01
   2.2342710e+02   9.1407590e+01
   2.2390920e+02   5.2545040e+01
   2.2439130e+02   6.5671390e+00
   2.2487340e+02   2.2616210e+01
   2.2535550e+02   3.1638670e+01
   2.2583770e+02   3.1006840e+01
   2.2631980e+02   1.6509280e+01
   2.2680190e+02   8.2414550e+00
   2.2728400e+02   2.1148930e+01
   2.2776610e+02   1.5436040e+01
   2.2824820e+02   6.4593510e+00
   2.2873030e+02   6.3181150e+00
   2.2921250e+02   2.2257930e+01
   2.2969460e+02   3.0647950e+01
   2.3017670e+02   2.4551150e+01
   2.3065880e+02   5.1579590e+00
   2.3114090e+02   1.6025390e+00
   2.3162300e+02   1.3702880e+01
   2.3210520e+02   3.1338010e+01
   2.3258730e+02   3.1870120e+01
   2.3306940e+02   2.2229000e+00
   2.3355150e+02   1.8863890e+01
   2.3403360e+02   2.3331670e+01
   2.3451570e+02   1.0512450e+01
   2.3499790e+02   7.1202390e+00
   2.3548000e+02   3.7122310e+01
   2.3596210e+02   6.5591060e+01
   2.3644420e+02   7.6698970e+01
   2.3692630e+02   6.4288940e+01
   2.3740840e+02   4.4974730e+01
   2.3789060e+02   1.7652220e+01
   2.3837270e+02   2.1846190e+01
   2.3885480e+02   3.9360470e+01
   2.3933690e+02   2.2233890e+01
   2.3981900e+02   7.7623290e+00
   2.4030110e+02   2.1346920e+01
   2.4078330e+02   1.4880250e+01
   2.4126540e+02   2.2896730e+00
   2.4174750e+02   3.0800900e+01
   2.4222960e+02   7.6688600e+01
   2.4271170e+02   1.1094780e+02
   2.4319380e+02   1.3432040e+02
   2.4367600e+02   1.4567680e+02
   2.4415810e+02   1.3936330e+02
   2.4464020e+02   9.5594730e+01
   2.4512230e+02   6.5131590e+01
   2.4560440e+02   7.0382690e+01
   2.4608650e+02   1.3062960e+02
   2.4656870e+02   1.7029940e+02
   2.4705080e+02   1.7962650e+02
   2.4753290e+02   1.7194840e+02
   2.4801500e+02   1.7805370e+02
   2.4849710e+02   2.0845320e+02
   2.4897920e+02   2.3696500e+02
   2.4946140e+02   2.5122800e+02
   2.4994350e+02   2.4445460e+02
   2.5042560e+02   2.4008980e+02
   2.5090770e+02   2.3778080e+02
   2.5138980e+02   2.3809880e+02
   2.5187190e+02   2.4186950e+02
   2.5235410e+02   2.4546660e+02
   2.5283620e+02   2.5810570e+02
   2.5331830e+02   2.8839540e+02
   2.5380040e+02   3.5367550e+02
   2.5428250e+02   3.9358630e+02
   2.5476460e+02   3.9562280e+02
   2.5524680e+02   3.7098210e+02
   2.5572890e+02   3.6164830e+02
   2.5621100e+02   3.7470480e+02
   2.5669310e+02   3.9240360e+02
   2.5717520e+02   4.0387950e+02
   2.5765730e+02   4.0402260e+02
   2.5813950e+02   4.1139150e+02
   2.5862160e+02   4.3113350e+02
   2.5910370e+02   4.5981980e+02
   2.5958580e+02   4.7657860e+02
   2.6006790e+02   4.7122620e+02
   2.6055000e+02   4.7024280e+02
   2.6103220e+02   4.9610510e+02
   2.6151430e+02   5.6430990e+02
   2.6199640e+02   6.1496690e+02
   2.6247850e+02   6.3700510e+02
   2.6296060e+02   6.3489160e+02
   2.6344270e+02   6.3872630e+02
   2.6392490e+02   6.5041500e+02
   2.6440700e+02   6.6491190e+02
   2.6488910e+02   6.7854910e+02
   2.6537120e+02   6.9067460e+02
   2.6585330e+02   7.0376320e+02
   2.6633540e+02   7.1846780e+02
   2.6681760e+02   7.3456690e+02
   2.6729970e+02   7.5185500e+02
   2.6778180e+02   7.7126990e+02
   2.6826390e+02   7.8992290e+02
   2.6874600e+02   8.0963760e+02
   2.6922810e+02   8.3745530e+02
   2.6971030e+02   8.3723190e+02
   2.7019240e+02   7.8720180e+02
   2.7067450e+02   6.9584810e+02
   2.7115660e+02   6.6670540e+02
   2.7163870e+02   7.2261680e+02
   2.7212080e+02   7.9295090e+02
   2.7260300e+02   8.0427290e+02
   2.7308510e+02   7.4061760e+02
   2.7356720e+02   6.8846690e+02
   2.7404930e+02   6.6949350e+02
   2.7453140e+02   6.8025120e+02
   2.7501350e+02   6.8307860e+02
   2.7549570e+02   6.7333540e+02
   2.7597780e+02   6.6657630e+02
   2.7645990e+02   6.8629990e+02
   2.7694200e+02   7.3871700e+02
   2.7742410e+02   7.7197340e+02
   2.7790630e+02   7.6388540e+02
   2.7838840e+02   7.2119530e+02
   2.7887050e+02   7.0990500e+02
   2.7935260e+02   7.3999230e+02
   2.7983470e+02   7.7764700e+02
   2.8031680e+02   7.8017900e+02
   2.8079900e+02   7.4292850e+02
   2.8128110e+02   7.1313210e+02
   2.8176320e+02   7.0830400e+02
   2.8224530e+02   7.2607430e+02
   2.8272740e+02   7.5220410e+02
   2.8320950e+02   7.9030220e+02
   2.8369170e+02   8.2089820e+02
   2.8417380e+02   8.1238420e+02
   2.8465590e+02   7.6339600e+02
   2.8513800e+02   7.2585350e+02
   2.8562010e+02   7.2303100e+02
   2.8610220e+02   7.4787260e+02
   2.8658440e+02   7.6012450e+02
   2.8706650e+02   7.5640500e+02
   2.8754860e+02   7.5053150e+02
   2.8803070e+02   7.5987510e+02
   2.8851280e+02   7.8441420e+02
   2.8899490e+02   8.1121180e+02
   2.8947710e+02   8.3724730e+02
   2.8995910e+02   8.6084130e+02
   2.9044130e+02   8.7786720e+02
   2.9092340e+02   8.8939480e+02
   2.9140550e+02   8.9619750e+02
   2.9188760e+02   8.9780350e+02
   2.9236970e+02   8.9519070e+02
   2.9285180e+02   8.9511820e+02
   2.9333400e+02   8.9863900e+02
   2.9381610e+02   9.0545800e+02
   2.9429820e+02   9.1936490e+02
   2.9478030e+02   9.4339640e+02
   2.9526240e+02   9.6426650e+02
   2.9574450e+02   9.6605690e+02
   2.9622670e+02   9.5102910e+02
   2.9670880e+02   9.3192070e+02
   2.9719090e+02   9.0649410e+02
   2.9767300e+02   8.8156950e+02
   2.9815510e+02   8.7711040e+02
   2.9863720e+02   8.9531080e+02
   2.9911940e+02   9.1580290e+02
   2.9960150e+02   9.1337330e+02
   3.0008360e+02   8.9531050e+02
   3.0056570e+02   8.8234280e+02
   3.0104780e+02   8.9060520e+02
   3.0152990e+02   9.0684550e+02
   3.0201210e+02   9.0763120e+02
   3.0249420e+02   8.9181840e+02
   3.0297630e+02   8.7738530e+02
   3.0345840e+02   8.7575280e+02
   3.0394050e+02   8.8731930e+02
   3.0442260e+02   9.1299930e+02
   3.0490480e+02   9.6924070e+02
   3.0538690e+02   1.0320490e+03
   3.0586900e+02   1.0681620e+03
   3.0635110e+02   1.0767950e+03
   3.0683320e+02   1.0831630e+03
   3.0731530e+02   1.1131190e+03
   3.0779750e+02   1.1538220e+03
   3.0827960e+02   1.1829530e+03
   3.0876170e+02   1.1783270e+03
   3.0924380e+02   1.1667350e+03
   3.0972590e+02   1.1702220e+03
   3.1020800e+02   1.1893430e+03
   3.1069020e+02   1.2178870e+03
   3.1117230e+02   1.2570620e+03
   3.1165440e+02   1.3021240e+03
   3.1213650e+02   1.3460430e+03
   3.1261860e+02   1.3846290e+03
   3.1310070e+02   1.4224920e+03
   3.1358290e+02   1.4612580e+03
   3.1406500e+02   1.5007010e+03
   3.1454710e+02   1.5435720e+03
   3.1502920e+02   1.5949390e+03
   3.1551130e+02   1.6495990e+03
   3.1599340e+02   1.7018350e+03
   3.1647560e+02   1.7428740e+03
   3.1695770e+02   1.7868180e+03
   3.1743980e+02   1.8444480e+03
   3.1792190e+02   1.9158190e+03
   3.1840400e+02   1.9798330e+03
   3.1888610e+02   2.0243260e+03
   3.1936830e+02   2.0593210e+03
   3.1985040e+02   2.0943690e+03
   3.2033250e+02   2.1197600e+03
   3.2081460e+02   2.1573090e+03
   3.2129670e+02   2.2274420e+03
   3.2177880e+02   2.3288680e+03
   3.2226100e+02   2.4051980e+03
   3.2274310e+02   2.4240450e+03
   3.2322520e+02   2.4222060e+03
   3.2370730e+02   2.4292920e+03
   3.2418940e+02   2.4584570e+03
   3.2467150e+02   2.4878460e+03
   3.2515370e+02   2.5092390e+03
   3.2563580e+02   2.5231380e+03
   3.2611790e+02   2.5465210e+03
   3.2660000e+02   2.6037110e+03
   3.2708210e+02   2.6593680e+03
   3.2756420e+02   2.6894360e+03
   3.2804640e+02   2.6467970e+03
   3.2852850e+02   2.6271700e+03
   3.2901060e+02   2.6523850e+03
   3.2949270e+02   2.7178770e+03
   3.2997480e+02   2.7604800e+03
   3.3045690e+02   2.7801720e+03
   3.3093910e+02   2.7787920e+03
   3.3142120e+02   2.7555930e+03
   3.3190330e+02   2.6954280e+03
   3.3238540e+02   2.6362590e+03
   3.3286750e+02   2.5756480e+03
   3.3334960e+02   2.5171600e+03
   3.3383180e+02   2.4847090e+03
   3.3431390e+02   2.4946940e+03
   3.3479600e+02   2.5106670e+03
   3.3527810e+02   2.5107590e+03
   3.3576020e+02   2.4906110e+03
   3.3624230e+02   2.4663690e+03
   3.3672450e+02   2.4425680e+03
   3.3720660e+02   2.4152580e+03
   3.3768870e+02   2.3650500e+03
   3.3817080e+02   2.2833230e+03
   3.3865290e+02   2.1983260e+03
   3.3913500e+02   2.1248810e+03
   3.3961720e+02   2.0647940e+03
   3.4009930e+02   2.0107220e+03
   3.4058140e+02   1.9636150e+03
   3.4106350e+02   1.9211620e+03
   3.4154560e+02   1.8767240e+03
   3.4202770e+02   1.8307080e+03
   3.4250990e+02   1.7818880e+03
   3.4299200e+02   1.7320270e+03
   3.4347410e+02   1.6806720e+03
   3.4395620e+02   1.6169830e+03
   3.4443830e+02   1.5374660e+03
   3.4492040e+02   1.4491630e+03
   3.4540260e+02   1.3531360e+03
   3.4588470e+02   1.2488560e+03
   3.4636680e+02   1.1699320e+03
   3.4684890e+02   1.1526010e+03
   3.4733100e+02   1.1804820e+03
   3.4781310e+02   1.1700420e+03
   3.4829530e+02   1.1090360e+03
   3.4877740e+02   1.0328190e+03
   3.4925950e+02   9.9117330e+02
   3.4974160e+02   9.7889010e+02
   3.5022370e+02   9.6375020e+02
   3.5070580e+02   9.2431370e+02
   3.5118800e+02   8.7154710e+02
   3.5167010e+02   8.2996110e+02
   3.5215220e+02   8.0247970e+02
   3.5263430e+02   7.7405800e+02
   3.5311640e+02   7.1620620e+02
   3.5359850e+02   6.4384270e+02
   3.5408070e+02   5.9668360e+02
   3.5456280e+02   6.1442250e+02
   3.5504490e+02   6.5443070e+02
   3.5552700e+02   6.7122960e+02
   3.5600910e+02   6.6319430e+02
   3.5649120e+02   6.3669600e+02
   3.5697340e+02   5.7718260e+02
   3.5745550e+02   5.0516590e+02
   3.5793760e+02   4.5417790e+02
   3.5841970e+02   4.5618990e+02
   3.5890180e+02   4.6867300e+02
   3.5938390e+02   4.5856910e+02
   3.5986610e+02   4.2622410e+02
   3.6034820e+02   4.0331260e+02
   3.6083030e+02   4.1800500e+02
   3.6131240e+02   4.4575900e+02
   3.6179450e+02   4.6169900e+02
   3.6227660e+02   4.4880190e+02
   3.6275880e+02   4.3126340e+02
   3.6324090e+02   4.1907870e+02
   3.6372300e+02   4.1123780e+02
   3.6420510e+02   3.9800960e+02
   3.6468720e+02   3.6988880e+02
   3.6516930e+02   3.3912340e+02
   3.6565150e+02   3.1411880e+02
   3.6613360e+02   2.9720450e+02
   3.6661570e+02   2.8568100e+02
   3.6709780e+02   2.8655850e+02
   3.6757990e+02   2.9540540e+02
   3.6806200e+02   2.9030490e+02
   3.6854420e+02   2.4792940e+02
   3.6902630e+02   2.0701120e+02
   3.6950840e+02   1.8625230e+02
   3.6999050e+02   2.0197560e+02
   3.7047260e+02   2.1600070e+02
   3.7095470e+02   2.3318510e+02
   3.7143690e+02   2.4867430e+02
   3.7191900e+02   2.4798160e+02
   3.7240110e+02   2.2179860e+02
   3.7288320e+02   1.9168200e+02
   3.7336530e+02   1.6537870e+02
   3.7384740e+02   1.4223720e+02
   3.7432950e+02   1.2415730e+02
   3.7481160e+02   1.1023920e+02
   3.7529380e+02   1.0155330e+02
   3.7577590e+02   1.0432680e+02
   3.7625800e+02   1.2734550e+02
   3.7674010e+02   1.3668570e+02
   3.7722220e+02   1.1375640e+02
   3.7770430e+02   5.5171260e+01
   3.7818650e+02   1.3997010e+01
   3.7866860e+02   7.6776730e+00
   3.7915070e+02   1.8029540e+01
   3.7963280e+02   2.6345760e+01
   3.8011490e+02   3.2502500e+01
   3.8059700e+02   3.9926510e+01
   3.8107920e+02   5.3177370e+01
   3.8156130e+02   6.8988530e+01
   3.8204340e+02   6.8675050e+01
   3.8252550e+02   4.9973020e+01
   3.8300760e+02   3.1459170e+01
   3.8348970e+02   3.4344670e+01
   3.8397190e+02   5.4591860e+01
   3.8445400e+02   7.5950130e+01
   3.8493610e+02   9.9229000e+01
   3.8541820e+02   1.1647740e+02
   3.8590030e+02   1.0611040e+02
   3.8638240e+02   7.0188170e+01
   3.8686460e+02   3.5779970e+01
   3.8734670e+02   2.7711980e+01
   3.8782880e+02   3.4390990e+01
   3.8831090e+02   3.6313540e+01
   3.8879300e+02   2.8452270e+01
   3.8927510e+02   1.4377870e+01
   3.8975730e+02   3.0843510e+00
   3.9023940e+02   2.3492250e+01
   3.9072150e+02   4.5558230e+01
   3.9120360e+02   7.1878600e+01
   3.9168570e+02   9.7002500e+01
   3.9216780e+02   1.1849190e+02
   3.9265000e+02   1.3818090e+02
   3.9313210e+02   1.4877490e+02
   3.9361420e+02   1.2695720e+02
   3.9409630e+02   9.3725650e+01
   3.9457840e+02   9.0915470e+01
   3.9506050e+02   1.6779160e+02
   3.9554270e+02   2.5126770e+02
   3.9602480e+02   3.0770360e+02
   3.9650690e+02   3.2916100e+02
   3.9698900e+02   3.3998700e+02
   3.9747110e+02   3.3458280e+02
   3.9795320e+02   3.2478770e+02
   3.9843540e+02   3.2536720e+02
   3.9891750e+02   3.4043020e+02
   3.9939960e+02   3.6171580e+02
   3.9988170e+02   3.9572980e+02
   4.0036380e+02   4.4647970e+02
   4.0084590e+02   4.7086110e+02
   4.0132810e+02   4.5252300e+02
   4.0181020e+02   4.1955150e+02
   4.0229230e+02   3.9536320e+02
   4.0277440e+02   3.8330320e+02
   4.0325650e+02   3.7373470e+02
   4.0373860e+02   3.6357950e+02
   4.0422080e+02   3.5380420e+02
   4.0470290e+02   3.5454170e+02
   4.0518500e+02   3.6957980e+02
   4.0566710e+02   3.8834100e+02
   4.0614920e+02   4.0489000e+02
   4.0663130e+02   4.2019970e+02
   4.0711350e+02   4.2858110e+02
   4.0759560e+02   4.2791810e+02
   4.0807770e+02   4.2230540e+02
   4.0855980e+02   4.2110830e+02
   4.0904190e+02   4.2307040e+02
   4.0952400e+02   4.2448910e+02
   4.1000620e+02   4.2536870e+02
   4.1048830e+02   4.2482840e+02
   4.1097040e+02   4.1687350e+02
   4.1145250e+02   4.0124110e+02
   4.1193460e+02   3.7744330e+02
   4.1241670e+02   3.3248900e+02
   4.1289890e+02   2.7435180e+02
   4.1338100e+02   2.3730440e+02
   4.1386310e+02   2.5335300e+02
   4.1434520e+02   2.9512810e+02
   4.1482730e+02   3.1892060e+02
   4.1530940e+02   3.2342470e+02
   4.1579160e+02   3.2527860e+02
   4.1627370e+02   3.4557610e+02
   4.1675580e+02   3.7100790e+02
   4.1723790e+02   3.8064530e+02
   4.1772000e+02   3.4706060e+02
   4.1820210e+02   3.1240800e+02
   4.1868430e+02   3.0898040e+02
   4.1916640e+02   3.3231370e+02
   4.1964850e+02   3.5414180e+02
   4.2013060e+02   3.6266870e+02
   4.2061270e+02   3.6283260e+02
   4.2109480e+02   3.5753060e+02
   4.2157700e+02   3.3937610e+02
   4.2205910e+02   3.2774530e+02
   4.2254120e+02   3.3229440e+02
   4.2302330e+02   3.4762930e+02
   4.2350540e+02   3.5853730e+02
   4.2398750e+02   3.6549110e+02
   4.2446970e+02   3.6470580e+02
   4.2495180e+02   3.5184370e+02
   4.2543390e+02   3.1379380e+02
   4.2591600e+02   2.9356820e+02
   4.2639810e+02   2.9999370e+02
   4.2688020e+02   3.2094570e+02
   4.2736240e+02   3.4008240e+02
   4.2784450e+02   3.6257730e+02
   4.2832660e+02   3.7365250e+02
   4.2880870e+02   3.6565170e+02
   4.2929080e+02   3.3783120e+02
   4.2977290e+02   3.2154300e+02
   4.3025510e+02   3.2119170e+02
   4.3073720e+02   3.2528970e+02
   4.3121930e+02   3.2196950e+02
   4.3170140e+02   3.0927910e+02
   4.3218350e+02   3.0291280e+02
   4.3266560e+02   3.1002960e+02
   4.3314780e+02   3.2305540e+02
   4.3362990e+02   3.1383690e+02
   4.3411200e+02   2.8089230e+02
   4.3459410e+02   2.4895740e+02
   4.3507620e+02   2.3626560e+02
   4.3555830e+02   2.3923440e+02
   4.3604050e+02   2.4342480e+02
   4.3652260e+02   2.4855940e+02
   4.3700470e+02   2.4912480e+02
   4.3748680e+02   2.3350710e+02
   4.3796890e+02   2.0635500e+02
   4.3845100e+02   1.8235550e+02
   4.3893320e+02   1.7589830e+02
   4.3941530e+02   1.7308220e+02
   4.3989740e+02   1.5404270e+02
   4.4037950e+02   1.1718780e+02
   4.4086160e+02   8.5347900e+01
   4.4134380e+02   7.2373410e+01
   4.4182590e+02   7.2623660e+01
   4.4230800e+02   7.9432560e+01
   4.4279010e+02   1.0693840e+02
   4.4327220e+02   1.2578580e+02
   4.4375430e+02   1.1955410e+02
   4.4423650e+02   9.2065800e+01
   4.4471860e+02   6.5666380e+01
   4.4520070e+02   4.2711550e+01
   4.4568280e+02   2.3042360e+01
   4.4616490e+02   7.1393430e+00
   4.4664700e+02   4.5655520e+00
   4.4712920e+02   1.1392640e+01
   4.4761130e+02   1.4090030e+01
   4.4809340e+02   1.2477660e+01
   4.4857550e+02   3.9593510e+00
   4.4905760e+02   2.3963440e+01
   4.4953970e+02   4.4085450e+01
   4.5002190e+02   4.4338440e+01
   4.5050400e+02   1.7293150e+01
   4.5098610e+02   1.1288450e+00
   4.5146820e+02   1.8402710e+00
   4.5195030e+02   3.3366700e+00
   4.5243240e+02   1.2669190e+01
   4.5291460e+02   2.9114440e+01
   4.5339670e+02   3.5991460e+01
   4.5387880e+02   2.5355710e+01
   4.5436090e+02   1.5256350e+00
   4.5484300e+02   1.4910770e+01
   4.5532510e+02   2.4706050e+01
   4.5580720e+02   2.3061460e+01
   4.5628930e+02   4.4061300e-01
   4.5677150e+02   4.1394040e+01
   4.5725360e+02   7.7312870e+01
   4.5773570e+02   1.0678980e+02
   4.5821780e+02   1.2503420e+02
   4.5869990e+02   1.2049760e+02
   4.5918200e+02   9.6916870e+01
   4.5966420e+02   7.0419800e+01
   4.6014630e+02   4.2619140e+01
   4.6062840e+02   2.0758480e+01
   4.6111050e+02   1.8603940e+01
   4.6159260e+02   4.0309450e+01
   4.6207470e+02   6.0091830e+01
   4.6255690e+02   5.9358580e+01
   4.6303900e+02   4.6067750e+01
   4.6352110e+02   3.1245940e+01
   4.6400320e+02   1.5837890e+01
   4.6448530e+02   2.5563350e+00
   4.6496740e+02   1.0315580e+01
   4.6544960e+02   2.1837040e+01
   4.6593170e+02   2.2114290e+01
   4.6641380e+02   6.3797610e+00
   4.6689590e+02   3.7215420e+01
   4.6737800e+02   5.4176450e+01
   4.6786010e+02   3.9096860e+01
   4.6834230e+02   3.0388550e+01
   4.6882440e+02   3.1345030e+01
   4.6930650e+02   3.9068270e+01
   4.6978860e+02   4.6715880e+01
   4.7027070e+02   5.7173580e+01
   4.7075280e+02   6.2882690e+01
   4.7123500e+02   5.8142940e+01
   4.7171710e+02   4.0685910e+01
   4.7219920e+02   3.9362000e+01
   4.7268130e+02   6.3421110e+01
   4.7316340e+02   9.0182310e+01
   4.7364550e+02   8.7715640e+01
   4.7412770e+02   5.4301540e+01
   4.7460980e+02   2.4976230e+01
   4.7509190e+02   6.6434020e+00
   4.7557400e+02   3.8757300e-01
   4.7605610e+02   1.0217930e+01
   4.7653820e+02   3.8734220e+01
   4.7702040e+02   6.5245030e+01
   4.7750250e+02   7.4256160e+01
   4.7798460e+02   7.0592770e+01
   4.7846670e+02   6.0102870e+01
   4.7894880e+02   3.8956850e+01
   4.7943090e+02   2.5986020e+01
   4.7991310e+02   5.1636440e+01
   4.8039520e+02   1.0021370e+02
   4.8087730e+02   1.3564370e+02
   4.8135940e+02   1.3567940e+02
   4.8184150e+02   1.1949870e+02
   4.8232360e+02   9.5873290e+01
   4.8280580e+02   6.5221440e+01
   4.8328790e+02   3.8713620e+01
   4.8377000e+02   1.5078030e+01
   4.8425210e+02   4.1595500e-01
   4.8473420e+02   1.5188600e-01
   4.8521630e+02   3.7000670e+01
   4.8569850e+02   6.4082860e+01
   4.8618060e+02   6.6003910e+01
   4.8666270e+02   4.9448180e+01
   4.8714480e+02   4.7581300e+01
   4.8762690e+02   7.0411290e+01
   4.8810900e+02   9.6703550e+01
   4.8859120e+02   1.2037670e+02
   4.8907330e+02   1.4638460e+02
   4.8955540e+02   1.5139950e+02
   4.9003750e+02   1.2883120e+02
   4.9051960e+02   9.3611020e+01
   4.9100170e+02   6.4073820e+01
   4.9148390e+02   3.8808750e+01
   4.9196600e+02   2.8215640e+01
   4.9244810e+02   4.1962430e+01
   4.9293020e+02   7.1324710e+01
   4.9341230e+02   7.9549070e+01
   4.9389440e+02   6.6203640e+01
   4.9437660e+02   4.5941590e+01
   4.9485870e+02   2.0608700e+01
   4.9534080e+02   2.6883240e+00
   4.9582290e+02   1.6300660e+00
   4.9630500e+02   3.5908260e+01
   4.9678710e+02   7.8310970e+01
   4.9726930e+02   9.1449770e+01
   4.9775140e+02   8.3044710e+01
   4.9823350e+02   7.2320470e+01
   4.9871560e+02   6.2059420e+01
   4.9919770e+02   5.7408600e+01
   4.9967980e+02   6.7998470e+01
   5.0016200e+02   9.5593720e+01
   5.0064410e+02   1.1427840e+02
   5.0112620e+02   1.0204070e+02
   5.0160830e+02   8.1847660e+01
   5.0209040e+02   7.3875580e+01
   5.0257250e+02   9.8821080e+01
   5.0305470e+02   1.1919880e+02
   5.0353680e+02   1.2821240e+02
   5.0401890e+02   1.2661810e+02
   5.0450100e+02   1.2030860e+02
   5.0498310e+02   1.0641980e+02
   5.0546520e+02   9.4097630e+01
   5.0594740e+02   8.6178830e+01
   5.0642950e+02   8.2115300e+01
   5.0691160e+02   9.1271580e+01
   5.0739370e+02   1.2236600e+02
   5.0787580e+02   1.5141080e+02
   5.0835790e+02   1.3994130e+02
   5.0884010e+02   8.2942840e+01
   5.0932220e+02   4.1389430e+01
   5.0980430e+02   3.3393400e+01
   5.1028640e+02   5.0080230e+01
   5.1076850e+02   7.3100710e+01
   5.1125060e+02   1.0177410e+02
   5.1173280e+02   1.2012320e+02
   5.1221480e+02   1.0892910e+02
   5.1269700e+02   7.8107120e+01
   5.1317910e+02   5.6285430e+01
   5.1366120e+02   4.8419280e+01
   5.1414330e+02   4.9956670e+01
   5.1462540e+02   5.7324830e+01
   5.1510750e+02   6.8884340e+01
   5.1558970e+02   8.3118130e+01
   5.1607180e+02   1.1312130e+02
   5.1655390e+02   1.3389550e+02
   5.1703600e+02   1.2543530e+02
   5.1751810e+02   8.9060910e+01
   5.1800020e+02   5.9736360e+01
   5.1848240e+02   4.7432250e+01
   5.1896450e+02   4.5125950e+01
   5.1944660e+02   4.8597600e+01
   5.1992870e+02   5.8920720e+01
   5.2041080e+02   7.3290220e+01
   5.2089290e+02   9.8581020e+01
   5.2137510e+02   1.2523870e+02
   5.2185720e+02   1.3284490e+02
   5.2233930e+02   1.1275590e+02
   5.2282140e+02   9.1261570e+01
   5.2330350e+02   7.6627260e+01
   5.2378560e+02   6.9388520e+01
   5.2426780e+02   6.3014500e+01
   5.2474990e+02   5.5156590e+01
   5.2523200e+02   5.1276150e+01
   5.2571410e+02   6.1320500e+01
   5.2619620e+02   8.2359530e+01
   5.2667830e+02   9.5053830e+01
   5.2716050e+02   9.6353390e+01
   5.2764260e+02   8.6822810e+01
   5.2812470e+02   5.5123350e+01
   5.2860680e+02   9.9841610e+00
   5.2908890e+02   1.7968440e+01
   5.2957100e+02   4.1021120e+00
   5.3005320e+02   4.1732510e+01
   5.3053530e+02   6.0811650e+01
   5.3101740e+02   5.8465940e+01
   5.3149950e+02   5.4830630e+01
   5.3198160e+02   6.8610900e+01
   5.3246370e+02   8.2207640e+01
   5.3294590e+02   7.9433140e+01
   5.3342800e+02   2.8313840e+01
   5.3391010e+02   6.9371950e+00
   5.3439220e+02   6.0071110e+00
   5.3487430e+02   2.1117250e+01
   5.3535640e+02   4.2132750e+01
   5.3583860e+02   5.7210020e+01
   5.3632070e+02   6.4860200e+01
   5.3680280e+02   6.2838170e+01
   5.3728490e+02   4.9348110e+01
   5.3776700e+02   3.8281220e+01
   5.3824910e+02   2.6693570e+01
   5.3873130e+02   2.2110810e+01
   5.3921340e+02   3.7740910e+01
   5.3969550e+02   7.5286960e+01
   5.4017760e+02   1.0125170e+02
   5.4065970e+02   1.0740750e+02
   5.4114180e+02   1.0071730e+02
   5.4162400e+02   9.3933290e+01
   5.4210610e+02   8.6729640e+01
   5.4258820e+02   7.8591060e+01
   5.4307030e+02   6.4192020e+01
   5.4355240e+02   5.0731570e+01
   5.4403450e+02   5.4252810e+01
   5.4451670e+02   7.7101070e+01
   5.4499880e+02   9.5400850e+01
   5.4548090e+02   8.3075960e+01
   5.4596300e+02   5.7845520e+01
   5.4644510e+02   4.3440030e+01
   5.4692720e+02   6.1940370e+01
   5.4740940e+02   7.6397710e+01
   5.4789150e+02   6.9921720e+01
   5.4837360e+02   4.8738800e+01
   5.4885570e+02   3.4156400e+01
   5.4933780e+02   2.9075740e+01
   5.4981990e+02   3.1487790e+01
   5.5030210e+02   4.4079960e+01
   5.5078420e+02   7.2149930e+01
   5.5126630e+02   8.4216060e+01
   5.5174840e+02   7.1075620e+01
   5.5223050e+02   5.3313540e+01
   5.5271260e+02   5.4665680e+01
   5.5319480e+02   7.9198580e+01
   5.5367690e+02   9.4059020e+01
   5.5415900e+02   9.3529300e+01
   5.5464110e+02   8.0661410e+01
   5.5512320e+02   5.4237340e+01
   5.5560530e+02   1.5723910e+01
   5.5608750e+02   4.6212160e+00
   5.5656960e+02   2.8485720e+01
   5.5705170e+02   8.5563720e+01
   5.5753380e+02   1.1542260e+02
   5.5801590e+02   1.1524520e+02
   5.5849800e+02   9.7756530e+01
   5.5898020e+02   5.7988280e+01
   5.5946230e+02   1.1428680e+01
   5.5994440e+02   2.1365600e+01
   5.6042650e+02   3.1863770e+01
   5.6090860e+02   3.2313350e+01
   5.6139070e+02   2.2619780e+01
   5.6187290e+02   6.0802610e+00
   5.6235500e+02   8.2147520e+00
   5.6283710e+02   1.5680020e+01
   5.6331920e+02   2.4349400e+01
   5.6380130e+02   3.6387600e+01
   5.6428340e+02   5.2370360e+01
   5.6476560e+02   6.4762450e+01
   5.6524770e+02   7.4802090e+01
   5.6572980e+02   7.9616460e+01
   5.6621190e+02   7.3992370e+01
   5.6669400e+02   5.4676790e+01
   5.6717610e+02   4.6124880e+01
   5.6765830e+02   5.6885710e+01
   5.6814040e+02   7.1911530e+01
   5.6862250e+02   5.1509310e+01
   5.6910460e+02   2.6129200e-01
   5.6958670e+02   3.2718480e+01
   5.7006880e+02   3.0917400e-01
   5.7055100e+02   6.0367490e+01
   5.7103310e+02   7.5196530e+01
   5.7151520e+02   4.5715270e+01
   5.7199730e+02   1.8819370e+01
   5.7247940e+02   3.4166530e+01
   5.7296150e+02   6.6223300e+01
   5.7344370e+02   8.7712830e+01
   5.7392580e+02   8.7379640e+01
   5.7440790e+02   8.6748290e+01
   5.7489000e+02   9.5087010e+01
   5.7537210e+02   1.0831330e+02
   5.7585420e+02   1.1912820e+02
   5.7633640e+02   1.3931180e+02
   5.7681850e+02   1.4254020e+02
   5.7730060e+02   1.1131120e+02
   5.7778270e+02   4.7800840e+01
   5.7826480e+02   2.6199130e+01
   5.7874690e+02   6.8730990e+01
   5.7922910e+02   1.1288330e+02
   5.7971120e+02   1.1047570e+02
   5.8019330e+02   5.7102450e+01
   5.8067540e+02   2.8725680e+01
   5.8115750e+02   3.3424650e+01
   5.8163960e+02   5.1787690e+01
   5.8212180e+02   5.8155330e+01
   5.8260390e+02   5.4650850e+01
   5.8308600e+02   5.1496430e+01
   5.8356810e+02   5.5415280e+01
   5.8405020e+02   5.8628510e+01
   5.8453230e+02   4.6571500e+01
   5.8501450e+02   2.3242430e+01
   5.8549660e+02   7.3206480e+00
   5.8597870e+02   1.2245850e+01
   5.8646080e+02   2.6152400e+01
   5.8694290e+02   4.0111760e+01
   5.8742500e+02   5.5274870e+01
   5.8790720e+02   7.1783360e+01
   5.8838930e+02   1.0420750e+02
   5.8887140e+02   1.3170410e+02
   5.8935350e+02   1.2965770e+02
   5.8983560e+02   6.4020600e+01
   5.9031770e+02   2.3139400e+01
   5.9079990e+02   2.5483060e+01
   5.9128200e+02   5.5676150e+01
   5.9176410e+02   6.6436800e+01
   5.9224620e+02   5.4269290e+01
   5.9272830e+02   3.8877440e+01
   5.9321040e+02   2.5393950e+01
   5.9369260e+02   1.4630490e+01
   5.9417470e+02   1.6349610e+01
   5.9465680e+02   3.1768770e+01
   5.9513890e+02   4.6663820e+01
   5.9562100e+02   4.1806370e+01
   5.9610310e+02   2.7814640e+01
   5.9658530e+02   2.9017360e+01
   5.9706740e+02   5.7900210e+01
   5.9754950e+02   8.4717770e+01
   5.9803160e+02   7.5353970e+01
   5.9851370e+02   4.7817110e+01
   5.9899580e+02   3.5677490e+01
   5.9947800e+02   7.4225100e+01
   5.9996010e+02   1.0814620e+02
   6.0044220e+02   1.1542650e+02
   6.0092430e+02   9.6109890e+01
   6.0140640e+02   7.0398250e+01
   6.0188850e+02   2.3844820e+01
   6.0237070e+02   1.2506870e+01
   6.0285280e+02   2.0635100e+01
   6.0333490e+02   1.0356660e+01
   6.0381700e+02   3.2164150e+01
   6.0429910e+02   4.3491520e+01
   6.0478130e+02   4.7795010e+01
   6.0526340e+02   4.7650420e+01
   6.0574550e+02   4.3183410e+01
   6.0622760e+02   4.0706300e+01
   6.0670970e+02   4.1752040e+01
   6.0719180e+02   4.5678530e+01
   6.0767400e+02   5.3078520e+01
   6.0815610e+02   6.3024170e+01
   6.0863820e+02   7.1442600e+01
   6.0912030e+02   8.0053680e+01
   6.0960240e+02   8.3402010e+01
   6.1008450e+02   7.2353610e+01
   6.1056670e+02   4.5850950e+01
   6.1104880e+02   2.4262660e+01
   6.1153090e+02   1.5231200e+01
   6.1201300e+02   1.5296110e+01
   6.1249510e+02   2.1869420e+01
   6.1297720e+02   4.3548920e+01
   6.1345940e+02   5.9106260e+01
   6.1394150e+02   6.7836060e+01
   6.1442360e+02   7.0372470e+01
   6.1490570e+02   6.4167540e+01
   6.1538780e+02   4.2431520e+01
   6.1586990e+02   3.1221190e+01
   6.1635210e+02   4.3273190e+01
   6.1683420e+02   7.0454800e+01
   6.1731630e+02   7.2248990e+01
   6.1779840e+02   4.6077270e+01
   6.1828050e+02   1.9499850e+01
   6.1876260e+02   1.7084630e+01
   6.1924480e+02   2.8155880e+01
   6.1972690e+02   2.4496030e+01
   6.2020900e+02   1.2636410e+00
   6.2069110e+02   1.8081150e+01
   6.2117320e+02   1.5500090e+01
   6.2165530e+02   2.4984740e+00
   6.2213750e+02   2.8442110e+01
   6.2261960e+02   7.7115360e+01
   6.2310170e+02   1.1106210e+02
   6.2358380e+02   1.0927550e+02
   6.2406590e+02   8.3617610e+01
   6.2454800e+02   6.4058840e+01
   6.2503020e+02   5.7793850e+01
   6.2551230e+02   5.2677550e+01
   6.2599440e+02   4.5798370e+01
   6.2647650e+02   3.7316860e+01
   6.2695860e+02   3.1555080e+01
   6.2744070e+02   2.7619050e+01
   6.2792290e+02   2.5943020e+01
   6.2840500e+02   1.8624730e+01
   6.2888710e+02   7.0473630e+00
   6.2936920e+02   1.2908480e+01
   6.2985130e+02   4.2149230e+01
   6.3033340e+02   6.9532350e+01
   6.3081560e+02   6.0914520e+01
   6.3129770e+02   2.9660310e+01
   6.3177980e+02   4.6330260e+00
   6.3226190e+02   5.5009770e+00
   6.3274400e+02   4.9044800e+00
   6.3322610e+02   1.1389310e+01
   6.3370830e+02   3.7156340e+01
   6.3419040e+02   5.3725710e+01
   6.3467250e+02   4.8321960e+01
   6.3515460e+02   3.9274900e+01
   6.3563670e+02   3.0565340e+01
   6.3611880e+02   2.1366030e+01
   6.3660100e+02   2.6334380e+01
   6.3708310e+02   5.8050450e+01
   6.3756520e+02   8.8100950e+01
   6.3804730e+02   9.6985290e+01
   6.3852940e+02   8.0764950e+01
   6.3901150e+02   7.1965790e+01
   6.3949370e+02   7.3471950e+01
   6.3997580e+02   7.9703580e+01
   6.4045790e+02   8.6408390e+01
   6.4094000e+02   9.2205050e+01
   6.4142210e+02   8.9208340e+01
   6.4190420e+02   6.8506530e+01
   6.4238640e+02   4.5938660e+01
   6.4286850e+02   4.3648250e+01
   6.4335060e+02   5.5710330e+01
   6.4383270e+02   6.3341710e+01
   6.4431480e+02   5.6390900e+01
   6.4479690e+02   4.3300840e+01
   6.4527910e+02   2.1819340e+01
   6.4576120e+02   9.5482180e+00
   6.4624330e+02   1.8487430e+01
   6.4672540e+02   2.9782040e+01
   6.4720750e+02   7.7965330e+01
   6.4768960e+02   9.1299900e+01
   6.4817180e+02   5.0854220e+01
   6.4865390e+02   2.8618900e+01
   6.4913600e+02   3.0884740e+01
   6.4961810e+02   4.2624180e+01
   6.5010020e+02   4.0864380e+01
   6.5058230e+02   2.6393400e+01
   6.5106450e+02   1.8733090e+01
   6.5154660e+02   2.3989140e+01
   6.5202870e+02   3.7262050e+01
   6.5251080e+02   5.6581270e+01
   6.5299290e+02   7.8795320e+01
   6.5347500e+02   9.0989260e+01
   6.5395720e+02   7.7424440e+01
   6.5443930e+02   5.8394130e+01
   6.5492140e+02   4.7564640e+01
   6.5540350e+02   4.5696780e+01
   6.5588560e+02   4.7621150e+01
   6.5636770e+02   5.3584320e+01
   6.5684990e+02   6.1550900e+01
   6.5733200e+02   7.1409390e+01
   6.5781410e+02   8.8956790e+01
   6.5829620e+02   9.3214510e+01
   6.5877830e+02   7.9480500e+01
   6.5926040e+02   5.8054350e+01
   6.5974260e+02   3.8452030e+01
   6.6022460e+02   1.9161040e+01
   6.6070670e+02   1.2549770e+01
   6.6118880e+02   2.6535770e+01
   6.6167100e+02   2.3689610e+01
   6.6215310e+02   5.4342070e+01
   6.6263520e+02   7.1426210e+01
   6.6311730e+02   7.5671170e+01
   6.6359940e+02   2.8618840e+01
   6.6408150e+02   4.7809230e+01
   6.6456370e+02   4.0454010e+01
   6.6504580e+02   3.2011870e+01
   6.6552790e+02   6.0529110e+01
   6.6601000e+02   2.0944340e+01
   6.6649210e+02   4.8877960e+01
   6.6697420e+02   4.9861150e+01
   6.6745640e+02   6.3180330e+01
   6.6793850e+02   5.0787080e+01
   6.6842060e+02   4.7041560e+01
   6.6890270e+02   6.8682650e+01
   6.6938480e+02   7.5470400e+01
   6.6986690e+02   6.1185150e+01
   6.7034910e+02   6.4541140e+01
   6.7083120e+02   4.5406460e+01
   6.7131330e+02   2.1423770e+01
   6.7179540e+02   3.1010220e+01
   6.7227750e+02   6.5916840e+01
   6.7275960e+02   8.2409700e+01
   6.7324180e+02   4.1925080e+01
   6.7372390e+02   5.1427000e+00
   6.7420600e+02   4.8200070e+00
   6.7468810e+02   5.7617000e+01
   6.7517020e+02   9.7097290e+01
   6.7565230e+02   8.5547150e+01
   6.7613450e+02   6.3823270e+01
   6.7661660e+02   5.4724120e+01
   6.7709870e+02   6.2480190e+01
   6.7758080e+02   6.1239780e+01
   6.7806290e+02   4.2498930e+01
   6.7854500e+02   2.2113340e+01
   6.7902720e+02   1.1545410e+01
   6.7950930e+02   1.1499660e+01
   6.7999140e+02   1.7444120e+01
   6.8047350e+02   3.2460970e+01
   6.8095560e+02   4.5276890e+01
   6.8143770e+02   3.5257320e+01
   6.8191990e+02   8.1659850e+00
   6.8240200e+02   7.4837650e+00
   6.8288410e+02   5.0381500e-01
   6.8336620e+02   1.4904540e+01
   6.8384830e+02   1.2860320e+01
   6.8433040e+02   2.5232240e+00
   6.8481260e+02   3.6213070e+00
   6.8529470e+02   3.8563390e+01
   6.8577680e+02   7.5307250e+01
   6.8625890e+02   9.8478760e+01
   6.8674100e+02   1.0634680e+02
   6.8722310e+02   1.0662730e+02
   6.8770530e+02   9.6117100e+01
   6.8818740e+02   8.3973270e+01
   6.8866950e+02   7.1667820e+01
   6.8915160e+02   5.7916200e+01
   6.8963370e+02   6.2149290e+01
   6.9011580e+02   8.9320130e+01
   6.9059800e+02   1.1600990e+02
   6.9108010e+02   1.1596280e+02
   6.9156220e+02   9.5860780e+01
   6.9204430e+02   8.5268340e+01
   6.9252640e+02   9.1935120e+01
   6.9300850e+02   9.4617460e+01
   6.9349070e+02   5.7254610e+01
   6.9397280e+02   5.8467100e+00
   6.9445490e+02   1.8546600e+01
   6.9493700e+02   2.9341280e+01
   6.9541910e+02   7.4474000e+01
   6.9590120e+02   8.5802550e+01
   6.9638340e+02   7.3046600e+01
   6.9686550e+02   6.4640010e+01
   6.9734760e+02   6.1722110e+01
   6.9782970e+02   6.3674220e+01
   6.9831180e+02   7.1963380e+01
   6.9879390e+02   8.5456940e+01
   6.9927610e+02   9.6373660e+01
   6.9975820e+02   1.0514820e+02
   7.0024030e+02   1.0848770e+02
   7.0072240e+02   1.0124650e+02
   7.0120450e+02   8.7370570e+01
   7.0168660e+02   7.6157930e+01
   7.0216880e+02   6.9351680e+01
   7.0265090e+02   6.8041930e+01
   7.0313300e+02   8.2198820e+01
   7.0361510e+02   9.7439510e+01
   7.0409720e+02   9.5912080e+01
   7.0457930e+02   6.7841710e+01
   7.0506150e+02   4.1441740e+01
   7.0554360e+02   1.5679140e+01
   7.0602570e+02   7.8612998e-02
   7.0650780e+02   7.7725220e+00
   7.0698990e+02   5.8624730e+01
   7.0747200e+02   9.1526820e+01
   7.0795420e+02   9.4687350e+01
   7.0843630e+02   7.9886840e+01
   7.0891840e+02   7.0621090e+01
   7.0940050e+02   6.6961090e+01
   7.0988260e+02   6.8148010e+01
   7.1036470e+02   7.8745970e+01
   7.1084690e+02   9.0415680e+01
   7.1132900e+02   8.5952180e+01
   7.1181110e+02   6.8266200e+01
   7.1229320e+02   5.0580810e+01
   7.1277530e+02   3.2505980e+01
   7.1325740e+02   2.3289580e+01
   7.1373960e+02   3.5681700e+01
   7.1422170e+02   7.2677340e+01
   7.1470380e+02   9.4677340e+01
   7.1518590e+02   8.4886260e+01
   7.1566800e+02   6.5238530e+01
   7.1615010e+02   4.3473420e+01
   7.1663230e+02   1.3544310e+01
   7.1711440e+02   6.0021060e+00
   7.1759650e+02   2.5909730e+01
   7.1807860e+02   5.6079280e+01
   7.1856070e+02   8.1112060e+01
   7.1904280e+02   1.0072560e+02
   7.1952500e+02   1.1532180e+02
   7.2000710e+02   1.2691530e+02
   7.2048920e+02   1.2767570e+02
   7.2097130e+02   9.4102330e+01
   7.2145340e+02   4.5849460e+01
   7.2193550e+02   1.8921810e+01
   7.2241770e+02   4.7957210e+01
   7.2289980e+02   7.7932430e+01
   7.2338190e+02   9.4349850e+01
   7.2386400e+02   9.6496120e+01
   7.2434610e+02   8.0623840e+01
   7.2482820e+02   2.5892400e+01
   7.2531040e+02   1.3844760e+01
   7.2579250e+02   2.0112670e+01
   7.2627460e+02   1.7891850e+00
   7.2675670e+02   1.3912230e+01
   7.2723880e+02   1.4638370e+01
   7.2772090e+02   2.1038360e+01
   7.2820310e+02   5.6207240e+01
   7.2868520e+02   1.0196400e+02
   7.2916730e+02   1.1179360e+02
   7.2964940e+02   8.5124390e+01
   7.3013150e+02   5.8764070e+01
   7.3061360e+02   6.3049290e+01
   7.3109580e+02   7.6623380e+01
   7.3157790e+02   7.9845980e+01
   7.3206000e+02   6.4492860e+01
   7.3254210e+02   5.5806580e+01
   7.3302420e+02   6.7778050e+01
   7.3350630e+02   8.2234130e+01
   7.3398850e+02   8.4305820e+01
   7.3447060e+02   7.1442200e+01
   7.3495270e+02   5.2726870e+01
   7.3543480e+02   2.4694060e+01
   7.3591690e+02   1.1539610e+00
   7.3639900e+02   5.6642460e+00
   7.3688120e+02   8.8938290e+00
   7.3736330e+02   3.1191860e+01
   7.3784540e+02   6.5169250e+01
   7.3832750e+02   9.3976840e+01
   7.3880960e+02   9.4381900e+01
   7.3929170e+02   7.5978060e+01
   7.3977390e+02   6.1431730e+01
   7.4025600e+02   6.3934360e+01
   7.4073810e+02   6.7796970e+01
   7.4122020e+02   7.0302550e+01
   7.4170230e+02   6.9705410e+01
   7.4218440e+02   5.4676270e+01
   7.4266660e+02   1.1221710e+01
   7.4314870e+02   2.1504230e+01
   7.4363080e+02   2.5639110e+01
   7.4411290e+02   4.0418400e+00
   7.4459500e+02   1.5002590e+01
   7.4507710e+02   3.1483610e+01
   7.4555930e+02   4.6002140e+01
   7.4604140e+02   6.2306300e+01
   7.4652350e+02   7.4089320e+01
   7.4700560e+02   7.3178620e+01
   7.4748770e+02   5.8059420e+01
   7.4796980e+02   4.4976650e+01
   7.4845200e+02   4.3371980e+01
   7.4893410e+02   4.7753450e+01
   7.4941620e+02   5.4105380e+01
   7.4989830e+02   6.4618590e+01
   7.5038040e+02   7.1742650e+01
   7.5086250e+02   7.9152740e+01
   7.5134470e+02   7.9498750e+01
   7.5182680e+02   5.8992740e+01
   7.5230890e+02   1.1781920e+01
   7.5279100e+02   1.3079090e+01
   7.5327310e+02   6.0131840e+00
   7.5375520e+02   1.4947510e+01
   7.5423740e+02   2.2466840e+01
   7.5471950e+02   2.1464100e+01
   7.5520160e+02   2.6659710e+01
   7.5568370e+02   4.9523380e+01
   7.5616580e+02   7.2406830e+01
   7.5664790e+02   8.3982730e+01
   7.5713010e+02   8.6053960e+01
   7.5761220e+02   8.2527100e+01
   7.5809430e+02   7.5692750e+01
   7.5857640e+02   6.0855260e+01
   7.5905850e+02   2.6500320e+01
   7.5954060e+02   1.7815340e+01
   7.6002280e+02   1.9775600e+01
   7.6050490e+02   3.1783330e+01
   7.6098700e+02   8.1048000e+01
   7.6146910e+02   1.0394910e+02
   7.6195120e+02   1.0474680e+02
   7.6243330e+02   8.7807720e+01
   7.6291550e+02   5.5478230e+01
   7.6339760e+02   3.1221150e+01
   7.6387970e+02   3.4682310e+01
   7.6436180e+02   5.1536250e+01
   7.6484390e+02   7.2276180e+01
   7.6532600e+02   9.6528960e+01
   7.6580820e+02   1.1306230e+02
   7.6629030e+02   1.1272450e+02
   7.6677240e+02   1.0836920e+02
   7.6725450e+02   1.0954790e+02
   7.6773660e+02   1.2234740e+02
   7.6821880e+02   1.1206910e+02
   7.6870090e+02   6.7459120e+01
   7.6918300e+02   2.7039510e+01
   7.6966510e+02   3.8892850e+01
   7.7014720e+02   9.0561480e+01
   7.7062930e+02   1.1972730e+02
   7.7111150e+02   1.1529460e+02
   7.7159360e+02   1.0205310e+02
   7.7207570e+02   1.0760100e+02
   7.7255780e+02   1.1764160e+02
   7.7303990e+02   1.1182170e+02
   7.7352200e+02   6.4565280e+01
   7.7400420e+02   3.3371430e+01
   7.7448630e+02   4.2988050e+01
   7.7496840e+02   7.3180850e+01
   7.7545050e+02   9.3979720e+01
   7.7593260e+02   1.0405140e+02
   7.7641470e+02   1.0774510e+02
   7.7689690e+02   1.0458590e+02
   7.7737900e+02   9.6795930e+01
   7.7786110e+02   8.8319530e+01
   7.7834320e+02   7.9232220e+01
   7.7882530e+02   6.9818660e+01
   7.7930740e+02   5.4998200e+01
   7.7978960e+02   4.5321700e+01
   7.8027170e+02   6.2508730e+01
   7.8075380e+02   9.5304430e+01
   7.8123590e+02   1.1049810e+02
   7.8171800e+02   7.2576750e+01
   7.8220010e+02   3.8396090e+01
   7.8268230e+02   3.4357010e+01
   7.8316440e+02   5.3408620e+01
   7.8364650e+02   6.1052200e+01
   7.8412860e+02   5.3671750e+01
   7.8461070e+02   4.8985840e+01
   7.8509280e+02   5.7486210e+01
   7.8557500e+02   7.5317180e+01
   7.8605710e+02   8.4301120e+01
   7.8653920e+02   8.4678040e+01
   7.8702130e+02   8.2583440e+01
   7.8750340e+02   7.5389160e+01
   7.8798550e+02   7.2163420e+01
   7.8846770e+02   8.9864750e+01
   7.8894980e+02   1.2958590e+02
   7.8943190e+02   1.5152520e+02
   7.8991400e+02   1.2555210e+02
   7.9039610e+02   9.0619190e+01
   7.9087820e+02   6.8791280e+01
   7.9136040e+02   6.2363830e+01
   7.9184250e+02   6.0765340e+01
   7.9232460e+02   6.7253200e+01
   7.9280670e+02   7.0456800e+01
   7.9328880e+02   5.5557980e+01
   7.9377090e+02   2.7085540e+01
   7.9425310e+02   9.4572910e+00
   7.9473520e+02   5.6150210e+00
   7.9521730e+02   1.1527270e+01
   7.9569940e+02   3.4309840e+01
   7.9618150e+02   6.0153880e+01
   7.9666360e+02   7.1189880e+01
   7.9714580e+02   5.5476930e+01
   7.9762790e+02   4.4371220e+01
   7.9811000e+02   5.4689480e+01
   7.9859210e+02   6.7639920e+01
   7.9907420e+02   6.1947170e+01
   7.9955630e+02   2.7794950e+01
   8.0003850e+02   1.1686690e+01
   8.0052060e+02   2.2080350e+01
   8.0100270e+02   4.0389850e+01
   8.0148480e+02   4.5161180e+01
   8.0196690e+02   3.9770610e+01
   8.0244900e+02   2.7016460e+01
   8.0293120e+02   7.7963300e-01
   8.0341330e+02   1.8522600e+01
   8.0389540e+02   4.6358490e+00
   8.0437750e+02   4.8724470e+01
   8.0485960e+02   8.2282560e+01
   8.0534170e+02   9.2823180e+01
   8.0582390e+02   9.6084720e+01
   8.0630600e+02   9.5157210e+01
   8.0678810e+02   8.9967560e+01
   8.0727020e+02   7.6479100e+01
   8.0775230e+02   5.0638030e+01
   8.0823440e+02   3.5331760e+01
   8.0871660e+02   4.0864300e+01
   8.0919870e+02   5.7468980e+01
   8.0968080e+02   6.9438900e+01
   8.1016290e+02   7.6794040e+01
   8.1064500e+02   7.8602430e+01
   8.1112710e+02   7.5855990e+01
   8.1160930e+02   6.9796540e+01
   8.1209140e+02   5.6525220e+01
   8.1257350e+02   3.8994890e+01
   8.1305560e+02   2.8612240e+01
   8.1353770e+02   3.1360200e+01
   8.1401980e+02   3.5641140e+01
   8.1450200e+02   3.7672330e+01
   8.1498410e+02   3.8965640e+01
   8.1546620e+02   5.0692580e+01
   8.1594830e+02   7.3739590e+01
   8.1643040e+02   8.8366240e+01
   8.1691250e+02   7.7543660e+01
   8.1739470e+02   5.3588650e+01
   8.1787680e+02   4.0761600e+01
   8.1835890e+02   3.9193280e+01
   8.1884100e+02   3.7915890e+01
   8.1932310e+02   2.6392730e+01
   8.1980520e+02   1.9003300e+01
   8.2028740e+02   2.6354740e+01
   8.2076950e+02   4.9206820e+01
   8.2125160e+02   6.6671880e+01
   8.2173370e+02   8.0540710e+01
   8.2221580e+02   8.5800490e+01
   8.2269790e+02   7.5254360e+01
   8.2318010e+02   5.2070530e+01
   8.2366220e+02   4.3376720e+01
   8.2414430e+02   4.8908940e+01
   8.2462630e+02   5.1998870e+01
   8.2510850e+02   3.3317400e+01
   8.2559060e+02   9.7996830e+00
   8.2607270e+02   3.0550540e+00
   8.2655480e+02   1.5056180e+01
   8.2703690e+02   2.6659120e+01
   8.2751900e+02   3.3433270e+01
   8.2800120e+02   3.3835710e+01
   8.2848330e+02   2.4619110e+01
   8.2896540e+02   3.5215150e+00
   8.2944750e+02   7.4667660e+00
   8.2992960e+02   6.2584230e+00
   8.3041170e+02   1.4977260e+00
   8.3089390e+02   3.4526060e+00
   8.3137600e+02   7.1439210e+00
   8.3185810e+02   8.1400760e+00
   8.3234020e+02   4.3842610e+01
   8.3282230e+02   7.4514950e+01
   8.3330440e+02   7.5719210e+01
   8.3378660e+02   6.6932890e+01
   8.3426870e+02   6.6015590e+01
   8.3475080e+02   7.9843720e+01
   8.3523290e+02   8.3616210e+01
   8.3571500e+02   6.8082890e+01
   8.3619710e+02   5.0771100e+01
   8.3667930e+02   4.6185090e+01
   8.3716140e+02   5.6006200e+01
   8.3764350e+02   5.1006610e+01
   8.3812560e+02   2.7526250e+01
   8.3860770e+02   7.9938510e+00
   8.3908980e+02   2.2179600e+01
   8.3957200e+02   5.2064290e+01
   8.4005410e+02   6.9031890e+01
   8.4053620e+02   6.7180970e+01
   8.4101830e+02   5.9138310e+01
   8.4150040e+02   4.0634190e+01
   8.4198250e+02   2.5129930e+01
   8.4246470e+02   2.6152010e+01
   8.4294680e+02   5.6262450e+01
   8.4342890e+02   6.8904830e+01
   8.4391100e+02   5.9340520e+01
   8.4439310e+02   4.2074140e+01
   8.4487520e+02   2.9405380e+01
   8.4535740e+02   2.1628560e+01
   8.4583950e+02   2.0036060e+01
   8.4632160e+02   2.5027710e+01
   8.4680370e+02   3.4539220e+01
   8.4728580e+02   5.1661220e+01
   8.4776790e+02   7.0016020e+01
   8.4825010e+02   8.1886690e+01
   8.4873220e+02   8.3022670e+01
   8.4921430e+02   8.4406830e+01
   8.4969640e+02   9.4567380e+01
   8.5017850e+02   9.9374270e+01
   8.5066060e+02   8.0316770e+01
   8.5114280e+02   3.1984130e+01
   8.5162490e+02   7.8464510e+00
   8.5210700e+02   1.5287870e+01
   8.5258910e+02   3.3859090e+01
   8.5307120e+02   4.3305770e+01
   8.5355330e+02   4.6451320e+01
   8.5403550e+02   4.8574580e+01
   8.5451760e+02   5.1534010e+01
   8.5499970e+02   5.1191410e+01
   8.5548180e+02   4.2896560e+01
   8.5596390e+02   3.1708740e+01
   8.5644600e+02   2.2053050e+01
   8.5692820e+02   7.6724240e+00
   8.5741030e+02   1.2424620e+01
   8.5789240e+02   4.6509830e+01
   8.5837450e+02   8.1221440e+01
   8.5885660e+02   7.4331880e+01
   8.5933870e+02   3.6228300e+01
   8.5982090e+02   1.8586690e+01
   8.6030300e+02   3.3192350e+01
   8.6078510e+02   5.3329210e+01
   8.6126720e+02   6.1901210e+01
   8.6174930e+02   6.2452510e+01
   8.6223140e+02   5.3943970e+01
   8.6271360e+02   2.9914810e+01
   8.6319570e+02   8.8224330e+00
   8.6367780e+02   1.1501450e+01
   8.6415990e+02   2.5095310e+01
   8.6464200e+02   2.6261570e+01
   8.6512410e+02   1.4119480e+01
   8.6560630e+02   9.0793000e+00
   8.6608840e+02   4.6965610e+01
   8.6657050e+02   8.2003600e+01
   8.6705260e+02   9.4172680e+01
   8.6753470e+02   9.0430740e+01
   8.6801680e+02   7.9338610e+01
   8.6849900e+02   5.5845490e+01
   8.6898110e+02   4.5752780e+01
   8.6946320e+02   7.9026150e+01
   8.6994530e+02   1.1802640e+02
   8.7042740e+02   1.2404770e+02
   8.7090950e+02   8.0796590e+01
   8.7139170e+02   5.2004000e+01
   8.7187380e+02   4.1903470e+01
   8.7235590e+02   4.1102920e+01
   8.7283800e+02   4.2086270e+01
   8.7332010e+02   4.3739720e+01
   8.7380220e+02   4.2225520e+01
   8.7428440e+02   3.6387660e+01
   8.7476650e+02   3.0361790e+01
   8.7524860e+02   2.1953690e+01
   8.7573070e+02   1.7709210e+01
   8.7621280e+02   2.5356350e+01
   8.7669490e+02   6.1485600e+01
   8.7717710e+02   7.7571980e+01
   8.7765920e+02   6.7295700e+01
   8.7814130e+02   4.6170560e+01
   8.7862340e+02   2.4766540e+01
   8.7910550e+02   3.9445800e+00
   8.7958760e+02   3.0141450e+00
   8.8006980e+02   6.0657350e+00
   8.8055190e+02   1.9472050e+01
   8.8103400e+02   2.8162510e+01
   8.8151610e+02   3.4267470e+01
   8.8199820e+02   4.3511660e+01
   8.8248030e+02   5.8653020e+01
   8.8296250e+02   5.9463840e+01
   8.8344460e+02   2.6539980e+01
   8.8392670e+02   6.4320530e+00
   8.8440880e+02   1.4657100e+01
   8.8489090e+02   5.4734650e+00
   8.8537300e+02   2.0919830e+01
   8.8585520e+02   3.0883680e+01
   8.8633730e+02   3.7588320e+01
   8.8681940e+02   4.3788820e+01
   8.8730150e+02   4.7259860e+01
   8.8778360e+02   4.4255130e+01
   8.8826570e+02   3.3650590e+01
   8.8874790e+02   2.5569120e+01
   8.8923000e+02   2.3423600e+01
   8.8971210e+02   2.7352160e+01
   8.9019420e+02   3.8377210e+01
   8.9067630e+02   5.9392900e+01
   8.9115840e+02   6.6645690e+01
   8.9164060e+02   5.6065610e+01
   8.9212270e+02   4.6793660e+01
   8.9260480e+02   6.3257110e+01
   8.9308690e+02   9.1177860e+01
   8.9356900e+02   8.8194980e+01
   8.9405110e+02   5.2424290e+01
   8.9453330e+02   2.0162000e+01
   8.9501540e+02   1.3321030e+01
   8.9549750e+02   1.7550190e+01
   8.9597960e+02   2.5379390e+01
   8.9646170e+02   3.7051960e+01
   8.9694380e+02   4.3992030e+01
   8.9742600e+02   4.4596920e+01
   8.9790810e+02   4.3804570e+01
   8.9839020e+02   4.1999480e+01
   8.9887230e+02   4.0851960e+01
   8.9935440e+02   5.3755310e+01
   8.9983650e+02   7.9078550e+01
   9.0031870e+02   9.6555050e+01
   9.0080080e+02   8.7449920e+01
   9.0128290e+02   6.8652130e+01
   9.0176500e+02   5.0531780e+01
   9.0224710e+02   3.3804780e+01
   9.0272920e+02   2.3755940e+01
   9.0321140e+02   2.4276550e+01
   9.0369350e+02   2.5609650e+01
   9.0417560e+02   2.3907520e+01
   9.0465770e+02   2.0046860e+01
   9.0513980e+02   1.9184300e+01
   9.0562190e+02   2.1174910e+01
   9.0610410e+02   2.3385540e+01
   9.0658620e+02   2.4443480e+01
   9.0706830e+02   2.4879790e+01
   9.0755040e+02   2.4765030e+01
   9.0803250e+02   2.4375790e+01
   9.0851460e+02   2.4787660e+01
   9.0899680e+02   1.8125890e+01
   9.0947890e+02   2.3364000e+01
   9.0996100e+02   5.3115660e+01
   9.1044310e+02   9.5806240e+01
   9.1092520e+02   1.0783720e+02
   9.1140730e+02   8.8882400e+01
   9.1188950e+02   7.0661830e+01
   9.1237160e+02   6.5240040e+01
   9.1285370e+02   6.4221470e+01
   9.1333580e+02   5.5768230e+01
   9.1381790e+02   4.3316800e+01
   9.1430000e+02   3.4857030e+01
   9.1478220e+02   3.3648070e+01
   9.1526430e+02   3.6490880e+01
   9.1574640e+02   4.4671300e+01
   9.1622850e+02   5.7038540e+01
   9.1671060e+02   6.9079640e+01
   9.1719270e+02   7.9880830e+01
   9.1767490e+02   7.5023560e+01
   9.1815700e+02   4.5297790e+01
   9.1863910e+02   1.1786320e+01
   9.1912120e+02   1.1064100e-01
   9.1960330e+02   6.0771030e+00
   9.2008540e+02   2.5807500e+01
   9.2056760e+02   8.1684400e+01
   9.2104970e+02   1.1258220e+02
   9.2153180e+02   7.2037350e+01
   9.2201390e+02   1.1168300e+01
   9.2249600e+02   9.3676610e+00
   9.2297810e+02   2.1943560e+01
   9.2346030e+02   4.2074750e+01
   9.2394240e+02   4.3162230e+01
   9.2442450e+02   3.5043550e+01
   9.2490660e+02   1.9562270e+01
   9.2538870e+02   6.2494510e+00
   9.2587080e+02   1.8610960e+01
   9.2635300e+02   7.0351380e+01
   9.2683510e+02   1.0849270e+02
   9.2731720e+02   1.0254370e+02
   9.2779930e+02   7.8375120e+01
   9.2828140e+02   5.5647980e+01
   9.2876350e+02   3.0796170e+01
   9.2924570e+02   2.4346270e+01
   9.2972780e+02   3.8996250e+01
   9.3020990e+02   6.0869000e+01
   9.3069200e+02   8.7116470e+01
   9.3117410e+02   1.0924680e+02
   9.3165630e+02   1.0201190e+02
   9.3213840e+02   6.4039890e+01
   9.3262050e+02   3.8574430e+01
   9.3310260e+02   6.5764560e+01
   9.3358470e+02   9.6837880e+01
   9.3406680e+02   9.9651760e+01
   9.3454900e+02   7.3723180e+01
   9.3503110e+02   5.5213820e+01
   9.3551320e+02   4.4104420e+01
   9.3599530e+02   4.1103210e+01
   9.3647740e+02   5.3715390e+01
   9.3695950e+02   7.2295720e+01
   9.3744170e+02   7.3455230e+01
   9.3792380e+02   5.9661680e+01
   9.3840590e+02   4.0091220e+01
   9.3888800e+02   1.6602940e+00
   9.3937010e+02   2.3622150e+01
   9.3985220e+02   1.1683200e+01
   9.4033440e+02   2.8138210e+01
   9.4081650e+02   6.1960400e+01
   9.4129860e+02   9.2019230e+01
   9.4178070e+02   1.0778990e+02
   9.4226280e+02   1.0491010e+02
   9.4274490e+02   9.0027710e+01
   9.4322710e+02   6.2603390e+01
   9.4370920e+02   2.9923230e+01
   9.4419130e+02   1.1767010e+01
   9.4467340e+02   2.7026210e+01
   9.4515550e+02   4.6759260e+01
   9.4563760e+02   6.5084170e+01
   9.4611980e+02   7.8346710e+01
   9.4660190e+02   7.9235610e+01
   9.4708400e+02   6.1721360e+01
   9.4756610e+02   5.4195050e+01
   9.4804820e+02   6.2878040e+01
   9.4853030e+02   7.5590820e+01
   9.4901250e+02   7.4799070e+01
   9.4949460e+02   6.5433320e+01
   9.4997670e+02   5.9223590e+01
   9.5045880e+02   6.1205290e+01
   9.5094090e+02   5.8279880e+01
   9.5142300e+02   3.2054170e+01
   9.5190520e+02   6.6669620e+00
   9.5238730e+02   4.8989720e+00
   9.5286940e+02   3.5793180e+01
   9.5335150e+02   5.8595170e+01
   9.5383360e+02   7.3096010e+01
   9.5431570e+02   8.0172210e+01
   9.5479790e+02   7.9110870e+01
   9.5528000e+02   7.1538820e+01
   9.5576210e+02   5.7526350e+01
   9.5624420e+02   3.7370210e+01
   9.5672630e+02   2.2818120e+01
   9.5720840e+02   2.4710210e+01
   9.5769060e+02   2.9038590e+01
   9.5817270e+02   2.5715960e+01
   9.5865480e+02   1.5602420e+01
   9.5913690e+02   2.1589170e+01
   9.5961900e+02   4.6940120e+01
   9.6010110e+02   6.7257110e+01
   9.6058330e+02   6.2774800e+01
   9.6106540e+02   4.9356670e+01
   9.6154750e+02   5.9991090e+01
   9.6202960e+02   8.6697970e+01
   9.6251170e+02   1.0181320e+02
   9.6299380e+02   7.6572110e+01
   9.6347600e+02   5.7124240e+01
   9.6395810e+02   6.7115860e+01
   9.6444020e+02   9.0674040e+01
   9.6492230e+02   8.7778350e+01
   9.6540440e+02   5.4472180e+01
   9.6588650e+02   3.0092990e+01
   9.6636870e+02   2.5541340e+01
   9.6685080e+02   3.0417450e+01
   9.6733290e+02   3.7427050e+01
   9.6781500e+02   4.2385650e+01
   9.6829710e+02   3.7226590e+01
   9.6877920e+02   6.3241270e+00
   9.6926140e+02   1.2250920e+01
   9.6974350e+02   4.3200230e+00
   9.7022560e+02   1.3485950e+01
   9.7070770e+02   2.7591780e+01
   9.7118980e+02   3.7941190e+01
   9.7167190e+02   4.4797100e+01
   9.7215410e+02   4.8719470e+01
   9.7263620e+02   4.3920070e+01
   9.7311830e+02   8.6624300e+00
   9.7360040e+02   2.8823100e+01
   9.7408250e+02   3.1543720e+01
   9.7456460e+02   9.8236540e+00
   9.7504680e+02   4.1002960e+01
   9.7552890e+02   4.9013000e+01
   9.7601100e+02   4.8830170e+01
   9.7649310e+02   4.5462160e+01
   9.7697520e+02   3.9145480e+01
   9.7745730e+02   3.3694960e+01
   9.7793950e+02   2.9059600e+01
   9.7842160e+02   2.7182270e+01
   9.7890370e+02   2.7980790e+01
   9.7938580e+02   3.3105800e+01
   9.7986790e+02   5.1829350e+01
   9.8035000e+02   7.6957320e+01
   9.8083220e+02   8.2716630e+01
   9.8131430e+02   5.0576460e+01
   9.8179640e+02   2.3169040e+01
   9.8227850e+02   8.9453130e+00
   9.8276060e+02   4.9796910e+00
   9.8324270e+02   4.3644870e+00
   9.8372490e+02   7.5073390e+00
   9.8420700e+02   2.0636830e+01
   9.8468910e+02   5.3835450e+01
   9.8517120e+02   8.0071260e+01
   9.8565330e+02   7.0391780e+01
   9.8613540e+02   4.7622920e+01
   9.8661760e+02   4.2345150e+01
   9.8709970e+02   7.4324230e+01
   9.8758180e+02   8.0518740e+01
   9.8806390e+02   5.2152180e+01
   9.8854600e+02   1.8906630e+01
   9.8902810e+02   9.5191500e+00
   9.8951020e+02   1.7781590e+01
   9.8999230e+02   2.9804700e+01
   9.9047440e+02   4.4399200e+01
   9.9095650e+02   5.7298740e+01
   9.9143870e+02   7.0667850e+01
   9.9192080e+02   7.7627500e+01
   9.9240290e+02   7.1904680e+01
   9.9288500e+02   5.4432080e+01
   9.9336710e+02   3.9309810e+01
   9.9384920e+02   2.5963620e+01
   9.9433140e+02   1.8289470e+01
   9.9481350e+02   2.0005450e+01
   9.9529560e+02   2.6993990e+01
   9.9577770e+02   3.4522310e+01
   9.9625980e+02   4.1572770e+01
   9.9674190e+02   4.5338880e+01
   9.9722410e+02   4.5958890e+01
   9.9770620e+02   3.9691530e+01
   9.9818830e+02   1.6107800e+01
   9.9867040e+02   9.8327940e+00
   9.9915250e+02   6.1308590e+00
   9.9963460e+02   2.7475280e+01
   1.0001170e+03   5.2111190e+01
   1.0005990e+03   6.0320800e+01
   1.0010810e+03   5.8396550e+01
   1.0015630e+03   4.4783540e+01
   1.0020450e+03   2.8995910e+01
   1.0025270e+03   2.3626820e+01
   1.0030090e+03   3.6916720e+01
   1.0034920e+03   4.3425930e+01
   1.0039740e+03   3.8982240e+01
   1.0044560e+03   3.1346210e+01
   1.0049380e+03   2.3175640e+01
   1.0054200e+03   1.5728780e+01
   1.0059020e+03   2.1538380e+01
   1.0063840e+03   3.9658260e+01
   1.0068660e+03   5.3095920e+01
   1.0073490e+03   4.7131670e+01
   1.0078310e+03   3.5844970e+01
   1.0083130e+03   2.7939760e+01
   1.0087950e+03   2.4007980e+01
   1.0092770e+03   1.6839140e+01
   1.0097590e+03   7.3678600e-01
   1.0102410e+03   1.2973330e+00
   1.0107230e+03   3.0188280e+01
   1.0112050e+03   7.1241520e+01
   1.0116880e+03   7.9386670e+01
   1.0121700e+03   6.3311070e+01
   1.0126520e+03   4.3669340e+01
   1.0131340e+03   2.1882710e+01
   1.0136160e+03   7.3685300e+00
   1.0140980e+03   2.1061250e+00
   1.0145800e+03   7.1316680e+00
   1.0150620e+03   2.9444610e+01
   1.0155440e+03   7.5376940e+01
   1.0160270e+03   8.3311400e+01
   1.0165090e+03   4.5516140e+01
   1.0169910e+03   7.3768160e+00
   1.0174730e+03   1.7174360e+01
   1.0179550e+03   4.6855730e+01
   1.0184370e+03   6.4214630e+01
   1.0189190e+03   6.6168580e+01
   1.0194010e+03   6.5545120e+01
   1.0198840e+03   6.4989170e+01
   1.0203660e+03   6.2064360e+01
   1.0208480e+03   5.4534360e+01
   1.0213300e+03   4.4340560e+01
   1.0218120e+03   3.8550640e+01
   1.0222940e+03   3.7341420e+01
   1.0227760e+03   4.1883090e+01
   1.0232580e+03   6.1026030e+01
   1.0237400e+03   7.6305850e+01
   1.0242230e+03   6.8476960e+01
   1.0247050e+03   5.0426650e+01
   1.0251870e+03   4.7439770e+01
   1.0256690e+03   6.9150850e+01
   1.0261510e+03   8.2319840e+01
   1.0266330e+03   8.3490660e+01
   1.0271150e+03   7.6560910e+01
   1.0275970e+03   6.5508880e+01
   1.0280800e+03   5.2137410e+01
   1.0285620e+03   3.9284550e+01
   1.0290440e+03   2.6908950e+01
   1.0295260e+03   2.1072300e+01
   1.0300080e+03   2.8950100e+01
   1.0304900e+03   4.0119960e+01
   1.0309720e+03   5.0594820e+01
   1.0314540e+03   5.8259280e+01
   1.0319370e+03   5.6480650e+01
   1.0324190e+03   4.7172060e+01
   1.0329010e+03   4.0901920e+01
   1.0333830e+03   4.9175830e+01
   1.0338650e+03   6.0044170e+01
   1.0343470e+03   5.9185870e+01
   1.0348290e+03   5.1570220e+01
   1.0353110e+03   5.0034000e+01
   1.0357930e+03   6.9149030e+01
   1.0362760e+03   7.3459010e+01
   1.0367580e+03   5.2943650e+01
   1.0372400e+03   2.6212740e+01
   1.0377220e+03   2.6322280e+01
   1.0382040e+03   4.3793610e+01
   1.0386860e+03   4.2510120e+01
   1.0391680e+03   1.3313810e+01
   1.0396500e+03   1.3744800e+01
   1.0401320e+03   2.2814060e+01
   1.0406150e+03   2.1023120e+01
   1.0410970e+03   1.2293720e+01
   1.0415790e+03   3.2970580e+00
   1.0420610e+03   1.8570720e+01
   1.0425430e+03   3.4358900e+01
   1.0430250e+03   4.2662450e+01
   1.0435070e+03   2.6945270e+01
   1.0439890e+03   8.8039250e+00
   1.0444720e+03   2.6913060e+01
   1.0449540e+03   6.8173340e+01
   1.0454360e+03   9.3423020e+01
   1.0459180e+03   7.8183000e+01
   1.0464000e+03   6.1733580e+01
   1.0468820e+03   4.9365920e+01
   1.0473640e+03   3.9709290e+01
   1.0478460e+03   2.9780760e+01
   1.0483280e+03   2.0479050e+01
   1.0488110e+03   1.6679050e+01
   1.0492930e+03   1.8911390e+01
   1.0497750e+03   2.8561710e+01
   1.0502570e+03   5.7751850e+01
   1.0507390e+03   8.6950580e+01
   1.0512210e+03   9.7622830e+01
   1.0517030e+03   8.7991990e+01
   1.0521850e+03   7.6355010e+01
   1.0526670e+03   6.1833590e+01
   1.0531500e+03   4.9554900e+01
   1.0536320e+03   4.1661410e+01
   1.0541140e+03   3.8435900e+01
   1.0545960e+03   4.3890110e+01
   1.0550780e+03   5.4767490e+01
   1.0555600e+03   6.0985080e+01
   1.0560420e+03   5.4486760e+01
   1.0565240e+03   4.7590300e+01
   1.0570070e+03   4.1073520e+01
   1.0574890e+03   3.8675200e+01
   1.0579710e+03   4.9487760e+01
   1.0584530e+03   7.1225170e+01
   1.0589350e+03   8.4763050e+01
   1.0594170e+03   8.6775500e+01
   1.0598990e+03   8.1412990e+01
   1.0603810e+03   6.1923540e+01
   1.0608640e+03   4.3482620e+01
   1.0613460e+03   4.2884960e+01
   1.0618280e+03   6.3560940e+01
   1.0623100e+03   7.0032170e+01
   1.0627920e+03   5.9979580e+01
   1.0632740e+03   4.5837160e+01
   1.0637560e+03   3.2431950e+01
   1.0642380e+03   2.0196350e+01
   1.0647200e+03   1.0153170e+01
   1.0652030e+03   2.0399170e+00
   1.0656850e+03   4.7192080e+00
   1.0661670e+03   1.8558730e+01
   1.0666490e+03   1.8125080e+01
   1.0671310e+03   9.7200010e+00
   1.0676130e+03   4.2587710e+01
   1.0680950e+03   4.5264070e+01
   1.0685770e+03   2.2746260e+01
   1.0690590e+03   1.2743710e+01
   1.0695420e+03   2.0414430e+01
   1.0700240e+03   3.7055210e+01
   1.0705060e+03   6.9786530e+01
   1.0709880e+03   9.8376890e+01
   1.0714700e+03   1.0313200e+02
   1.0719520e+03   8.5658830e+01
   1.0724340e+03   7.6507870e+01
   1.0729160e+03   8.0231740e+01
   1.0733980e+03   8.0645110e+01
   1.0738810e+03   6.7442570e+01
   1.0743630e+03   5.0565190e+01
   1.0748450e+03   4.8479250e+01
   1.0753270e+03   5.4423570e+01
   1.0758090e+03   5.4238070e+01
   1.0762910e+03   2.8090740e+01
   1.0767730e+03   1.8625050e+01
   1.0772550e+03   3.7446950e+01
   1.0777380e+03   6.3135910e+01
   1.0782200e+03   7.3281130e+01
   1.0787020e+03   7.0288280e+01
   1.0791840e+03   6.6140750e+01
   1.0796660e+03   6.1720000e+01
   1.0801480e+03   5.6453690e+01
   1.0806300e+03   4.9796770e+01
   1.0811120e+03   4.2357210e+01
   1.0815940e+03   3.2593460e+01
   1.0820770e+03   2.1937230e+01
   1.0825590e+03   1.8466220e+01
   1.0830410e+03   2.3221270e+01
   1.0835230e+03   2.5289870e+01
   1.0840050e+03   1.8352910e+01
   1.0844870e+03   1.2735470e+01
   1.0849690e+03   2.4657230e+01
   1.0854510e+03   4.5272840e+01
   1.0859330e+03   6.1539000e+01
   1.0864160e+03   7.1646270e+01
   1.0868980e+03   7.3286290e+01
   1.0873800e+03   6.3068340e+01
   1.0878620e+03   5.3138060e+01
   1.0883440e+03   5.0796910e+01
   1.0888260e+03   5.2689830e+01
   1.0893080e+03   5.8316220e+01
   1.0897900e+03   6.7907260e+01
   1.0902730e+03   7.1065730e+01
   1.0907550e+03   5.4269850e+01
   1.0912370e+03   3.8890490e+01
   1.0917190e+03   3.0296260e+01
   1.0922010e+03   3.0167690e+01
   1.0926830e+03   4.9646640e+01
   1.0931650e+03   8.7842590e+01
   1.0936470e+03   1.0294240e+02
   1.0941300e+03   8.0500310e+01
   1.0946120e+03   5.6693980e+01
   1.0950940e+03   7.3783420e+01
   1.0955760e+03   1.0072630e+02
   1.0960580e+03   1.0435680e+02
   1.0965400e+03   7.5162960e+01
   1.0970220e+03   5.1834110e+01
   1.0975040e+03   3.4757480e+01
   1.0979860e+03   2.5312320e+01
   1.0984690e+03   2.8556140e+01
   1.0989510e+03   3.8594700e+01
   1.0994330e+03   4.3731980e+01
   1.0999150e+03   4.5258270e+01
   1.1003970e+03   4.8518450e+01
   1.1008790e+03   5.9849200e+01
   1.1013610e+03   6.6660390e+01
   1.1018430e+03   6.6352290e+01
   1.1023250e+03   6.2315140e+01
   1.1028080e+03   5.6820690e+01
   1.1032900e+03   5.1028370e+01
   1.1037720e+03   5.2690000e+01
   1.1042540e+03   6.2723040e+01
   1.1047360e+03   6.9402620e+01
   1.1052180e+03   5.4497190e+01
   1.1057000e+03   4.4508330e+01
   1.1061820e+03   6.4646470e+01
   1.1066650e+03   1.0522350e+02
   1.1071470e+03   1.0853160e+02
   1.1076290e+03   7.0226470e+01
   1.1081110e+03   4.4961330e+01
   1.1085930e+03   5.5371950e+01
   1.1090750e+03   7.8198330e+01
   1.1095570e+03   9.9505520e+01
   1.1100390e+03   1.1362770e+02
   1.1105210e+03   1.1097900e+02
   1.1110040e+03   8.2423580e+01
   1.1114860e+03   5.5754300e+01
   1.1119680e+03   2.8924680e+01
   1.1124500e+03   9.5643620e+00
   1.1129320e+03   4.6849520e+00
   1.1134140e+03   1.0676380e+01
   1.1138960e+03   2.5959270e+01
   1.1143780e+03   4.7064640e+01
   1.1148600e+03   5.9844310e+01
   1.1153430e+03   5.0467970e+01
   1.1158250e+03   4.2802660e+01
   1.1163070e+03   4.1979320e+01
   1.1167890e+03   4.5107030e+01
   1.1172710e+03   4.7873110e+01
   1.1177530e+03   5.0282850e+01
   1.1182350e+03   5.1933870e+01
   1.1187170e+03   5.2555050e+01
   1.1192000e+03   5.4416410e+01
   1.1196820e+03   6.0537800e+01
   1.1201640e+03   6.6973180e+01
   1.1206460e+03   7.2635240e+01
   1.1211280e+03   7.7042310e+01
   1.1216100e+03   7.2365720e+01
   1.1220920e+03   5.8610150e+01
   1.1225740e+03   4.1287280e+01
   1.1230570e+03   1.3984280e+01
   1.1235390e+03   3.5878600e+00
   1.1240210e+03   2.2192080e+01
   1.1245030e+03   6.4769120e+01
   1.1249850e+03   7.8417210e+01
   1.1254670e+03   4.0312240e+01
   1.1259490e+03   2.2373840e+01
   1.1264310e+03   2.8166140e+01
   1.1269130e+03   4.3696090e+01
   1.1273960e+03   7.0942440e+01
   1.1278780e+03   9.2553880e+01
   1.1283600e+03   6.6863940e+01
   1.1288420e+03   3.9417270e+00
   1.1293240e+03   2.7145770e+01
   1.1298060e+03   1.9699360e+01
   1.1302880e+03   6.0591160e+01
   1.1307700e+03   8.3283160e+01
   1.1312520e+03   8.8605220e+01
   1.1317350e+03   6.6680600e+01
   1.1322170e+03   2.9049090e+01
   1.1326990e+03   1.0365300e+01
   1.1331810e+03   1.8203660e+01
   1.1336630e+03   3.5888210e+01
   1.1341450e+03   7.2977720e+01
   1.1346270e+03   1.0031530e+02
   1.1351090e+03   9.9909910e+01
   1.1355920e+03   7.6429490e+01
   1.1360740e+03   5.7970170e+01
   1.1365560e+03   4.5248760e+01
   1.1370380e+03   4.2667220e+01
   1.1375200e+03   6.4940580e+01
   1.1380020e+03   8.0180790e+01
   1.1384840e+03   5.8122940e+01
   1.1389660e+03   2.3281080e+01
   1.1394480e+03   8.6007690e+00
   1.1399310e+03   1.8673480e+01
   1.1404130e+03   2.3129810e+01
   1.1408950e+03   2.0402730e+01
   1.1413770e+03   2.2219450e+01
   1.1418590e+03   4.6514940e+01
   1.1423410e+03   7.2894870e+01
   1.1428230e+03   8.4019150e+01
   1.1433050e+03   7.9722690e+01
   1.1437870e+03   6.4658390e+01
   1.1442700e+03   3.5663620e+01
   1.1447520e+03   6.3345340e+00
   1.1452340e+03   2.4251620e+01
   1.1457160e+03   4.3684780e+01
   1.1461980e+03   2.4785840e+01
   1.1466800e+03   1.2051010e+01
   1.1471620e+03   3.6289000e+01
   1.1476440e+03   4.1202390e+01
   1.1481270e+03   4.4780380e+01
   1.1486090e+03   4.8143770e+01
   1.1490910e+03   5.4107220e+01
   1.1495730e+03   6.6608090e+01
   1.1500550e+03   8.0235640e+01
   1.1505370e+03   7.7341030e+01
   1.1510190e+03   6.3401930e+01
   1.1515010e+03   5.4385740e+01
   1.1519840e+03   6.5903630e+01
   1.1524660e+03   6.4263230e+01
   1.1529480e+03   2.5275670e+01
   1.1534300e+03   1.2840820e+01
   1.1539120e+03   1.6802980e+01
   1.1543940e+03   9.5118870e+00
   1.1548760e+03   3.1429760e+01
   1.1553580e+03   4.8460720e+01
   1.1558400e+03   6.0588230e+01
   1.1563230e+03   6.3557530e+01
   1.1568050e+03   6.6216510e+01
   1.1572870e+03   7.8239750e+01
   1.1577690e+03   9.0220980e+01
   1.1582510e+03   8.2148940e+01
   1.1587330e+03   5.4177570e+01
   1.1592150e+03   4.0138200e+01
   1.1596970e+03   4.5685210e+01
   1.1601790e+03   5.3514830e+01
   1.1606620e+03   4.8719180e+01
   1.1611440e+03   4.2647580e+01
   1.1616260e+03   4.3031070e+01
   1.1621080e+03   5.0756100e+01
   1.1625900e+03   5.7354890e+01
   1.1630720e+03   6.4024870e+01
   1.1635540e+03   5.5166050e+01
   1.1640360e+03   1.5526630e+01
   1.1645190e+03   1.7608400e+01
   1.1650010e+03   1.5519030e+01
   1.1654830e+03   7.2489690e+01
   1.1659650e+03   9.6222930e+01
   1.1664470e+03   6.8277070e+01
   1.1669290e+03   4.8592790e+01
   1.1674110e+03   3.8098590e+01
   1.1678930e+03   3.2867780e+01
   1.1683750e+03   2.9573850e+01
   1.1688580e+03   3.0700760e+01
   1.1693400e+03   4.5693050e+01
   1.1698220e+03   6.7604830e+01
   1.1703040e+03   7.9702710e+01
   1.1707860e+03   7.0704960e+01
   1.1712680e+03   6.2091830e+01
   1.1717500e+03   5.4485960e+01
   1.1722320e+03   4.8087740e+01
   1.1727140e+03   4.1524480e+01
   1.1731970e+03   3.6828120e+01
   1.1736790e+03   4.0113800e+01
   1.1741610e+03   5.0491390e+01
   1.1746430e+03   5.7974500e+01
   1.1751250e+03   5.9099990e+01
   1.1756070e+03   5.6324430e+01
   1.1760890e+03   4.8533650e+01
   1.1765710e+03   3.9253950e+01
   1.1770540e+03   3.3534500e+01
   1.1775360e+03   3.1494480e+01
   1.1780180e+03   3.6209520e+01
   1.1785000e+03   5.0024430e+01
   1.1789820e+03   5.4694430e+01
   1.1794640e+03   2.9210890e+01
   1.1799460e+03   7.4783480e+00
   1.1804280e+03   4.3271790e+00
   1.1809110e+03   1.5630390e+01
   1.1813930e+03   2.9209240e+01
   1.1818750e+03   4.5074160e+01
   1.1823570e+03   6.0182850e+01
   1.1828390e+03   7.7703220e+01
   1.1833210e+03   8.5974300e+01
   1.1838030e+03   7.2308670e+01
   1.1842850e+03   5.3017610e+01
   1.1847670e+03   3.8882600e+01
   1.1852500e+03   2.9962020e+01
   1.1857320e+03   2.6914060e+01
   1.1862140e+03   2.9281070e+01
   1.1866960e+03   3.2841630e+01
   1.1871780e+03   2.9920140e+01
   1.1876600e+03   3.3284350e+01
   1.1881420e+03   5.3642750e+01
   1.1886240e+03   7.7077820e+01
   1.1891060e+03   8.2749450e+01
   1.1895890e+03   6.9715210e+01
   1.1900710e+03   6.2219270e+01
   1.1905530e+03   6.2115660e+01
   1.1910350e+03   5.8762830e+01
   1.1915170e+03   3.2439940e+01
   1.1919990e+03   1.0756990e+01
   1.1924810e+03   1.5951490e+01
   1.1929630e+03   4.1932270e+01
   1.1934460e+03   7.2569370e+01
   1.1939280e+03   1.0984090e+02
   1.1944100e+03   1.2600620e+02
   1.1948920e+03   1.1423540e+02
   1.1953740e+03   8.8924960e+01
   1.1958560e+03   4.5393830e+01
   1.1963380e+03   7.9466710e+00
   1.1968200e+03   4.4423370e+00
   1.1973020e+03   3.4338840e+01
   1.1977850e+03   5.8910100e+01
   1.1982670e+03   7.8477810e+01
   1.1987490e+03   9.0093510e+01
   1.1992310e+03   9.2045070e+01
   1.1997130e+03   8.7539460e+01
   1.2001950e+03   7.8220720e+01
   1.2006770e+03   6.5617370e+01
   1.2011590e+03   4.9477080e+01
   1.2016410e+03   2.3946300e+01
   1.2021240e+03   2.1496340e+01
   1.2026060e+03   4.5928960e+01
   1.2030880e+03   6.7585360e+01
   1.2035700e+03   7.2019060e+01
   1.2040520e+03   6.6671300e+01
   1.2045340e+03   5.3478850e+01
   1.2050160e+03   3.6529790e+01
   1.2054980e+03   2.8550870e+01
   1.2059810e+03   3.7426540e+01
   1.2064630e+03   3.6576690e+01
   1.2069450e+03   2.2780550e+01
   1.2074270e+03   1.1177990e+01
   1.2079090e+03   1.7916290e+01
   1.2083910e+03   3.2028790e+01
   1.2088730e+03   3.9808810e+01
   1.2093550e+03   4.2553990e+01
   1.2098380e+03   4.7425720e+01
   1.2103200e+03   5.3610530e+01
   1.2108020e+03   6.4924680e+01
   1.2112840e+03   8.4265610e+01
   1.2117660e+03   9.7951930e+01
   1.2122480e+03   8.6487700e+01
   1.2127300e+03   6.2188630e+01
   1.2132120e+03   3.8541700e+01
   1.2136940e+03   1.7750030e+01
   1.2141770e+03   1.6149610e+01
   1.2146590e+03   4.4354250e+01
   1.2151410e+03   6.4345460e+01
   1.2156230e+03   6.5445860e+01
   1.2161050e+03   5.7525850e+01
   1.2165870e+03   5.8248600e+01
   1.2170690e+03   5.8552120e+01
   1.2175510e+03   3.7813780e+01
   1.2180330e+03   1.4607270e+01
   1.2185160e+03   2.7081910e+01
   1.2189980e+03   2.1473220e+01
   1.2194800e+03   6.6594180e+01
   1.2199620e+03   7.5660280e+01
   1.2204440e+03   6.5282680e+01
   1.2209260e+03   6.3270950e+01
   1.2214080e+03   6.5034740e+01
   1.2218900e+03   6.1570650e+01
   1.2223730e+03   4.3667680e+01
   1.2228550e+03   3.9220700e+01
   1.2233370e+03   5.4536350e+01
   1.2238190e+03   6.4037280e+01
   1.2243010e+03   4.3502140e+01
   1.2247830e+03   1.2537810e+01
   1.2252650e+03   5.5701750e+00
   1.2257470e+03   1.8203930e+01
   1.2262290e+03   4.0075790e+01
   1.2267120e+03   9.5884640e+01
   1.2271940e+03   1.1160150e+02
   1.2276760e+03   7.2990140e+01
   1.2281580e+03   2.7000430e+01
   1.2286400e+03   1.5720090e+01
   1.2291220e+03   2.3260910e+01
   1.2296040e+03   2.2703410e+01
   1.2300860e+03   1.5459260e+01
   1.2305680e+03   1.1071520e+01
   1.2310510e+03   1.3045040e+01
   1.2315330e+03   1.5347750e+01
   1.2320150e+03   1.5376710e+01
   1.2324970e+03   2.1010670e+01
   1.2329790e+03   5.3974290e+01
   1.2334610e+03   9.2226010e+01
   1.2339430e+03   9.4005980e+01
   1.2344250e+03   5.9612660e+01
   1.2349080e+03   3.4556180e+01
   1.2353900e+03   2.5614260e+01
   1.2358720e+03   2.9532300e+01
   1.2363540e+03   5.1421130e+01
   1.2368360e+03   7.3442200e+01
   1.2373180e+03   6.7638000e+01
   1.2378000e+03   4.6685460e+01
   1.2382820e+03   2.7287110e+01
   1.2387640e+03   1.1316860e+01
   1.2392470e+03   1.1569990e+01
   1.2397290e+03   3.5529770e+01
   1.2402110e+03   5.7032620e+01
   1.2406930e+03   6.8959050e+01
   1.2411750e+03   7.1430680e+01
   1.2416570e+03   5.8549330e+01
   1.2421390e+03   3.9139600e+01
   1.2426210e+03   2.5099150e+01
   1.2431040e+03   1.7852190e+01
   1.2435860e+03   2.5036210e+01
   1.2440680e+03   5.2311340e+01
   1.2445500e+03   7.5661650e+01
   1.2450320e+03   8.4536790e+01
   1.2455140e+03   8.1155610e+01
   1.2459960e+03   5.8603730e+01
   1.2464780e+03   2.9724490e+01
   1.2469600e+03   1.6789790e+01
   1.2474430e+03   2.9679290e+01
   1.2479250e+03   5.0225330e+01
   1.2484070e+03   8.3710850e+01
   1.2488890e+03   1.0360390e+02
   1.2493710e+03   7.7326290e+01
   1.2498530e+03   3.9841630e+01
   1.2503350e+03   4.4087800e+01
   1.2508170e+03   7.2887600e+01
   1.2512990e+03   9.0670590e+01
   1.2517820e+03   9.3236310e+01
   1.2522640e+03   7.8099320e+01
   1.2527460e+03   4.0063160e+01
   1.2532280e+03   9.7434690e+00
   1.2537100e+03   1.9555860e+01
   1.2541920e+03   4.2790420e+01
   1.2546740e+03   4.7068660e+01
   1.2551560e+03   3.8987180e+01
   1.2556390e+03   4.5203670e+01
   1.2561210e+03   7.2539490e+01
   1.2566030e+03   7.9738070e+01
   1.2570850e+03   6.1564270e+01
   1.2575670e+03   3.6777980e+01
   1.2580490e+03   8.4161070e+00
   1.2585310e+03   7.1818240e+00
   1.2590130e+03   2.3545620e+01
   1.2594950e+03   8.2688810e+01
   1.2599780e+03   8.8520970e+01
   1.2604600e+03   2.6668000e+01
   1.2609420e+03   4.1128690e+00
   1.2614240e+03   1.3469280e+01
   1.2619060e+03   4.3299380e+01
   1.2623880e+03   5.9628850e+01
   1.2628700e+03   6.6253850e+01
   1.2633520e+03   6.3808360e+01
   1.2638340e+03   5.3904880e+01
   1.2643170e+03   4.2101840e+01
   1.2647990e+03   2.8045550e+01
   1.2652810e+03   1.8725720e+01
   1.2657630e+03   1.6808760e+01
   1.2662450e+03   1.5396990e+01
   1.2667270e+03   3.7880710e+00
   1.2672090e+03   5.3886410e+00
   1.2676910e+03   5.6250000e-01
   1.2681740e+03   1.8200410e+01
   1.2686560e+03   3.1065640e+01
   1.2691380e+03   3.9480390e+01
   1.2696200e+03   4.9005230e+01
   1.2701020e+03   6.1403590e+01
   1.2705840e+03   7.4449310e+01
   1.2710660e+03   9.3805330e+01
   1.2715480e+03   1.0589580e+02
   1.2720310e+03   9.9676160e+01
   1.2725130e+03   7.8225390e+01
   1.2729950e+03   6.0378170e+01
   1.2734770e+03   4.6665860e+01
   1.2739590e+03   4.1634830e+01
   1.2744410e+03   5.0974380e+01
   1.2749230e+03   5.7052980e+01
   1.2754050e+03   6.4165830e+01
   1.2758870e+03   5.9983980e+01
   1.2763700e+03   2.4594730e+01
   1.2768520e+03   2.5072200e+01
   1.2773340e+03   8.0059660e+00
   1.2778160e+03   6.0226070e+01
   1.2782980e+03   1.1339600e+02
   1.2787800e+03   1.2328550e+02
   1.2792620e+03   1.1227670e+02
   1.2797440e+03   8.1636960e+01
   1.2802260e+03   5.4022320e+01
   1.2807090e+03   4.7137740e+01
   1.2811910e+03   5.4657060e+01
   1.2816730e+03   4.9391400e+01
   1.2821550e+03   3.6566220e+01
   1.2826370e+03   3.3542450e+01
   1.2831190e+03   5.6230770e+01
   1.2836010e+03   7.6473110e+01
   1.2840830e+03   7.6126310e+01
   1.2845660e+03   7.6207210e+01
   1.2850480e+03   7.4462250e+01
   1.2855300e+03   6.4975430e+01
   1.2860120e+03   4.5455630e+01
   1.2864940e+03   2.0670140e+01
   1.2869760e+03   6.8190610e+00
   1.2874580e+03   1.2451170e+01
   1.2879400e+03   2.6663640e+01
   1.2884220e+03   5.0643100e+01
   1.2889050e+03   7.0019350e+01
   1.2893870e+03   7.3790310e+01
   1.2898690e+03   6.5132810e+01
   1.2903510e+03   3.6363250e+01
   1.2908330e+03   0.0000000e+00
   1.5000000e+03   0.0000000e+00
