   1.0000000e+02   0.0000000e+00
   1.4063600e+02   0.0000000e+00
   1.4111800e+02   8.9110000e+00
   1.4160000e+02   2.6500000e-01
   1.4208200e+02   5.4700000e-01
   1.4256400e+02   1.7945000e+01
   1.4304600e+02   3.7306000e+01
   1.4352900e+02   4.8330000e+01
   1.4401100e+02   3.5371000e+01
   1.4449300e+02   2.3076000e+01
   1.4497500e+02   1.1202000e+01
   1.4545700e+02   6.9900000e-01
   1.4593900e+02   3.1300000e+00
   1.4642100e+02   4.1820000e+00
   1.4690400e+02   1.3189000e+01
   1.4738600e+02   1.8001000e+01
   1.4786800e+02   1.5903000e+01
   1.4835000e+02   1.5152000e+01
   1.4883200e+02   1.7715000e+01
   1.4931400e+02   2.4201000e+01
   1.4979600e+02   2.8352000e+01
   1.5027800e+02   3.0195000e+01
   1.5076000e+02   2.9794000e+01
   1.5124200e+02   2.7019000e+01
   1.5172500e+02   1.3752000e+01
   1.5220700e+02   6.2330000e+00
   1.5268900e+02   1.0147000e+01
   1.5317100e+02   3.3932000e+01
   1.5365300e+02   4.9591000e+01
   1.5413500e+02   5.1113000e+01
   1.5461700e+02   4.4778000e+01
   1.5510000e+02   4.2492000e+01
   1.5558200e+02   4.7413000e+01
   1.5606400e+02   5.4562000e+01
   1.5654600e+02   6.2596000e+01
   1.5702800e+02   7.7150000e+01
   1.5751000e+02   8.4673000e+01
   1.5799200e+02   7.6343000e+01
   1.5847400e+02   5.7421000e+01
   1.5895600e+02   4.8615000e+01
   1.5943900e+02   6.2494000e+01
   1.5992100e+02   8.2747000e+01
   1.6040300e+02   9.8716000e+01
   1.6088500e+02   1.0692700e+02
   1.6136700e+02   1.1153200e+02
   1.6184900e+02   1.1117400e+02
   1.6233100e+02   1.0631900e+02
   1.6281300e+02   1.0520000e+02
   1.6329600e+02   1.1432000e+02
   1.6377800e+02   1.2707600e+02
   1.6426000e+02   1.3665600e+02
   1.6474200e+02   1.3762500e+02
   1.6522400e+02   1.3748500e+02
   1.6570600e+02   1.4029500e+02
   1.6618800e+02   1.4706600e+02
   1.6667000e+02   1.5256900e+02
   1.6715200e+02   1.5183000e+02
   1.6763500e+02   1.4827100e+02
   1.6811700e+02   1.4767800e+02
   1.6859900e+02   1.5853200e+02
   1.6908100e+02   1.6950700e+02
   1.6956300e+02   1.7185900e+02
   1.7004500e+02   1.5984900e+02
   1.7052700e+02   1.4483400e+02
   1.7100900e+02   1.3761900e+02
   1.7149100e+02   1.3636000e+02
   1.7197400e+02   1.3690500e+02
   1.7245600e+02   1.3275500e+02
   1.7293800e+02   1.2607100e+02
   1.7342000e+02   1.1776800e+02
   1.7390200e+02   1.0811500e+02
   1.7438400e+02   9.9867000e+01
   1.7486600e+02   9.5620000e+01
   1.7534800e+02   9.6813000e+01
   1.7583100e+02   9.9049000e+01
   1.7631300e+02   1.0215200e+02
   1.7679500e+02   1.0390200e+02
   1.7727700e+02   1.0134700e+02
   1.7775900e+02   9.5001000e+01
   1.7824100e+02   8.9353000e+01
   1.7872300e+02   9.0574000e+01
   1.7920500e+02   9.8035000e+01
   1.7968700e+02   1.0211500e+02
   1.8016900e+02   9.7231000e+01
   1.8065200e+02   8.7835000e+01
   1.8113400e+02   7.9628000e+01
   1.8161600e+02   7.6371000e+01
   1.8209800e+02   7.5551000e+01
   1.8258000e+02   7.2424000e+01
   1.8306200e+02   6.6560000e+01
   1.8354400e+02   6.0548000e+01
   1.8402700e+02   5.6994000e+01
   1.8450900e+02   5.5731000e+01
   1.8499100e+02   5.6144000e+01
   1.8547300e+02   5.8699000e+01
   1.8595500e+02   6.2729000e+01
   1.8643700e+02   6.7002000e+01
   1.8691900e+02   7.2130000e+01
   1.8740100e+02   7.5559000e+01
   1.8788300e+02   7.1728000e+01
   1.8836500e+02   6.1268000e+01
   1.8884800e+02   5.1629000e+01
   1.8933000e+02   4.8369000e+01
   1.8981200e+02   5.0306000e+01
   1.9029400e+02   5.2342000e+01
   1.9077600e+02   5.4293000e+01
   1.9125800e+02   5.5317000e+01
   1.9174000e+02   5.2339000e+01
   1.9222300e+02   4.5122000e+01
   1.9270500e+02   3.9043000e+01
   1.9318700e+02   4.0745000e+01
   1.9366900e+02   4.9188000e+01
   1.9415100e+02   5.2187000e+01
   1.9463300e+02   4.5073000e+01
   1.9511500e+02   3.1615000e+01
   1.9559700e+02   2.4597000e+01
   1.9607900e+02   2.4879000e+01
   1.9656100e+02   2.6633000e+01
   1.9704400e+02   2.3670000e+01
   1.9752600e+02   1.5909000e+01
   1.9800800e+02   9.1020000e+00
   1.9849000e+02   5.2750000e+00
   1.9897200e+02   3.4830000e+00
   1.9945400e+02   6.4840000e+00
   1.9993600e+02   1.5639000e+01
   2.0041900e+02   2.5948000e+01
   2.0090100e+02   3.1625000e+01
   2.0138300e+02   3.2557000e+01
   2.0186500e+02   2.9704000e+01
   2.0234700e+02   2.0263000e+01
   2.0282900e+02   4.1030000e+00
   2.0331100e+02   8.0900000e-01
   2.0379300e+02   8.4040000e+00
   2.0427500e+02   2.3958000e+01
   2.0475800e+02   3.3375000e+01
   2.0524000e+02   3.6396000e+01
   2.0572200e+02   3.4286000e+01
   2.0620400e+02   2.5340000e+01
   2.0668600e+02   8.0200000e+00
   2.0716800e+02   3.1550000e+00
   2.0765000e+02   6.2190000e+00
   2.0813200e+02   5.0050000e+00
   2.0861400e+02   8.2080000e+00
   2.0909700e+02   1.7296000e+01
   2.0957900e+02   2.6210000e+01
   2.1006100e+02   3.1482000e+01
   2.1054300e+02   3.2184000e+01
   2.1102500e+02   3.3656000e+01
   2.1150700e+02   3.7295000e+01
   2.1198900e+02   4.1485000e+01
   2.1247100e+02   4.0450000e+01
   2.1295400e+02   3.2043000e+01
   2.1343600e+02   2.3340000e+01
   2.1391800e+02   1.8991000e+01
   2.1440000e+02   2.0124000e+01
   2.1488200e+02   2.1696000e+01
   2.1536400e+02   2.3329000e+01
   2.1584600e+02   2.4991000e+01
   2.1632800e+02   2.6901000e+01
   2.1681000e+02   3.0244000e+01
   2.1729300e+02   3.1799000e+01
   2.1777500e+02   2.8469000e+01
   2.1825700e+02   1.8192000e+01
   2.1873900e+02   8.6670000e+00
   2.1922100e+02   8.7000000e-01
   2.1970300e+02   5.2480000e+00
   2.2018500e+02   8.6070000e+00
   2.2066700e+02   7.6020000e+00
   2.2115000e+02   5.9610000e+00
   2.2163200e+02   7.7910000e+00
   2.2211400e+02   1.5632000e+01
   2.2259600e+02   2.0748000e+01
   2.2307800e+02   2.0326000e+01
   2.2356000e+02   1.4133000e+01
   2.2404200e+02   1.0737000e+01
   2.2452400e+02   1.0610000e+01
   2.2500600e+02   1.2819000e+01
   2.2548800e+02   1.6753000e+01
   2.2597100e+02   2.4066000e+01
   2.2645300e+02   2.9749000e+01
   2.2693500e+02   3.1758000e+01
   2.2741700e+02   2.9158000e+01
   2.2789900e+02   3.0041000e+01
   2.2838100e+02   3.5616000e+01
   2.2886300e+02   4.3731000e+01
   2.2934600e+02   5.1545000e+01
   2.2982800e+02   5.9701000e+01
   2.3031000e+02   6.6303000e+01
   2.3079200e+02   7.0274000e+01
   2.3127400e+02   7.0730000e+01
   2.3175600e+02   7.2585000e+01
   2.3223800e+02   7.6638000e+01
   2.3272000e+02   8.1606000e+01
   2.3320200e+02   8.5571000e+01
   2.3368400e+02   8.9866000e+01
   2.3416700e+02   9.0860000e+01
   2.3464900e+02   8.5135000e+01
   2.3513100e+02   6.6036000e+01
   2.3561300e+02   6.0965000e+01
   2.3609500e+02   7.7376000e+01
   2.3657700e+02   1.0482400e+02
   2.3705900e+02   1.2025600e+02
   2.3754200e+02   1.1623400e+02
   2.3802400e+02   1.1154100e+02
   2.3850600e+02   1.1405900e+02
   2.3898800e+02   1.2780700e+02
   2.3947000e+02   1.3967600e+02
   2.3995200e+02   1.4996100e+02
   2.4043400e+02   1.5830600e+02
   2.4091600e+02   1.6305100e+02
   2.4139800e+02   1.6022300e+02
   2.4188000e+02   1.5940800e+02
   2.4236300e+02   1.6579200e+02
   2.4284500e+02   1.8436700e+02
   2.4332700e+02   1.9926200e+02
   2.4380900e+02   2.0769500e+02
   2.4429100e+02   2.1208400e+02
   2.4477300e+02   2.2146200e+02
   2.4525500e+02   2.4056200e+02
   2.4573800e+02   2.5829100e+02
   2.4622000e+02   2.6749800e+02
   2.4670200e+02   2.5970900e+02
   2.4718400e+02   2.6167000e+02
   2.4766600e+02   2.7942700e+02
   2.4814800e+02   3.0856200e+02
   2.4863000e+02   3.2768600e+02
   2.4911200e+02   3.2929600e+02
   2.4959400e+02   3.3074500e+02
   2.5007700e+02   3.4335700e+02
   2.5055900e+02   3.7493200e+02
   2.5104100e+02   4.0084800e+02
   2.5152300e+02   4.1764800e+02
   2.5200500e+02   4.2664300e+02
   2.5248700e+02   4.3632700e+02
   2.5296900e+02   4.4516700e+02
   2.5345100e+02   4.5666500e+02
   2.5393300e+02   4.7358200e+02
   2.5441600e+02   4.9855100e+02
   2.5489800e+02   5.2352400e+02
   2.5538000e+02   5.4900500e+02
   2.5586200e+02   5.7409800e+02
   2.5634400e+02   5.9262600e+02
   2.5682600e+02   6.0213000e+02
   2.5730800e+02   6.0910200e+02
   2.5779000e+02   6.1777400e+02
   2.5827200e+02   6.2748000e+02
   2.5875500e+02   6.3981400e+02
   2.5923700e+02   6.5578800e+02
   2.5971900e+02   6.7476600e+02
   2.6020100e+02   6.9404600e+02
   2.6068300e+02   7.1547200e+02
   2.6116500e+02   7.3385200e+02
   2.6164700e+02   7.4505500e+02
   2.6212900e+02   7.4528200e+02
   2.6261200e+02   7.4656400e+02
   2.6309400e+02   7.5111100e+02
   2.6357600e+02   7.5863900e+02
   2.6405800e+02   7.6545600e+02
   2.6454000e+02   7.7148200e+02
   2.6502200e+02   7.7615800e+02
   2.6550400e+02   7.7993600e+02
   2.6598600e+02   7.8366900e+02
   2.6646900e+02   7.8479000e+02
   2.6695100e+02   7.8168400e+02
   2.6743300e+02   7.7471100e+02
   2.6791500e+02   7.6998300e+02
   2.6839700e+02   7.6945700e+02
   2.6887900e+02   7.6859200e+02
   2.6936100e+02   7.6233600e+02
   2.6984300e+02   7.4872200e+02
   2.7032500e+02   7.3649000e+02
   2.7080700e+02   7.2815400e+02
   2.7129000e+02   7.2342500e+02
   2.7177200e+02   7.1808400e+02
   2.7225400e+02   7.1149200e+02
   2.7273600e+02   7.0459400e+02
   2.7321800e+02   6.9670800e+02
   2.7370000e+02   6.8585100e+02
   2.7418200e+02   6.8311200e+02
   2.7466400e+02   6.9265100e+02
   2.7514700e+02   7.1334100e+02
   2.7562900e+02   7.3203600e+02
   2.7611100e+02   7.4625800e+02
   2.7659300e+02   7.6471000e+02
   2.7707500e+02   7.9567900e+02
   2.7755700e+02   8.3982500e+02
   2.7803900e+02   8.9183000e+02
   2.7852100e+02   9.5012600e+02
   2.7900400e+02   1.0150980e+03
   2.7948600e+02   1.0900940e+03
   2.7996800e+02   1.1739540e+03
   2.8045000e+02   1.2681800e+03
   2.8093200e+02   1.3729280e+03
   2.8141400e+02   1.4882390e+03
   2.8189600e+02   1.6138490e+03
   2.8237800e+02   1.7507180e+03
   2.8286000e+02   1.8979880e+03
   2.8334300e+02   2.0493330e+03
   2.8382500e+02   2.2040440e+03
   2.8430700e+02   2.3673380e+03
   2.8478900e+02   2.5479210e+03
   2.8527100e+02   2.7459530e+03
   2.8575300e+02   2.9517970e+03
   2.8623500e+02   3.1660270e+03
   2.8671700e+02   3.3859700e+03
   2.8719900e+02   3.5983450e+03
   2.8768200e+02   3.8026810e+03
   2.8816400e+02   4.0056340e+03
   2.8864600e+02   4.2352130e+03
   2.8912800e+02   4.4868090e+03
   2.8961000e+02   4.6871210e+03
   2.9009200e+02   4.8262680e+03
   2.9057400e+02   4.8968990e+03
   2.9105600e+02   4.8723740e+03
   2.9153900e+02   4.7502890e+03
   2.9202100e+02   4.5461310e+03
   2.9250300e+02   4.2537480e+03
   2.9298500e+02   3.8820660e+03
   2.9346700e+02   3.4916000e+03
   2.9394900e+02   3.0811080e+03
   2.9443100e+02   2.6727590e+03
   2.9491300e+02   2.3088020e+03
   2.9539600e+02   1.9895060e+03
   2.9587800e+02   1.7066920e+03
   2.9636000e+02   1.4638150e+03
   2.9684200e+02   1.2561380e+03
   2.9732400e+02   1.0757550e+03
   2.9780600e+02   9.2289500e+02
   2.9828800e+02   7.9460800e+02
   2.9877000e+02   6.8272000e+02
   2.9925200e+02   5.8688000e+02
   2.9973500e+02   5.0863000e+02
   3.0021700e+02   4.5500500e+02
   3.0069900e+02   4.1982800e+02
   3.0118100e+02   3.8895600e+02
   3.0166300e+02   3.5884600e+02
   3.0214500e+02   3.3029800e+02
   3.0262700e+02   3.0376300e+02
   3.0310900e+02   2.7916500e+02
   3.0359100e+02   2.5692500e+02
   3.0407400e+02   2.3432500e+02
   3.0455600e+02   2.1465200e+02
   3.0503800e+02   2.0421300e+02
   3.0552000e+02   2.0826400e+02
   3.0600200e+02   2.1858600e+02
   3.0648400e+02   2.2676500e+02
   3.0696600e+02   2.3312400e+02
   3.0744800e+02   2.3942200e+02
   3.0793100e+02   2.4432000e+02
   3.0841300e+02   2.5058500e+02
   3.0889500e+02   2.6201500e+02
   3.0937700e+02   2.8086800e+02
   3.0985900e+02   3.0364100e+02
   3.1034100e+02   3.2843100e+02
   3.1082300e+02   3.5500600e+02
   3.1130500e+02   3.8257500e+02
   3.1178800e+02   4.0832800e+02
   3.1227000e+02   4.3600700e+02
   3.1275200e+02   4.7034300e+02
   3.1323400e+02   5.1562000e+02
   3.1371600e+02   5.6350000e+02
   3.1419800e+02   6.1177700e+02
   3.1468000e+02   6.5886900e+02
   3.1516200e+02   7.0036600e+02
   3.1564400e+02   7.2874800e+02
   3.1612600e+02   7.5287300e+02
   3.1660900e+02   7.8172200e+02
   3.1709100e+02   8.2582800e+02
   3.1757300e+02   8.5991600e+02
   3.1805500e+02   8.6744200e+02
   3.1853700e+02   8.5511800e+02
   3.1901900e+02   8.4089200e+02
   3.1950100e+02   8.4332800e+02
   3.1998300e+02   8.3854000e+02
   3.2046600e+02   8.0979500e+02
   3.2094800e+02   7.4363600e+02
   3.2143000e+02   6.7474100e+02
   3.2191200e+02   6.0983100e+02
   3.2239400e+02   5.4986600e+02
   3.2287600e+02   4.9694500e+02
   3.2335800e+02   4.5627200e+02
   3.2384000e+02   4.1905100e+02
   3.2432300e+02   3.8132900e+02
   3.2480500e+02   3.4038800e+02
   3.2528700e+02   3.0403800e+02
   3.2576900e+02   2.7480000e+02
   3.2625100e+02   2.5095300e+02
   3.2673300e+02   2.2951900e+02
   3.2721500e+02   2.1282600e+02
   3.2769700e+02   1.9552500e+02
   3.2817900e+02   1.7538600e+02
   3.2866200e+02   1.5081300e+02
   3.2914400e+02   1.2729000e+02
   3.2962600e+02   1.0288400e+02
   3.3010800e+02   8.0377000e+01
   3.3059000e+02   6.4020000e+01
   3.3107200e+02   5.3802000e+01
   3.3155400e+02   4.9459000e+01
   3.3203600e+02   5.3162000e+01
   3.3251800e+02   6.8583000e+01
   3.3300100e+02   7.6728000e+01
   3.3348300e+02   7.4383000e+01
   3.3396500e+02   6.6634000e+01
   3.3444700e+02   5.8989000e+01
   3.3492900e+02   4.8078000e+01
   3.3541100e+02   4.2554000e+01
   3.3589300e+02   4.5435000e+01
   3.3637500e+02   5.7376000e+01
   3.3685800e+02   6.7729000e+01
   3.3734000e+02   7.5093000e+01
   3.3782200e+02   8.2555000e+01
   3.3830400e+02   9.3112000e+01
   3.3878600e+02   1.0658800e+02
   3.3926800e+02   1.2345300e+02
   3.3975000e+02   1.4526500e+02
   3.4023200e+02   1.7165800e+02
   3.4071500e+02   1.9264300e+02
   3.4119700e+02   2.0572400e+02
   3.4167900e+02   2.1836400e+02
   3.4216100e+02   2.3745700e+02
   3.4264300e+02   2.6395400e+02
   3.4312500e+02   2.9253100e+02
   3.4360700e+02   3.2283600e+02
   3.4408900e+02   3.5477700e+02
   3.4457100e+02   3.8646000e+02
   3.4505400e+02   4.1814100e+02
   3.4553600e+02   4.5066200e+02
   3.4601800e+02   4.8490400e+02
   3.4650000e+02   5.2106800e+02
   3.4698200e+02   5.5696200e+02
   3.4746400e+02   5.9188600e+02
   3.4794600e+02   6.2736400e+02
   3.4842800e+02   6.7156200e+02
   3.4891000e+02   7.2431100e+02
   3.4939300e+02   7.6809000e+02
   3.4987500e+02   7.8991100e+02
   3.5035700e+02   7.9303000e+02
   3.5083900e+02   7.8875800e+02
   3.5132100e+02   7.7701400e+02
   3.5180300e+02   7.6179700e+02
   3.5228500e+02   7.4957800e+02
   3.5276700e+02   7.3938100e+02
   3.5325000e+02   7.2618600e+02
   3.5373200e+02   7.0897900e+02
   3.5421400e+02   6.8652600e+02
   3.5469600e+02   6.5282600e+02
   3.5517800e+02   6.0452300e+02
   3.5566000e+02   5.5870000e+02
   3.5614200e+02   5.3521600e+02
   3.5662400e+02   5.2763100e+02
   3.5710700e+02   5.2182000e+02
   3.5758900e+02   5.1200100e+02
   3.5807100e+02   4.9995700e+02
   3.5855300e+02   4.8732100e+02
   3.5903500e+02   4.7421000e+02
   3.5951700e+02   4.6040300e+02
   3.5999900e+02   4.4354300e+02
   3.6048100e+02   4.2627600e+02
   3.6096300e+02   4.1202800e+02
   3.6144500e+02   4.0343300e+02
   3.6192800e+02   3.9723700e+02
   3.6241000e+02   3.9227400e+02
   3.6289200e+02   3.8846100e+02
   3.6337400e+02   3.8424800e+02
   3.6385600e+02   3.7726300e+02
   3.6433800e+02   3.7032700e+02
   3.6482000e+02   3.6594300e+02
   3.6530200e+02   3.6715500e+02
   3.6578500e+02   3.6865000e+02
   3.6626700e+02   3.6928100e+02
   3.6674900e+02   3.6898400e+02
   3.6723100e+02   3.6746500e+02
   3.6771300e+02   3.6526600e+02
   3.6819500e+02   3.6143000e+02
   3.6867700e+02   3.5532200e+02
   3.6915900e+02   3.4482500e+02
   3.6964200e+02   3.3444100e+02
   3.7012400e+02   3.2547100e+02
   3.7060600e+02   3.1711800e+02
   3.7108800e+02   3.0630100e+02
   3.7157000e+02   2.9165200e+02
   3.7205200e+02   2.7581600e+02
   3.7253400e+02   2.5986300e+02
   3.7301600e+02   2.4283100e+02
   3.7349800e+02   2.2751400e+02
   3.7398100e+02   2.1604200e+02
   3.7446300e+02   2.0541000e+02
   3.7494500e+02   1.8895500e+02
   3.7542700e+02   1.6282900e+02
   3.7590900e+02   1.3788000e+02
   3.7639100e+02   1.1842500e+02
   3.7687300e+02   1.0552400e+02
   3.7735500e+02   9.1440000e+01
   3.7783700e+02   7.5123000e+01
   3.7832000e+02   5.8983000e+01
   3.7880200e+02   4.6239000e+01
   3.7928400e+02   3.7460000e+01
   3.7976600e+02   2.9332000e+01
   3.8024800e+02   2.0568000e+01
   3.8073000e+02   1.1558000e+01
   3.8121200e+02   4.1020000e+00
   3.8169400e+02   1.5570000e+00
   3.8217700e+02   6.3330000e+00
   3.8265900e+02   1.0509000e+01
   3.8314100e+02   1.4229000e+01
   3.8362300e+02   1.9318000e+01
   3.8410500e+02   2.7846000e+01
   3.8458700e+02   3.6687000e+01
   3.8506900e+02   3.7806000e+01
   3.8555100e+02   3.1372000e+01
   3.8603400e+02   2.4495000e+01
   3.8651600e+02   2.3055000e+01
   3.8699800e+02   2.5355000e+01
   3.8748000e+02   2.7033000e+01
   3.8796200e+02   2.7311000e+01
   3.8844400e+02   2.6763000e+01
   3.8892600e+02   2.5553000e+01
   3.8940800e+02   2.3958000e+01
   3.8989000e+02   2.2977000e+01
   3.9037200e+02   2.3770000e+01
   3.9085500e+02   2.5220000e+01
   3.9133700e+02   2.6110000e+01
   3.9181900e+02   2.6249000e+01
   3.9230100e+02   2.5993000e+01
   3.9278300e+02   2.6117000e+01
   3.9326500e+02   2.5984000e+01
   3.9374700e+02   2.4513000e+01
   3.9422900e+02   1.9906000e+01
   3.9471200e+02   1.4884000e+01
   3.9519400e+02   1.1250000e+01
   3.9567600e+02   9.1990000e+00
   3.9615800e+02   6.6310000e+00
   3.9664000e+02   1.3350000e+00
   3.9712200e+02   4.2940000e+00
   3.9760400e+02   7.9420000e+00
   3.9808600e+02   5.2800000e+00
   3.9856900e+02   4.4960000e+00
   3.9905100e+02   9.9190000e+00
   3.9953300e+02   2.0599000e+01
   4.0001500e+02   2.6938000e+01
   4.0049700e+02   2.0825000e+01
   4.0097900e+02   1.4607000e+01
   4.0146100e+02   1.5295000e+01
   4.0194300e+02   3.2510000e+01
   4.0242600e+02   4.4036000e+01
   4.0290800e+02   4.6926000e+01
   4.0339000e+02   4.4056000e+01
   4.0387200e+02   4.3372000e+01
   4.0435400e+02   4.5252000e+01
   4.0483600e+02   4.8819000e+01
   4.0531800e+02   5.4277000e+01
   4.0580000e+02   6.2693000e+01
   4.0628200e+02   6.8887000e+01
   4.0676400e+02   7.2822000e+01
   4.0724700e+02   7.4562000e+01
   4.0772900e+02   7.2619000e+01
   4.0821100e+02   6.4931000e+01
   4.0869300e+02   6.2627000e+01
   4.0917500e+02   7.1221000e+01
   4.0965700e+02   8.9203000e+01
   4.1013900e+02   1.0238300e+02
   4.1062100e+02   1.1076300e+02
   4.1110400e+02   1.1474200e+02
   4.1158600e+02   1.1250400e+02
   4.1206800e+02   1.0475000e+02
   4.1255000e+02   9.9588000e+01
   4.1303200e+02   9.8889000e+01
   4.1351400e+02   1.0163200e+02
   4.1399600e+02   1.0758800e+02
   4.1447800e+02   1.1634400e+02
   4.1496100e+02   1.2294000e+02
   4.1544300e+02   1.2154900e+02
   4.1592500e+02   1.1591200e+02
   4.1640700e+02   1.1292700e+02
   4.1688900e+02   1.1398900e+02
   4.1737100e+02   1.1705100e+02
   4.1785300e+02   1.2077300e+02
   4.1833500e+02   1.2499600e+02
   4.1881700e+02   1.2940900e+02
   4.1930000e+02   1.3638400e+02
   4.1978200e+02   1.4183800e+02
   4.2026400e+02   1.4089300e+02
   4.2074600e+02   1.3259800e+02
   4.2122800e+02   1.2552800e+02
   4.2171000e+02   1.2370800e+02
   4.2219200e+02   1.2576900e+02
   4.2267400e+02   1.3019200e+02
   4.2315600e+02   1.4060600e+02
   4.2363900e+02   1.4932100e+02
   4.2412100e+02   1.5181500e+02
   4.2460300e+02   1.4887000e+02
   4.2508500e+02   1.4888200e+02
   4.2556700e+02   1.5668800e+02
   4.2604900e+02   1.6576300e+02
   4.2653100e+02   1.7222600e+02
   4.2701300e+02   1.7621800e+02
   4.2749600e+02   1.7700900e+02
   4.2797800e+02   1.7234800e+02
   4.2846000e+02   1.6464800e+02
   4.2894200e+02   1.5987700e+02
   4.2942400e+02   1.5785800e+02
   4.2990600e+02   1.5908400e+02
   4.3038800e+02   1.6500900e+02
   4.3087000e+02   1.7762400e+02
   4.3135300e+02   1.8462800e+02
   4.3183500e+02   1.8414700e+02
   4.3231700e+02   1.8056200e+02
   4.3279900e+02   1.7954300e+02
   4.3328100e+02   1.8150400e+02
   4.3376300e+02   1.8338900e+02
   4.3424500e+02   1.8345400e+02
   4.3472700e+02   1.8279900e+02
   4.3520900e+02   1.8731400e+02
   4.3569100e+02   1.9746900e+02
   4.3617400e+02   2.0936400e+02
   4.3665600e+02   2.2135900e+02
   4.3713800e+02   2.3290500e+02
   4.3762000e+02   2.4025700e+02
   4.3810200e+02   2.4131600e+02
   4.3858400e+02   2.4069000e+02
   4.3906600e+02   2.4647300e+02
   4.3954800e+02   2.5713000e+02
   4.4003100e+02   2.6551700e+02
   4.4051300e+02   2.6517600e+02
   4.4099500e+02   2.6139000e+02
   4.4147700e+02   2.6006200e+02
   4.4195900e+02   2.6136500e+02
   4.4244100e+02   2.6589000e+02
   4.4292300e+02   2.7606700e+02
   4.4340500e+02   2.9046600e+02
   4.4388800e+02   3.0608800e+02
   4.4437000e+02   3.2337100e+02
   4.4485200e+02   3.3947100e+02
   4.4533400e+02   3.5401400e+02
   4.4581600e+02   3.6691000e+02
   4.4629800e+02   3.7645200e+02
   4.4678000e+02   3.7635700e+02
   4.4726200e+02   3.7637300e+02
   4.4774400e+02   3.8310300e+02
   4.4822700e+02   4.0477500e+02
   4.4870900e+02   4.2332200e+02
   4.4919100e+02   4.3369600e+02
   4.4967300e+02   4.3977400e+02
   4.5015500e+02   4.5147600e+02
   4.5063700e+02   4.7037400e+02
   4.5111900e+02   4.9289400e+02
   4.5160100e+02   5.1988900e+02
   4.5208300e+02   5.5336600e+02
   4.5256600e+02   5.7865000e+02
   4.5304800e+02   5.9159700e+02
   4.5353000e+02   6.0103800e+02
   4.5401200e+02   6.1773800e+02
   4.5449400e+02   6.4358000e+02
   4.5497600e+02   6.6973000e+02
   4.5545800e+02   6.9397300e+02
   4.5594000e+02   7.1681100e+02
   4.5642300e+02   7.4121100e+02
   4.5690500e+02   7.6749600e+02
   4.5738700e+02   7.9662100e+02
   4.5786900e+02   8.3148800e+02
   4.5835100e+02   8.7083600e+02
   4.5883300e+02   9.0859900e+02
   4.5931500e+02   9.4611200e+02
   4.5979700e+02   9.8066300e+02
   4.6028000e+02   1.0036820e+03
   4.6076200e+02   1.0198570e+03
   4.6124400e+02   1.0428810e+03
   4.6172600e+02   1.0870390e+03
   4.6220800e+02   1.1384350e+03
   4.6269000e+02   1.1812610e+03
   4.6317200e+02   1.2149010e+03
   4.6365400e+02   1.2430620e+03
   4.6413600e+02   1.2636730e+03
   4.6461900e+02   1.2818500e+03
   4.6510100e+02   1.3031180e+03
   4.6558300e+02   1.3311780e+03
   4.6606500e+02   1.3599870e+03
   4.6654700e+02   1.3925690e+03
   4.6702900e+02   1.4252860e+03
   4.6751100e+02   1.4449640e+03
   4.6799300e+02   1.4386510e+03
   4.6847500e+02   1.4255550e+03
   4.6895800e+02   1.4145130e+03
   4.6944000e+02   1.4088380e+03
   4.6992200e+02   1.3988170e+03
   4.7040400e+02   1.3856350e+03
   4.7088600e+02   1.3675130e+03
   4.7136800e+02   1.3414620e+03
   4.7185000e+02   1.3055530e+03
   4.7233200e+02   1.2658270e+03
   4.7281500e+02   1.2224840e+03
   4.7329700e+02   1.1759200e+03
   4.7377900e+02   1.1314100e+03
   4.7426100e+02   1.0893340e+03
   4.7474300e+02   1.0472600e+03
   4.7522500e+02   1.0035320e+03
   4.7570700e+02   9.5795800e+02
   4.7618900e+02   9.1016200e+02
   4.7667200e+02   8.5895400e+02
   4.7715400e+02   8.0713700e+02
   4.7763600e+02   7.6115900e+02
   4.7811800e+02   7.2012600e+02
   4.7860000e+02   6.7655900e+02
   4.7908200e+02   6.2236700e+02
   4.7956400e+02   5.6453300e+02
   4.8004600e+02   5.1524800e+02
   4.8052800e+02   4.7486000e+02
   4.8101000e+02   4.3822300e+02
   4.8149300e+02   4.0142600e+02
   4.8197500e+02   3.6568000e+02
   4.8245700e+02   3.3273300e+02
   4.8293900e+02   3.0208100e+02
   4.8342100e+02   2.7504800e+02
   4.8390300e+02   2.5320800e+02
   4.8438500e+02   2.3576100e+02
   4.8486700e+02   2.2038500e+02
   4.8535000e+02   2.0627600e+02
   4.8583200e+02   1.9412700e+02
   4.8631400e+02   1.8442500e+02
   4.8679600e+02   1.7749700e+02
   4.8727800e+02   1.7081300e+02
   4.8776000e+02   1.6633600e+02
   4.8824200e+02   1.6144600e+02
   4.8872400e+02   1.5305300e+02
   4.8920700e+02   1.3776400e+02
   4.8968900e+02   1.2447100e+02
   4.9017100e+02   1.1470400e+02
   4.9065300e+02   1.0821300e+02
   4.9113500e+02   1.0210400e+02
   4.9161700e+02   9.5862000e+01
   4.9209900e+02   9.0203000e+01
   4.9258100e+02   8.6600000e+01
   4.9306300e+02   8.5444000e+01
   4.9354600e+02   8.3583000e+01
   4.9402800e+02   8.0891000e+01
   4.9451000e+02   7.7422000e+01
   4.9499200e+02   7.3047000e+01
   4.9547400e+02   6.7696000e+01
   4.9595600e+02   6.2400000e+01
   4.9643800e+02   5.7092000e+01
   4.9692000e+02   5.2698000e+01
   4.9740200e+02   5.1645000e+01
   4.9788500e+02   5.3711000e+01
   4.9836700e+02   5.5723000e+01
   4.9884900e+02   5.5601000e+01
   4.9933100e+02   5.3915000e+01
   4.9981300e+02   5.1434000e+01
   5.0029500e+02   4.8362000e+01
   5.0077700e+02   4.4567000e+01
   5.0125900e+02   3.8928000e+01
   5.0174100e+02   3.2344000e+01
   5.0222400e+02   2.6968000e+01
   5.0270600e+02   2.2873000e+01
   5.0318800e+02   2.0864000e+01
   5.0367000e+02   2.2607000e+01
   5.0415200e+02   2.8722000e+01
   5.0463400e+02   3.1437000e+01
   5.0511600e+02   2.5231000e+01
   5.0559900e+02   1.8198000e+01
   5.0608100e+02   1.6172000e+01
   5.0656300e+02   2.4031000e+01
   5.0704500e+02   2.8557000e+01
   5.0752700e+02   2.7868000e+01
   5.0800900e+02   2.3807000e+01
   5.0849100e+02   2.0378000e+01
   5.0897300e+02   1.7213000e+01
   5.0945500e+02   1.5563000e+01
   5.0993800e+02   1.6766000e+01
   5.1042000e+02   2.0560000e+01
   5.1090200e+02   2.1879000e+01
   5.1138400e+02   2.0517000e+01
   5.1186600e+02   1.7818000e+01
   5.1234800e+02   1.4601000e+01
   5.1283000e+02   1.1080000e+01
   5.1331200e+02   8.4480000e+00
   5.1379400e+02   7.7850000e+00
   5.1427700e+02   6.7980000e+00
   5.1475900e+02   8.0800000e-01
   5.1524100e+02   1.2217000e+01
   5.1572300e+02   1.7708000e+01
   5.1620500e+02   3.1580000e+00
   5.1668700e+02   1.4180000e+01
   5.1716900e+02   1.6897000e+01
   5.1765100e+02   2.2490000e+00
   5.1813300e+02   9.5010000e+00
   5.1861600e+02   4.8690000e+00
   5.1909800e+02   5.4500000e+00
   5.1958000e+02   1.1212000e+01
   5.2006200e+02   5.0030000e+00
   5.2054400e+02   1.5800000e-01
   5.2102600e+02   1.0140000e+00
   5.2150800e+02   1.1960000e+00
   5.2199000e+02   1.4730000e+00
   5.2247300e+02   3.1870000e+00
   5.2295500e+02   5.9880000e+00
   5.2343700e+02   3.6200000e+00
   5.2391900e+02   5.2240000e+00
   5.2440100e+02   9.7810000e+00
   5.2488300e+02   8.4940000e+00
   5.2536500e+02   5.6630000e+00
   5.2584700e+02   5.8540000e+00
   5.2633000e+02   9.2340000e+00
   5.2681200e+02   1.3161000e+01
   5.2729400e+02   1.7594000e+01
   5.2777600e+02   2.1596000e+01
   5.2825800e+02   2.3380000e+01
   5.2874000e+02   2.2999000e+01
   5.2922200e+02   2.0831000e+01
   5.2970400e+02   1.4352000e+01
   5.3018700e+02   7.1190000e+00
   5.3066900e+02   5.6890000e+00
   5.3115100e+02   1.0666000e+01
   5.3163300e+02   1.6172000e+01
   5.3211500e+02   1.9280000e+01
   5.3259700e+02   1.9966000e+01
   5.3307900e+02   1.8122000e+01
   5.3356100e+02   1.0971000e+01
   5.3404300e+02   4.5870000e+00
   5.3452600e+02   1.1940000e+00
   5.3500800e+02   3.9600000e-01
   5.3549000e+02   7.4600000e-01
   5.3597200e+02   2.8090000e+00
   5.3645400e+02   5.1830000e+00
   5.3693600e+02   7.8280000e+00
   5.3741800e+02   1.1276000e+01
   5.3790000e+02   1.2032000e+01
   5.3838200e+02   8.8070000e+00
   5.3886500e+02   4.2800000e+00
   5.3934700e+02   5.6300000e-01
   5.3982900e+02   2.5450000e+00
   5.4031100e+02   3.6810000e+00
   5.4079300e+02   2.4570000e+00
   5.4127500e+02   3.1000000e-02
   5.4175700e+02   1.1810000e+00
   5.4223900e+02   1.2100000e+00
   5.4272100e+02   5.2300000e-01
   5.4320400e+02   2.2090000e+00
   5.4368600e+02   5.2640000e+00
   5.4416800e+02   2.8370000e+00
   5.4465000e+02   5.1600000e+00
   5.4513200e+02   1.1799000e+01
   5.4561400e+02   9.8890000e+00
   5.4609600e+02   3.4270000e+00
   5.4657800e+02   1.8870000e+00
   5.4706000e+02   4.5490000e+00
   5.4754300e+02   6.1080000e+00
   5.4802500e+02   8.3230000e+00
   5.4850700e+02   1.0031000e+01
   5.4898900e+02   8.8350000e+00
   5.4947100e+02   2.0600000e-01
   5.4995300e+02   7.9410000e+00
   5.5043500e+02   1.3056000e+01
   5.5091700e+02   1.5254000e+01
   5.5140000e+02   1.4504000e+01
   5.5188200e+02   6.7470000e+00
   5.5236400e+02   2.7000000e-01
   5.5284600e+02   1.2190000e+00
   5.5332800e+02   7.4520000e+00
   5.5381000e+02   1.1993000e+01
   5.5429200e+02   9.9890000e+00
   5.5477400e+02   5.7370000e+00
   5.5525600e+02   7.9570000e+00
   5.5573900e+02   1.7214000e+01
   5.5622100e+02   2.3396000e+01
   5.5670300e+02   2.2079000e+01
   5.5718500e+02   1.5546000e+01
   5.5766700e+02   8.2890000e+00
   5.5814900e+02   4.4700000e-01
   5.5863100e+02   4.9530000e+00
   5.5911400e+02   5.2140000e+00
   5.5959600e+02   1.9430000e+00
   5.6007800e+02   3.5150000e+00
   5.6056000e+02   1.1894000e+01
   5.6104200e+02   1.8328000e+01
   5.6152400e+02   1.8748000e+01
   5.6200600e+02   1.5568000e+01
   5.6248800e+02   1.2106000e+01
   5.6297000e+02   8.7250000e+00
   5.6345300e+02   5.8720000e+00
   5.6393500e+02   3.4990000e+00
   5.6441700e+02   1.6770000e+00
   5.6489900e+02   8.1400000e-01
   5.6538100e+02   2.2700000e-01
   5.6586300e+02   9.5300000e-01
   5.6634500e+02   5.9510000e+00
   5.6682700e+02   1.5879000e+01
   5.6730900e+02   2.3610000e+01
   5.6779200e+02   2.8984000e+01
   5.6827400e+02   3.2434000e+01
   5.6875600e+02   3.4393000e+01
   5.6923800e+02   3.4943000e+01
   5.6972000e+02   3.4311000e+01
   5.7020200e+02   3.2557000e+01
   5.7068400e+02   2.9398000e+01
   5.7116600e+02   2.2342000e+01
   5.7164800e+02   1.2764000e+01
   5.7213100e+02   5.6230000e+00
   5.7261300e+02   5.2330000e+00
   5.7309500e+02   7.4470000e+00
   5.7357700e+02   8.2380000e+00
   5.7405900e+02   8.7130000e+00
   5.7454100e+02   9.3660000e+00
   5.7502300e+02   1.1468000e+01
   5.7550500e+02   1.3451000e+01
   5.7598700e+02   1.3123000e+01
   5.7647000e+02   8.4990000e+00
   5.7695200e+02   6.8910000e+00
   5.7743400e+02   1.2740000e+01
   5.7791600e+02   2.1639000e+01
   5.7839800e+02   2.6174000e+01
   5.7888000e+02   2.3790000e+01
   5.7936200e+02   2.0526000e+01
   5.7984400e+02   1.6893000e+01
   5.8032700e+02   1.2955000e+01
   5.8080900e+02   1.0765000e+01
   5.8129100e+02   1.0886000e+01
   5.8177300e+02   1.2395000e+01
   5.8225500e+02   1.5609000e+01
   5.8273700e+02   2.0133000e+01
   5.8321900e+02   2.0194000e+01
   5.8370100e+02   1.4901000e+01
   5.8418300e+02   8.9560000e+00
   5.8466600e+02   8.4320000e+00
   5.8514800e+02   1.1331000e+01
   5.8563000e+02   1.2378000e+01
   5.8611200e+02   8.3990000e+00
   5.8659400e+02   4.3950000e+00
   5.8707600e+02   4.9500000e+00
   5.8755800e+02   8.9460000e+00
   5.8804100e+02   1.3355000e+01
   5.8852300e+02   1.7282000e+01
   5.8900500e+02   2.1087000e+01
   5.8948700e+02   2.5291000e+01
   5.8996900e+02   3.0082000e+01
   5.9045100e+02   3.3175000e+01
   5.9093300e+02   3.4791000e+01
   5.9141500e+02   3.4206000e+01
   5.9189800e+02   3.0053000e+01
   5.9238000e+02   1.7672000e+01
   5.9286200e+02   1.3548000e+01
   5.9334400e+02   2.1346000e+01
   5.9382600e+02   3.3881000e+01
   5.9430800e+02   3.9925000e+01
   5.9479000e+02   3.9158000e+01
   5.9527200e+02   3.6828000e+01
   5.9575400e+02   3.4903000e+01
   5.9623700e+02   3.2149000e+01
   5.9671900e+02   2.3330000e+01
   5.9720100e+02   9.5770000e+00
   5.9768300e+02   5.7700000e-01
   5.9816500e+02   6.3600000e-01
   5.9864700e+02   7.8700000e+00
   5.9912900e+02   1.6352000e+01
   5.9961100e+02   2.5974000e+01
   6.0009300e+02   3.1105000e+01
   6.0057600e+02   2.3423000e+01
   6.0105800e+02   1.2020000e+01
   6.0154000e+02   6.0120000e+00
   6.0202200e+02   1.2539000e+01
   6.0250400e+02   1.8691000e+01
   6.0298600e+02   2.2299000e+01
   6.0346800e+02   2.4042000e+01
   6.0395000e+02   2.5158000e+01
   6.0443200e+02   2.5712000e+01
   6.0491500e+02   2.5086000e+01
   6.0539700e+02   2.2813000e+01
   6.0587900e+02   1.9027000e+01
   6.0636100e+02   1.5745000e+01
   6.0684300e+02   1.3365000e+01
   6.0732500e+02   1.0826000e+01
   6.0780700e+02   4.2360000e+00
   6.0828900e+02   4.2930000e+00
   6.0877100e+02   4.1710000e+00
   6.0925400e+02   6.4110000e+00
   6.0973600e+02   1.7074000e+01
   6.1021800e+02   1.5318000e+01
   6.1070000e+02   7.4470000e+00
   6.1118200e+02   4.0770000e+00
   6.1166400e+02   1.1004000e+01
   6.1214600e+02   1.8965000e+01
   6.1262800e+02   2.2440000e+01
   6.1311100e+02   2.3066000e+01
   6.1359300e+02   2.4811000e+01
   6.1407500e+02   3.3966000e+01
   6.1455700e+02   3.9006000e+01
   6.1503900e+02   3.2753000e+01
   6.1552100e+02   1.5635000e+01
   6.1600300e+02   7.6100000e+00
   6.1648500e+02   1.2583000e+01
   6.1696800e+02   2.0607000e+01
   6.1745000e+02   2.6543000e+01
   6.1793200e+02   3.0335000e+01
   6.1841400e+02   3.2456000e+01
   6.1889600e+02   3.2640000e+01
   6.1937800e+02   3.1952000e+01
   6.1986000e+02   3.2403000e+01
   6.2034200e+02   3.3302000e+01
   6.2082500e+02   3.1591000e+01
   6.2130700e+02   2.5427000e+01
   6.2178900e+02   1.8003000e+01
   6.2227100e+02   1.0884000e+01
   6.2275300e+02   5.2170000e+00
   6.2323500e+02   3.8090000e+00
   6.2371700e+02   1.4765000e+01
   6.2419900e+02   2.4934000e+01
   6.2468100e+02   2.6117000e+01
   6.2516400e+02   1.7660000e+01
   6.2564600e+02   9.6920000e+00
   6.2612800e+02   2.3320000e+00
   6.2661000e+02   2.4100000e+00
   6.2709200e+02   2.8250000e+00
   6.2757400e+02   3.8100000e+00
   6.2805600e+02   5.6670000e+00
   6.2853800e+02   1.3600000e-01
   6.2902000e+02   6.3660000e+00
   6.2950300e+02   4.9730000e+00
   6.2998500e+02   4.6390000e+00
   6.3046700e+02   1.0422000e+01
   6.3094900e+02   9.1030000e+00
   6.3143100e+02   4.8020000e+00
   6.3191300e+02   3.8880000e+00
   6.3239500e+02   5.9150000e+00
   6.3287700e+02   9.1530000e+00
   6.3335900e+02   1.5306000e+01
   6.3384200e+02   2.0469000e+01
   6.3432400e+02   1.9132000e+01
   6.3480600e+02   1.2340000e+01
   6.3528800e+02   8.5990000e+00
   6.3577000e+02   1.5927000e+01
   6.3625200e+02   2.4008000e+01
   6.3673400e+02   2.6158000e+01
   6.3721600e+02   1.8717000e+01
   6.3769800e+02   1.4922000e+01
   6.3818100e+02   1.6989000e+01
   6.3866300e+02   2.1155000e+01
   6.3914500e+02   2.4206000e+01
   6.3962700e+02   2.5928000e+01
   6.4010900e+02   2.7498000e+01
   6.4059100e+02   2.9502000e+01
   6.4107300e+02   3.0647000e+01
   6.4155500e+02   2.7239000e+01
   6.4203800e+02   1.9857000e+01
   6.4252000e+02   1.4442000e+01
   6.4300200e+02   1.4330000e+01
   6.4348400e+02   1.6745000e+01
   6.4396600e+02   1.7925000e+01
   6.4444800e+02   1.8038000e+01
   6.4493000e+02   1.7821000e+01
   6.4541200e+02   1.7549000e+01
   6.4589400e+02   1.7215000e+01
   6.4637700e+02   1.6671000e+01
   6.4685900e+02   1.5814000e+01
   6.4734100e+02   1.5474000e+01
   6.4782300e+02   1.5332000e+01
   6.4830500e+02   1.6166000e+01
   6.4878700e+02   1.8553000e+01
   6.4926900e+02   2.3317000e+01
   6.4975200e+02   2.8189000e+01
   6.5023400e+02   3.4292000e+01
   6.5071600e+02   3.9042000e+01
   6.5119800e+02   3.8200000e+01
   6.5168000e+02   3.1527000e+01
   6.5216200e+02   2.3946000e+01
   6.5264400e+02   1.5998000e+01
   6.5312600e+02   8.7460000e+00
   6.5360800e+02   3.4890000e+00
   6.5409100e+02   4.0000000e-01
   6.5457300e+02   5.3000000e-02
   6.5505500e+02   3.6610000e+00
   6.5553700e+02   9.2820000e+00
   6.5601900e+02   1.7983000e+01
   6.5650100e+02   2.9118000e+01
   6.5698300e+02   3.4986000e+01
   6.5746500e+02   2.6817000e+01
   6.5794700e+02   1.6835000e+01
   6.5843000e+02   1.2558000e+01
   6.5891200e+02   1.7406000e+01
   6.5939400e+02   1.9512000e+01
   6.5987600e+02   1.7738000e+01
   6.6035800e+02   1.4691000e+01
   6.6084000e+02   1.2179000e+01
   6.6132200e+02   9.6110000e+00
   6.6180400e+02   6.3160000e+00
   6.6228600e+02   2.3230000e+00
   6.6276900e+02   2.3540000e+00
   6.6325100e+02   8.6050000e+00
   6.6373300e+02   2.3600000e-01
   6.6421500e+02   2.0290000e+00
   6.6469700e+02   8.3930000e+00
   6.6517900e+02   4.4620000e+00
   6.6566100e+02   7.1100000e+00
   6.6614300e+02   1.3780000e+00
   6.6662500e+02   1.4830000e+00
   6.6710800e+02   2.4290000e+00
   6.6759000e+02   5.4820000e+00
   6.6807200e+02   1.9470000e+00
   6.6855400e+02   2.1340000e+00
   6.6903600e+02   1.9030000e+00
   6.6951800e+02   4.6200000e-01
   6.7000000e+02   1.7210000e+00
   6.7048200e+02   1.0400000e-01
   6.7096500e+02   5.6310000e+00
   6.7144700e+02   1.2166000e+01
   6.7192900e+02   2.0820000e+01
   6.7241100e+02   2.7554000e+01
   6.7289300e+02   2.6008000e+01
   6.7337500e+02   1.7769000e+01
   6.7385700e+02   1.1581000e+01
   6.7433900e+02   9.3370000e+00
   6.7482100e+02   9.2200000e+00
   6.7530400e+02   9.7550000e+00
   6.7578600e+02   1.0844000e+01
   6.7626800e+02   1.2300000e+01
   6.7675000e+02   1.6118000e+01
   6.7723200e+02   1.8237000e+01
   6.7771400e+02   1.4771000e+01
   6.7819600e+02   7.5590000e+00
   6.7867900e+02   4.0040000e+00
   6.7916100e+02   7.4640000e+00
   6.7964300e+02   1.2305000e+01
   6.8012500e+02   1.8715000e+01
   6.8060700e+02   2.6518000e+01
   6.8108900e+02   2.3670000e+01
   6.8157100e+02   6.2980000e+00
   6.8205300e+02   8.1580000e+00
   6.8253500e+02   3.2020000e+00
   6.8301800e+02   1.6418000e+01
   6.8350000e+02   2.5801000e+01
   6.8398200e+02   2.2820000e+01
   6.8446400e+02   1.7614000e+01
   6.8494600e+02   2.0091000e+01
   6.8542800e+02   2.6620000e+01
   6.8591000e+02   3.1506000e+01
   6.8639200e+02   3.2773000e+01
   6.8687500e+02   3.3430000e+01
   6.8735700e+02   3.6735000e+01
   6.8783900e+02   4.0606000e+01
   6.8832100e+02   4.1509000e+01
   6.8880300e+02   3.4374000e+01
   6.8928500e+02   3.0061000e+01
   6.8976700e+02   3.0880000e+01
   6.9024900e+02   3.4980000e+01
   6.9073100e+02   3.6796000e+01
   6.9121400e+02   3.5806000e+01
   6.9169600e+02   3.5289000e+01
   6.9217800e+02   3.6744000e+01
   6.9266000e+02   3.9472000e+01
   6.9314200e+02   4.2071000e+01
   6.9362400e+02   4.4406000e+01
   6.9410600e+02   4.4640000e+01
   6.9458800e+02   3.8166000e+01
   6.9507000e+02   3.1006000e+01
   6.9555300e+02   3.0857000e+01
   6.9603500e+02   3.8457000e+01
   6.9651700e+02   4.4544000e+01
   6.9699900e+02   4.3464000e+01
   6.9748100e+02   4.0426000e+01
   6.9796300e+02   3.9360000e+01
   6.9844500e+02   4.3016000e+01
   6.9892700e+02   4.2928000e+01
   6.9940900e+02   3.5730000e+01
   6.9989200e+02   2.8352000e+01
   7.0037400e+02   2.9269000e+01
   7.0085600e+02   3.9659000e+01
   7.0133800e+02   4.7861000e+01
   7.0182000e+02   5.2298000e+01
   7.0230200e+02   5.3675000e+01
   7.0278400e+02   5.0591000e+01
   7.0326600e+02   4.4968000e+01
   7.0374900e+02   4.3677000e+01
   7.0423100e+02   5.3866000e+01
   7.0471300e+02   6.4324000e+01
   7.0519500e+02   6.3377000e+01
   7.0567700e+02   5.5014000e+01
   7.0615900e+02   5.0468000e+01
   7.0664100e+02   6.0010000e+01
   7.0712300e+02   6.7638000e+01
   7.0760600e+02   6.5378000e+01
   7.0808800e+02   5.4459000e+01
   7.0857000e+02   4.7619000e+01
   7.0905200e+02   4.5572000e+01
   7.0953400e+02   4.6379000e+01
   7.1001600e+02   5.0603000e+01
   7.1049800e+02   5.7780000e+01
   7.1098000e+02   5.8900000e+01
   7.1146300e+02   5.3570000e+01
   7.1194500e+02   4.7085000e+01
   7.1242700e+02   4.3773000e+01
   7.1290900e+02   4.2516000e+01
   7.1339100e+02   4.1773000e+01
   7.1387300e+02   4.1621000e+01
   7.1435500e+02   3.9973000e+01
   7.1483700e+02   3.2040000e+01
   7.1531900e+02   2.3646000e+01
   7.1580200e+02   2.1034000e+01
   7.1628400e+02   3.6506000e+01
   7.1676600e+02   4.0924000e+01
   7.1724800e+02   2.0857000e+01
   7.1773000e+02   4.4920000e+00
   7.1821200e+02   6.6160000e+00
   7.1869400e+02   2.1899000e+01
   7.1917600e+02   4.3217000e+01
   7.1965800e+02   4.9767000e+01
   7.2014100e+02   4.6422000e+01
   7.2062300e+02   3.9709000e+01
   7.2110500e+02   3.1054000e+01
   7.2158700e+02   2.6006000e+01
   7.2206900e+02   2.8433000e+01
   7.2255100e+02   3.4259000e+01
   7.2303300e+02   4.1575000e+01
   7.2351500e+02   4.9229000e+01
   7.2399700e+02   5.3106000e+01
   7.2448000e+02   4.9399000e+01
   7.2496200e+02   4.3541000e+01
   7.2544400e+02   3.6650000e+01
   7.2592600e+02   2.8826000e+01
   7.2640800e+02   2.5318000e+01
   7.2689000e+02   2.8646000e+01
   7.2737200e+02   3.2110000e+01
   7.2785400e+02   3.1755000e+01
   7.2833600e+02   2.7622000e+01
   7.2881900e+02   2.5863000e+01
   7.2930100e+02   2.6702000e+01
   7.2978300e+02   2.8150000e+01
   7.3026500e+02   2.8436000e+01
   7.3074700e+02   2.7517000e+01
   7.3122900e+02   2.6247000e+01
   7.3171100e+02   2.4650000e+01
   7.3219300e+02   2.3227000e+01
   7.3267600e+02   2.2724000e+01
   7.3315800e+02   2.2394000e+01
   7.3364000e+02   2.1502000e+01
   7.3412200e+02   2.0120000e+01
   7.3460400e+02   1.7649000e+01
   7.3508600e+02   1.1754000e+01
   7.3556800e+02   6.3740000e+00
   7.3605000e+02   7.9770000e+00
   7.3653200e+02   1.8970000e+01
   7.3701500e+02   2.5300000e+01
   7.3749700e+02   2.3501000e+01
   7.3797900e+02   1.7500000e+01
   7.3846100e+02   1.4021000e+01
   7.3894300e+02   1.2868000e+01
   7.3942500e+02   1.3032000e+01
   7.3990700e+02   1.4152000e+01
   7.4039000e+02   1.6229000e+01
   7.4087200e+02   2.0418000e+01
   7.4135400e+02   2.5071000e+01
   7.4183600e+02   2.5876000e+01
   7.4231800e+02   1.6087000e+01
   7.4280000e+02   7.5710000e+00
   7.4328200e+02   4.9490000e+00
   7.4376400e+02   7.4200000e+00
   7.4424600e+02   1.0527000e+01
   7.4472900e+02   1.5161000e+01
   7.4521100e+02   1.8185000e+01
   7.4569300e+02   1.7529000e+01
   7.4617500e+02   1.3949000e+01
   7.4665700e+02   1.2280000e+01
   7.4713900e+02   1.2515000e+01
   7.4762100e+02   1.2685000e+01
   7.4810300e+02   9.8940000e+00
   7.4858500e+02   6.6420000e+00
   7.4906800e+02   6.1500000e+00
   7.4955000e+02   8.2220000e+00
   7.5003200e+02   1.1242000e+01
   7.5051400e+02   1.8114000e+01
   7.5099600e+02   2.3694000e+01
   7.5147800e+02   2.3668000e+01
   7.5196000e+02   1.4368000e+01
   7.5244200e+02   9.0710000e+00
   7.5292400e+02   8.9460000e+00
   7.5340700e+02   1.0956000e+01
   7.5388900e+02   1.2696000e+01
   7.5437100e+02   1.4181000e+01
   7.5485300e+02   1.5080000e+01
   7.5533500e+02   1.5425000e+01
   7.5581700e+02   1.4931000e+01
   7.5629900e+02   1.2536000e+01
   7.5678100e+02   9.2220000e+00
   7.5726300e+02   6.8660000e+00
   7.5774600e+02   6.4380000e+00
   7.5822800e+02   6.1050000e+00
   7.5871000e+02   4.4080000e+00
   7.5919200e+02   2.3520000e+00
   7.5967400e+02   1.4390000e+00
   7.6015600e+02   9.3700000e-01
   7.6063800e+02   3.1530000e+00
   7.6112000e+02   1.0082000e+01
   7.6160300e+02   1.8723000e+01
   7.6208500e+02   2.2420000e+01
   7.6256700e+02   2.0772000e+01
   7.6304900e+02   1.9514000e+01
   7.6353100e+02   2.0754000e+01
   7.6401300e+02   2.2761000e+01
   7.6449500e+02   2.3167000e+01
   7.6497700e+02   2.1917000e+01
   7.6545900e+02   1.8801000e+01
   7.6594200e+02   1.0767000e+01
   7.6642400e+02   3.5550000e+00
   7.6690600e+02   6.7800000e-01
   7.6738800e+02   1.6410000e+00
   7.6787000e+02   3.9890000e+00
   7.6835200e+02   1.0403000e+01
   7.6883400e+02   1.4337000e+01
   7.6931700e+02   1.2820000e+01
   7.6979900e+02   6.8620000e+00
   7.7028100e+02   5.5360000e+00
   7.7076300e+02   9.5650000e+00
   7.7124500e+02   1.3312000e+01
   7.7172700e+02   1.2701000e+01
   7.7220900e+02   9.6810000e+00
   7.7269100e+02   9.1760000e+00
   7.7317300e+02   1.0936000e+01
   7.7365600e+02   1.2303000e+01
   7.7413800e+02   9.4390000e+00
   7.7462000e+02   7.0490000e+00
   7.7510200e+02   1.0969000e+01
   7.7558400e+02   2.2700000e+01
   7.7606600e+02   2.6137000e+01
   7.7654800e+02   1.0554000e+01
   7.7703000e+02   4.6650000e+00
   7.7751300e+02   8.5300000e+00
   7.7799500e+02   8.2900000e-01
   7.7847700e+02   6.8650000e+00
   7.7895900e+02   9.1820000e+00
   7.7944100e+02   1.0118000e+01
   7.7992300e+02   1.1675000e+01
   7.8040500e+02   1.3437000e+01
   7.8088700e+02   1.4585000e+01
   7.8136900e+02   1.5087000e+01
   7.8185200e+02   1.4294000e+01
   7.8233400e+02   9.2400000e+00
   7.8281600e+02   4.0900000e+00
   7.8329800e+02   3.2060000e+00
   7.8378000e+02   1.0831000e+01
   7.8426200e+02   1.4896000e+01
   7.8474400e+02   1.2648000e+01
   7.8522600e+02   8.2210000e+00
   7.8570800e+02   5.4240000e+00
   7.8619100e+02   4.5530000e+00
   7.8667300e+02   2.7870000e+00
   7.8715500e+02   8.7700000e-01
   7.8763700e+02   2.9880000e+00
   7.8811900e+02   4.1290000e+00
   7.8860100e+02   1.6110000e+01
   7.8908300e+02   2.1474000e+01
   7.8956500e+02   1.5317000e+01
   7.9004700e+02   7.5270000e+00
   7.9053000e+02   3.7530000e+00
   7.9101200e+02   2.6840000e+00
   7.9149400e+02   2.7310000e+00
   7.9197600e+02   6.1340000e+00
   7.9245800e+02   7.0610000e+00
   7.9294000e+02   3.8810000e+00
   7.9342200e+02   1.0140000e+00
   7.9390400e+02   3.9360000e+00
   7.9438600e+02   4.8790000e+00
   7.9486900e+02   3.5430000e+00
   7.9535100e+02   1.0460000e+00
   7.9583300e+02   6.1220000e+00
   7.9631500e+02   6.6380000e+00
   7.9679700e+02   4.2620000e+00
   7.9727900e+02   3.1630000e+00
   7.9776100e+02   6.6130000e+00
   7.9824400e+02   9.9330000e+00
   7.9872600e+02   9.2270000e+00
   7.9920800e+02   6.8000000e+00
   7.9969000e+02   8.3510000e+00
   8.0017200e+02   2.0607000e+01
   8.0065400e+02   2.6630000e+01
   8.0113600e+02   2.1054000e+01
   8.0161800e+02   8.8030000e+00
   8.0210000e+02   3.0000000e+00
   8.0258300e+02   3.6410000e+00
   8.0306500e+02   5.5670000e+00
   8.0354700e+02   8.1850000e+00
   8.0402900e+02   9.5240000e+00
   8.0451100e+02   4.9440000e+00
   8.0499300e+02   3.5750000e+00
   8.0547500e+02   1.0086000e+01
   8.0595700e+02   1.3525000e+01
   8.0644000e+02   1.2895000e+01
   8.0692200e+02   4.5080000e+00
   8.0740400e+02   9.2670000e+00
   8.0788600e+02   1.6629000e+01
   8.0836800e+02   1.5117000e+01
   8.0885000e+02   1.1871000e+01
   8.0933200e+02   7.7700000e+00
   8.0981400e+02   4.0950000e+00
   8.1029600e+02   7.0070000e+00
   8.1077900e+02   1.5846000e+01
   8.1126100e+02   2.2693000e+01
   8.1174300e+02   2.1837000e+01
   8.1222500e+02   1.7794000e+01
   8.1270700e+02   1.4983000e+01
   8.1318900e+02   1.3229000e+01
   8.1367100e+02   1.1454000e+01
   8.1415300e+02   7.2200000e+00
   8.1463500e+02   5.0180000e+00
   8.1511800e+02   8.2040000e+00
   8.1560000e+02   1.5646000e+01
   8.1608200e+02   1.8177000e+01
   8.1656400e+02   1.4039000e+01
   8.1704600e+02   1.0718000e+01
   8.1752800e+02   1.1832000e+01
   8.1801000e+02   1.6185000e+01
   8.1849200e+02   2.2137000e+01
   8.1897400e+02   2.8925000e+01
   8.1945700e+02   3.1040000e+01
   8.1993900e+02   1.8835000e+01
   8.2042100e+02   5.4640000e+00
   8.2090300e+02   2.8480000e+00
   8.2138500e+02   1.0279000e+01
   8.2186700e+02   1.5225000e+01
   8.2234900e+02   1.2662000e+01
   8.2283100e+02   9.8650000e+00
   8.2331400e+02   9.2610000e+00
   8.2379600e+02   1.0644000e+01
   8.2427800e+02   1.1766000e+01
   8.2476000e+02   1.2607000e+01
   8.2524200e+02   1.2833000e+01
   8.2572400e+02   1.0503000e+01
   8.2620600e+02   7.9770000e+00
   8.2668800e+02   1.1349000e+01
   8.2717000e+02   1.9663000e+01
   8.2765300e+02   2.5605000e+01
   8.2813500e+02   2.3969000e+01
   8.2861700e+02   1.9739000e+01
   8.2909900e+02   1.5051000e+01
   8.2958100e+02   1.0080000e+01
   8.3006300e+02   6.0290000e+00
   8.3054500e+02   1.5450000e+00
   8.3102800e+02   6.9500000e-01
   8.3151000e+02   7.3030000e+00
   8.3199200e+02   1.9699000e+01
   8.3247400e+02   2.6165000e+01
   8.3295600e+02   2.6833000e+01
   8.3343800e+02   2.5215000e+01
   8.3392000e+02   2.0773000e+01
   8.3440200e+02   1.7182000e+01
   8.3488400e+02   1.9831000e+01
   8.3536700e+02   2.8307000e+01
   8.3584900e+02   3.4020000e+01
   8.3633100e+02   3.2337000e+01
   8.3681300e+02   2.7194000e+01
   8.3729500e+02   1.8941000e+01
   8.3777700e+02   7.7150000e+00
   8.3825900e+02   2.4390000e+00
   8.3874100e+02   4.0200000e+00
   8.3922300e+02   7.5160000e+00
   8.3970600e+02   1.0323000e+01
   8.4018800e+02   1.2836000e+01
   8.4067000e+02   1.6384000e+01
   8.4115200e+02   2.0865000e+01
   8.4163400e+02   2.5357000e+01
   8.4211600e+02   3.1811000e+01
   8.4259800e+02   3.6025000e+01
   8.4308000e+02   3.3361000e+01
   8.4356200e+02   2.3667000e+01
   8.4404500e+02   1.8661000e+01
   8.4452700e+02   2.3237000e+01
   8.4500900e+02   2.5357000e+01
   8.4549100e+02   1.7785000e+01
   8.4597300e+02   3.2770000e+00
   8.4645500e+02   1.3810000e+00
   8.4693700e+02   1.1921000e+01
   8.4741900e+02   2.1017000e+01
   8.4790200e+02   1.6150000e+01
   8.4838400e+02   7.1710000e+00
   8.4886600e+02   6.3360000e+00
   8.4934800e+02   1.2767000e+01
   8.4983000e+02   1.8086000e+01
   8.5031200e+02   1.8863000e+01
   8.5079400e+02   1.8001000e+01
   8.5127600e+02   1.6378000e+01
   8.5175800e+02   1.4026000e+01
   8.5224100e+02   1.0813000e+01
   8.5272300e+02   6.2720000e+00
   8.5320500e+02   3.8940000e+00
   8.5368700e+02   6.2030000e+00
   8.5416900e+02   1.1090000e+01
   8.5465100e+02   1.3207000e+01
   8.5513300e+02   1.2994000e+01
   8.5561500e+02   1.2885000e+01
   8.5609700e+02   1.5271000e+01
   8.5658000e+02   1.7224000e+01
   8.5706200e+02   1.6528000e+01
   8.5754400e+02   1.3490000e+01
   8.5802600e+02   1.1205000e+01
   8.5850800e+02   9.6130000e+00
   8.5899000e+02   9.2050000e+00
   8.5947200e+02   1.0442000e+01
   8.5995500e+02   1.2850000e+01
   8.6043700e+02   1.5318000e+01
   8.6091900e+02   1.7692000e+01
   8.6140100e+02   1.8134000e+01
   8.6188300e+02   1.4014000e+01
   8.6236500e+02   8.7480000e+00
   8.6284700e+02   3.4110000e+00
   8.6332900e+02   8.3600000e-01
   8.6381100e+02   0.0000000e+00
   8.6429400e+02   1.8096000e+01
   8.6477600e+02   2.9510000e+01
   8.6525800e+02   2.4163000e+01
   8.6574000e+02   7.7740000e+00
   8.6622200e+02   9.9300000e-01
   8.6670400e+02   4.9350000e+00
   8.6718600e+02   9.6470000e+00
   8.6766800e+02   1.2411000e+01
   8.6815100e+02   1.3271000e+01
   8.6863300e+02   1.0499000e+01
   8.6911500e+02   5.7850000e+00
   8.6959700e+02   3.7650000e+00
   8.7007900e+02   9.8950000e+00
   8.7056100e+02   1.5413000e+01
   8.7104300e+02   1.6929000e+01
   8.7152500e+02   1.5140000e+01
   8.7200700e+02   1.1778000e+01
   8.7249000e+02   4.8220000e+00
   8.7297200e+02   2.0550000e+00
   8.7345400e+02   6.4910000e+00
   8.7393600e+02   1.3681000e+01
   8.7441800e+02   1.3607000e+01
   8.7490000e+02   8.4270000e+00
   8.7538200e+02   7.3410000e+00
   8.7586400e+02   1.5845000e+01
   8.7634600e+02   2.4763000e+01
   8.7682900e+02   2.6713000e+01
   8.7731100e+02   2.5648000e+01
   8.7779300e+02   2.7140000e+01
   8.7827500e+02   3.2643000e+01
   8.7875700e+02   3.4049000e+01
   8.7923900e+02   2.9739000e+01
   8.7972100e+02   2.3580000e+01
   8.8020300e+02   2.1793000e+01
   8.8068500e+02   2.4075000e+01
   8.8116800e+02   2.4123000e+01
   8.8165000e+02   1.9905000e+01
   8.8213200e+02   1.6747000e+01
   8.8261400e+02   2.3348000e+01
   8.8309600e+02   3.3244000e+01
   8.8357800e+02   3.7069000e+01
   8.8406000e+02   2.7651000e+01
   8.8454200e+02   2.2456000e+01
   8.8502400e+02   2.9279000e+01
   8.8550700e+02   3.8404000e+01
   8.8598900e+02   4.1046000e+01
   8.8647100e+02   3.5893000e+01
   8.8695300e+02   3.4458000e+01
   8.8743500e+02   3.7856000e+01
   8.8791700e+02   4.2194000e+01
   8.8839900e+02   4.4702000e+01
   8.8888100e+02   4.4964000e+01
   8.8936400e+02   4.0688000e+01
   8.8984600e+02   3.0396000e+01
   8.9032800e+02   2.4608000e+01
   8.9081000e+02   3.3727000e+01
   8.9129200e+02   4.4328000e+01
   8.9177400e+02   4.6089000e+01
   8.9225600e+02   3.6330000e+01
   8.9273800e+02   3.4026000e+01
   8.9322100e+02   4.1291000e+01
   8.9370300e+02   4.7878000e+01
   8.9418500e+02   4.3777000e+01
   8.9466700e+02   3.3608000e+01
   8.9514900e+02   2.8611000e+01
   8.9563100e+02   2.9101000e+01
   8.9611300e+02   3.2079000e+01
   8.9659500e+02   3.9548000e+01
   8.9707800e+02   4.5641000e+01
   8.9756000e+02   4.5154000e+01
   8.9804200e+02   3.7841000e+01
   8.9852400e+02   3.5516000e+01
   8.9900600e+02   4.0202000e+01
   8.9948800e+02   4.5166000e+01
   8.9997000e+02   4.7098000e+01
   9.0045200e+02   4.7136000e+01
   9.0093400e+02   5.0000000e+01
   9.0141700e+02   5.5069000e+01
   9.0189900e+02   5.8559000e+01
   9.0238100e+02   5.5636000e+01
   9.0286300e+02   5.2747000e+01
   9.0334500e+02   5.6857000e+01
   9.0382700e+02   6.5402000e+01
   9.0430900e+02   6.6587000e+01
   9.0479100e+02   5.3194000e+01
   9.0527300e+02   4.3930000e+01
   9.0575600e+02   4.4098000e+01
   9.0623800e+02   4.9964000e+01
   9.0672000e+02   5.2381000e+01
   9.0720200e+02   5.1810000e+01
   9.0768400e+02   5.1794000e+01
   9.0816600e+02   5.3230000e+01
   9.0864800e+02   5.6265000e+01
   9.0913000e+02   6.3570000e+01
   9.0961200e+02   7.1941000e+01
   9.1009500e+02   7.5985000e+01
   9.1057700e+02   7.1218000e+01
   9.1105900e+02   6.6328000e+01
   9.1154100e+02   6.1638000e+01
   9.1202300e+02   5.7487000e+01
   9.1250500e+02   5.3805000e+01
   9.1298700e+02   5.0678000e+01
   9.1346900e+02   5.0099000e+01
   9.1395100e+02   5.2759000e+01
   9.1443400e+02   5.6136000e+01
   9.1491600e+02   5.7319000e+01
   9.1539800e+02   5.7957000e+01
   9.1588000e+02   6.0884000e+01
   9.1636200e+02   6.9354000e+01
   9.1684400e+02   7.1887000e+01
   9.1732600e+02   6.0145000e+01
   9.1780800e+02   4.9154000e+01
   9.1829100e+02   5.2319000e+01
   9.1877300e+02   7.0858000e+01
   9.1925500e+02   7.5902000e+01
   9.1973700e+02   6.6404000e+01
   9.2021900e+02   5.5461000e+01
   9.2070100e+02   5.3652000e+01
   9.2118300e+02   5.6566000e+01
   9.2166600e+02   4.0742000e+01
   9.2214800e+02   6.5270000e+00
   9.2263000e+02   4.0544000e+01
   9.2311200e+02   5.2809000e+01
   9.2359400e+02   4.4026000e+01
   9.2407600e+02   1.5406000e+01
   9.2455800e+02   3.5664000e+01
   9.2504000e+02   4.6692000e+01
   9.2552200e+02   5.0195000e+01
   9.2600500e+02   5.1473000e+01
   9.2648700e+02   4.4054000e+01
   9.2696900e+02   3.5188000e+01
   9.2745100e+02   3.4413000e+01
   9.2793300e+02   3.9645000e+01
   9.2841500e+02   4.4446000e+01
   9.2889700e+02   4.7102000e+01
   9.2937900e+02   4.8331000e+01
   9.2986200e+02   4.9080000e+01
   9.3034400e+02   4.8295000e+01
   9.3082600e+02   4.1542000e+01
   9.3130800e+02   2.8475000e+01
   9.3179000e+02   2.3037000e+01
   9.3227200e+02   3.1011000e+01
   9.3275400e+02   4.1773000e+01
   9.3323600e+02   4.4619000e+01
   9.3371800e+02   3.9709000e+01
   9.3420100e+02   2.5598000e+01
   9.3468300e+02   1.2471000e+01
   9.3516500e+02   3.2464000e+01
   9.3564700e+02   8.8480000e+00
   9.3612900e+02   2.4874000e+01
   9.3661100e+02   3.8872000e+01
   9.3709300e+02   3.0749000e+01
   9.3757500e+02   2.5519000e+01
   9.3805700e+02   2.5141000e+01
   9.3854000e+02   2.5606000e+01
   9.3902200e+02   2.2100000e+01
   9.3950400e+02   1.7600000e+01
   9.3998600e+02   1.6492000e+01
   9.4046800e+02   1.9517000e+01
   9.4095000e+02   2.2149000e+01
   9.4143200e+02   2.4684000e+01
   9.4191400e+02   2.4740000e+01
   9.4239600e+02   2.0395000e+01
   9.4287900e+02   1.2230000e+01
   9.4336100e+02   1.0118000e+01
   9.4384300e+02   1.4354000e+01
   9.4432500e+02   1.7762000e+01
   9.4480700e+02   1.3124000e+01
   9.4528900e+02   7.1850000e+00
   9.4577100e+02   1.1333000e+01
   9.4625300e+02   2.1964000e+01
   9.4673500e+02   2.6670000e+01
   9.4721800e+02   1.0611000e+01
   9.4770000e+02   1.4170000e+00
   9.4818200e+02   9.3580000e+00
   9.4866400e+02   2.6093000e+01
   9.4914600e+02   3.1001000e+01
   9.4962800e+02   2.3956000e+01
   9.5011000e+02   1.7551000e+01
   9.5059300e+02   1.4702000e+01
   9.5107500e+02   1.4529000e+01
   9.5155700e+02   1.9562000e+01
   9.5203900e+02   2.5369000e+01
   9.5252100e+02   2.4806000e+01
   9.5300300e+02   9.3500000e+00
   9.5348500e+02   5.3500000e-01
   9.5396700e+02   3.6350000e+00
   9.5444900e+02   1.0940000e+01
   9.5493200e+02   1.7116000e+01
   9.5541400e+02   2.2138000e+01
   9.5589600e+02   2.1400000e+01
   9.5637800e+02   1.4356000e+01
   9.5686000e+02   6.8430000e+00
   9.5734200e+02   1.9270000e+00
   9.5782400e+02   1.4300000e-01
   9.5830600e+02   3.4840000e+00
   9.5878900e+02   1.2191000e+01
   9.5927100e+02   1.8372000e+01
   9.5975300e+02   2.0902000e+01
   9.6023500e+02   2.0196000e+01
   9.6071700e+02   1.4773000e+01
   9.6119900e+02   6.4610000e+00
   9.6168100e+02   4.8460000e+00
   9.6216300e+02   9.2500000e+00
   9.6264500e+02   1.2994000e+01
   9.6312800e+02   1.0884000e+01
   9.6361000e+02   8.5950000e+00
   9.6409200e+02   1.1689000e+01
   9.6457400e+02   1.8009000e+01
   9.6505600e+02   2.3265000e+01
   9.6553800e+02   2.8958000e+01
   9.6602000e+02   2.9454000e+01
   9.6650200e+02   2.2510000e+01
   9.6698400e+02   1.2503000e+01
   9.6746700e+02   4.1610000e+00
   9.6794900e+02   1.9410000e+00
   9.6843100e+02   1.4020000e+00
   9.6891300e+02   7.8760000e+00
   9.6939500e+02   1.6159000e+01
   9.6987700e+02   1.3806000e+01
   9.7035900e+02   8.7890000e+00
   9.7084100e+02   9.2320000e+00
   9.7132300e+02   1.8376000e+01
   9.7180600e+02   2.1901000e+01
   9.7228800e+02   1.7685000e+01
   9.7277000e+02   1.3351000e+01
   9.7325200e+02   1.6017000e+01
   9.7373400e+02   2.2392000e+01
   9.7421600e+02   1.9854000e+01
   9.7469800e+02   9.9860000e+00
   9.7518000e+02   3.5710000e+00
   9.7566200e+02   1.2566000e+01
   9.7614500e+02   2.0786000e+01
   9.7662700e+02   1.6491000e+01
   9.7710900e+02   4.3050000e+00
   9.7759100e+02   2.5740000e+00
   9.7807300e+02   1.4600000e+01
   9.7855500e+02   2.3225000e+01
   9.7903700e+02   2.4166000e+01
   9.7951900e+02   2.0118000e+01
   9.8000200e+02   1.1107000e+01
   9.8048400e+02   2.6200000e-01
   9.8096600e+02   3.2600000e+00
   9.8144800e+02   6.9890000e+00
   9.8193000e+02   1.6239000e+01
   9.8241200e+02   1.7596000e+01
   9.8289400e+02   1.7084000e+01
   9.8337600e+02   2.0431000e+01
   9.8385900e+02   2.8816000e+01
   9.8434100e+02   3.2291000e+01
   9.8482300e+02   3.0456000e+01
   9.8530500e+02   2.5940000e+01
   9.8578700e+02   1.8161000e+01
   9.8626900e+02   1.0534000e+01
   9.8675100e+02   8.9720000e+00
   9.8723300e+02   1.3071000e+01
   9.8771600e+02   1.3970000e+01
   9.8819800e+02   3.0140000e+00
   9.8868000e+02   4.3490000e+00
   9.8916200e+02   3.4160000e+00
   9.8964400e+02   4.3770000e+00
   9.9012600e+02   1.7422000e+01
   9.9060800e+02   3.4523000e+01
   9.9109000e+02   4.2426000e+01
   9.9157200e+02   3.1624000e+01
   9.9205500e+02   1.7233000e+01
   9.9253700e+02   1.1678000e+01
   9.9301900e+02   9.9400000e+00
   9.9350100e+02   7.9790000e+00
   9.9398300e+02   6.3700000e-01
   9.9446500e+02   3.6120000e+00
   9.9494700e+02   3.6100000e-01
   9.9542900e+02   7.8190000e+00
   9.9591100e+02   1.8088000e+01
   9.9639400e+02   2.9006000e+01
   9.9687600e+02   3.1866000e+01
   9.9735800e+02   2.5909000e+01
   9.9784000e+02   1.7258000e+01
   9.9832200e+02   3.3550000e+00
   9.9880400e+02   6.5640000e+00
   9.9928600e+02   3.0070000e+00
   9.9976800e+02   1.2402000e+01
   1.0002500e+03   1.9695000e+01
   1.0007330e+03   1.6800000e+01
   1.0012150e+03   1.5004000e+01
   1.0016970e+03   2.0789000e+01
   1.0021790e+03   2.7832000e+01
   1.0026610e+03   2.2236000e+01
   1.0031430e+03   9.2790000e+00
   1.0036250e+03   1.6700000e+00
   1.0041070e+03   8.4160000e+00
   1.0045900e+03   1.5594000e+01
   1.0050720e+03   2.2838000e+01
   1.0055540e+03   2.6778000e+01
   1.0060360e+03   2.1542000e+01
   1.0065180e+03   6.5350000e+00
   1.0070000e+03   7.6300000e-01
   1.0074820e+03   1.6010000e+00
   1.0079640e+03   5.7520000e+00
   1.0084460e+03   4.3960000e+00
   1.0089290e+03   1.2300000e+00
   1.0094110e+03   5.2000000e-02
   1.0098930e+03   1.2610000e+00
   1.0103750e+03   2.5070000e+00
   1.0108570e+03   3.8270000e+00
   1.0113390e+03   4.5200000e+00
   1.0118210e+03   4.0420000e+00
   1.0123030e+03   2.9440000e+00
   1.0127860e+03   2.9240000e+00
   1.0132680e+03   3.8860000e+00
   1.0137500e+03   5.3400000e+00
   1.0142320e+03   6.9530000e+00
   1.0147140e+03   9.2080000e+00
   1.0151960e+03   1.3821000e+01
   1.0156780e+03   1.8579000e+01
   1.0161600e+03   2.0310000e+01
   1.0166420e+03   1.8021000e+01
   1.0171250e+03   1.5530000e+01
   1.0176070e+03   1.2941000e+01
   1.0180890e+03   1.0528000e+01
   1.0185710e+03   8.0770000e+00
   1.0190530e+03   6.1630000e+00
   1.0195350e+03   6.6660000e+00
   1.0200170e+03   9.6470000e+00
   1.0204990e+03   1.0484000e+01
   1.0209820e+03   3.7460000e+00
   1.0214640e+03   1.3170000e+00
   1.0219460e+03   3.7700000e-01
   1.0224280e+03   4.9100000e+00
   1.0229100e+03   7.1320000e+00
   1.0233920e+03   6.4390000e+00
   1.0238740e+03   5.9330000e+00
   1.0243560e+03   6.4570000e+00
   1.0248390e+03   8.2330000e+00
   1.0253210e+03   1.3566000e+01
   1.0258030e+03   1.9383000e+01
   1.0262850e+03   2.1503000e+01
   1.0267670e+03   1.6598000e+01
   1.0272490e+03   1.2541000e+01
   1.0277310e+03   9.7330000e+00
   1.0282130e+03   7.0350000e+00
   1.0286950e+03   2.5930000e+00
   1.0291770e+03   2.5190000e+00
   1.0296600e+03   4.9120000e+00
   1.0301420e+03   4.5020000e+00
   1.0306240e+03   2.6730000e+00
   1.0311060e+03   4.2300000e-01
   1.0315880e+03   4.1960000e+00
   1.0320700e+03   9.5020000e+00
   1.0325520e+03   1.5228000e+01
   1.0330340e+03   1.6840000e+01
   1.0335170e+03   1.4057000e+01
   1.0339990e+03   9.7790000e+00
   1.0344810e+03   3.7970000e+00
   1.0349630e+03   9.2100000e-01
   1.0354450e+03   1.7720000e+00
   1.0359270e+03   7.1500000e+00
   1.0364090e+03   7.6880000e+00
   1.0368910e+03   3.3860000e+00
   1.0373740e+03   7.5200000e+00
   1.0378560e+03   1.7000000e-02
   1.0383380e+03   8.8800000e+00
   1.0388200e+03   1.0398000e+01
   1.0393020e+03   6.7210000e+00
   1.0397840e+03   7.5430000e+00
   1.0402660e+03   1.2505000e+01
   1.0407480e+03   1.7141000e+01
   1.0412300e+03   2.0880000e+01
   1.0417130e+03   2.1346000e+01
   1.0421950e+03   1.2403000e+01
   1.0426770e+03   5.4000000e-01
   1.0431590e+03   1.6300000e-01
   1.0436410e+03   1.7533000e+01
   1.0441230e+03   2.7556000e+01
   1.0446050e+03   2.3520000e+01
   1.0450870e+03   1.5061000e+01
   1.0455690e+03   1.4602000e+01
   1.0460520e+03   1.7828000e+01
   1.0465340e+03   1.7641000e+01
   1.0470160e+03   1.2193000e+01
   1.0474980e+03   9.1770000e+00
   1.0479800e+03   1.0747000e+01
   1.0484620e+03   1.3341000e+01
   1.0489440e+03   1.6220000e+01
   1.0494260e+03   1.8274000e+01
   1.0499090e+03   1.5675000e+01
   1.0503910e+03   9.9710000e+00
   1.0508730e+03   6.6530000e+00
   1.0513550e+03   1.0363000e+01
   1.0518370e+03   1.5418000e+01
   1.0523190e+03   1.9856000e+01
   1.0528010e+03   2.3162000e+01
   1.0532830e+03   2.3265000e+01
   1.0537660e+03   1.8708000e+01
   1.0542480e+03   1.7357000e+01
   1.0547300e+03   2.0648000e+01
   1.0552120e+03   2.4223000e+01
   1.0556940e+03   2.2405000e+01
   1.0561760e+03   1.8425000e+01
   1.0566580e+03   1.6417000e+01
   1.0571400e+03   1.7573000e+01
   1.0576220e+03   2.0308000e+01
   1.0581040e+03   2.7172000e+01
   1.0585870e+03   3.1105000e+01
   1.0590690e+03   2.9190000e+01
   1.0595510e+03   2.3074000e+01
   1.0600330e+03   1.6168000e+01
   1.0605150e+03   9.2450000e+00
   1.0609970e+03   6.9160000e+00
   1.0614790e+03   1.3257000e+01
   1.0619610e+03   1.9589000e+01
   1.0624440e+03   2.0069000e+01
   1.0629260e+03   1.7956000e+01
   1.0634080e+03   1.7104000e+01
   1.0638900e+03   1.8314000e+01
   1.0643720e+03   1.6993000e+01
   1.0648540e+03   1.2397000e+01
   1.0653360e+03   1.0178000e+01
   1.0658180e+03   1.8586000e+01
   1.0663010e+03   2.9283000e+01
   1.0667830e+03   2.9375000e+01
   1.0672650e+03   2.1201000e+01
   1.0677470e+03   1.7392000e+01
   1.0682290e+03   2.6186000e+01
   1.0687110e+03   3.2836000e+01
   1.0691930e+03   3.5241000e+01
   1.0696750e+03   3.4139000e+01
   1.0701570e+03   2.8622000e+01
   1.0706400e+03   2.0521000e+01
   1.0711220e+03   1.7547000e+01
   1.0716040e+03   2.1910000e+01
   1.0720860e+03   2.5566000e+01
   1.0725680e+03   2.2872000e+01
   1.0730500e+03   1.8806000e+01
   1.0735320e+03   1.6812000e+01
   1.0740140e+03   1.6795000e+01
   1.0744960e+03   1.5890000e+01
   1.0749790e+03   1.4016000e+01
   1.0754610e+03   1.2763000e+01
   1.0759430e+03   1.2259000e+01
   1.0764250e+03   1.3510000e+01
   1.0769070e+03   1.9387000e+01
   1.0773890e+03   2.7299000e+01
   1.0778710e+03   3.2809000e+01
   1.0783530e+03   3.3947000e+01
   1.0788360e+03   3.4310000e+01
   1.0793180e+03   3.3747000e+01
   1.0798000e+03   3.2804000e+01
   1.0802820e+03   3.1973000e+01
   1.0807640e+03   3.0998000e+01
   1.0812460e+03   2.8688000e+01
   1.0817280e+03   2.5278000e+01
   1.0822100e+03   2.3432000e+01
   1.0826930e+03   2.6818000e+01
   1.0831750e+03   2.9053000e+01
   1.0836570e+03   2.7156000e+01
   1.0841390e+03   2.3240000e+01
   1.0846210e+03   2.2714000e+01
   1.0851030e+03   2.5271000e+01
   1.0855850e+03   2.7011000e+01
   1.0860670e+03   2.7170000e+01
   1.0865490e+03   2.5814000e+01
   1.0870320e+03   2.0583000e+01
   1.0875140e+03   1.5310000e+01
   1.0879960e+03   1.4147000e+01
   1.0884780e+03   1.7653000e+01
   1.0889600e+03   2.2307000e+01
   1.0894420e+03   2.8756000e+01
   1.0899240e+03   3.2207000e+01
   1.0904060e+03   2.8102000e+01
   1.0908890e+03   2.1786000e+01
   1.0913710e+03   2.1937000e+01
   1.0918530e+03   2.6028000e+01
   1.0923350e+03   2.8749000e+01
   1.0928170e+03   2.6617000e+01
   1.0932990e+03   2.5979000e+01
   1.0937810e+03   2.8438000e+01
   1.0942630e+03   3.0485000e+01
   1.0947450e+03   2.7145000e+01
   1.0952280e+03   2.0234000e+01
   1.0957100e+03   1.7409000e+01
   1.0961920e+03   1.8465000e+01
   1.0966740e+03   2.1299000e+01
   1.0971560e+03   2.7642000e+01
   1.0976380e+03   3.2385000e+01
   1.0981200e+03   3.2571000e+01
   1.0986020e+03   2.9788000e+01
   1.0990840e+03   2.7017000e+01
   1.0995670e+03   2.4262000e+01
   1.1000490e+03   2.2695000e+01
   1.1005310e+03   2.2708000e+01
   1.1010130e+03   2.3065000e+01
   1.1014950e+03   2.2190000e+01
   1.1019770e+03   2.1356000e+01
   1.1024590e+03   2.3491000e+01
   1.1029410e+03   3.1018000e+01
   1.1034240e+03   3.0725000e+01
   1.1039060e+03   1.7329000e+01
   1.1043880e+03   5.8140000e+00
   1.1048700e+03   5.9850000e+00
   1.1053520e+03   1.0540000e+01
   1.1058340e+03   2.6920000e+00
   1.1063160e+03   8.8960000e+00
   1.1067980e+03   6.6740000e+00
   1.1072810e+03   3.1676000e+01
   1.1077630e+03   5.4508000e+01
   1.1082450e+03   5.2378000e+01
   1.1087270e+03   4.3585000e+01
   1.1092090e+03   4.4550000e+01
   1.1096910e+03   5.1870000e+01
   1.1101730e+03   5.1921000e+01
   1.1106550e+03   4.5287000e+01
   1.1111370e+03   3.8069000e+01
   1.1116200e+03   3.3814000e+01
   1.1121020e+03   2.8995000e+01
   1.1125840e+03   1.9138000e+01
   1.1130660e+03   9.6660000e+00
   1.1135480e+03   1.0821000e+01
   1.1140300e+03   2.2245000e+01
   1.1145120e+03   3.2780000e+01
   1.1149940e+03   4.1216000e+01
   1.1154760e+03   4.6103000e+01
   1.1159590e+03   4.2711000e+01
   1.1164410e+03   3.8172000e+01
   1.1169230e+03   4.0099000e+01
   1.1174050e+03   4.7672000e+01
   1.1178870e+03   4.6413000e+01
   1.1183690e+03   3.4161000e+01
   1.1188510e+03   2.5786000e+01
   1.1193330e+03   2.7112000e+01
   1.1198160e+03   3.2352000e+01
   1.1202980e+03   3.4784000e+01
   1.1207800e+03   3.5884000e+01
   1.1212620e+03   3.7980000e+01
   1.1217440e+03   4.2562000e+01
   1.1222260e+03   4.4800000e+01
   1.1227080e+03   4.4051000e+01
   1.1231900e+03   4.2177000e+01
   1.1236720e+03   3.9766000e+01
   1.1241550e+03   3.7253000e+01
   1.1246370e+03   3.5714000e+01
   1.1251190e+03   3.4884000e+01
   1.1256010e+03   3.3952000e+01
   1.1260830e+03   3.1927000e+01
   1.1265650e+03   3.0689000e+01
   1.1270470e+03   3.0339000e+01
   1.1275290e+03   3.1078000e+01
   1.1280110e+03   3.3269000e+01
   1.1284940e+03   3.6786000e+01
   1.1289760e+03   4.1294000e+01
   1.1294580e+03   4.6665000e+01
   1.1299400e+03   5.1421000e+01
   1.1304220e+03   5.6613000e+01
   1.1309040e+03   5.8836000e+01
   1.1313860e+03   5.4490000e+01
   1.1318680e+03   4.6717000e+01
   1.1323510e+03   4.1594000e+01
   1.1328330e+03   3.9125000e+01
   1.1333150e+03   3.8354000e+01
   1.1337970e+03   3.9188000e+01
   1.1342790e+03   4.1247000e+01
   1.1347610e+03   4.6111000e+01
   1.1352430e+03   5.0583000e+01
   1.1357250e+03   5.1478000e+01
   1.1362080e+03   4.8756000e+01
   1.1366900e+03   4.6302000e+01
   1.1371720e+03   4.4293000e+01
   1.1376540e+03   4.0824000e+01
   1.1381360e+03   3.3155000e+01
   1.1386180e+03   2.7865000e+01
   1.1391000e+03   3.7264000e+01
   1.1395820e+03   5.2655000e+01
   1.1400640e+03   6.2070000e+01
   1.1405470e+03   6.1525000e+01
   1.1410290e+03   5.7399000e+01
   1.1415110e+03   4.7087000e+01
   1.1419930e+03   4.0478000e+01
   1.1424750e+03   4.6899000e+01
   1.1429570e+03   5.9013000e+01
   1.1434390e+03   6.2278000e+01
   1.1439210e+03   5.9145000e+01
   1.1444030e+03   5.5344000e+01
   1.1448860e+03   5.1745000e+01
   1.1453680e+03   4.9494000e+01
   1.1458500e+03   4.9089000e+01
   1.1463320e+03   4.9348000e+01
   1.1468140e+03   4.8499000e+01
   1.1472960e+03   4.7419000e+01
   1.1477780e+03   4.9874000e+01
   1.1482600e+03   5.5470000e+01
   1.1487430e+03   6.0226000e+01
   1.1492250e+03   6.2432000e+01
   1.1497070e+03   6.2943000e+01
   1.1501890e+03   6.1920000e+01
   1.1506710e+03   5.9746000e+01
   1.1511530e+03   5.6036000e+01
   1.1516350e+03   5.1401000e+01
   1.1521170e+03   5.0565000e+01
   1.1525990e+03   5.4359000e+01
   1.1530820e+03   5.7687000e+01
   1.1535640e+03   5.8216000e+01
   1.1540460e+03   5.5160000e+01
   1.1545280e+03   5.1333000e+01
   1.1550100e+03   4.6128000e+01
   1.1554920e+03   4.4299000e+01
   1.1559740e+03   4.5780000e+01
   1.1564560e+03   4.9225000e+01
   1.1569380e+03   5.6022000e+01
   1.1574210e+03   5.7917000e+01
   1.1579030e+03   4.2558000e+01
   1.1583850e+03   2.3125000e+01
   1.1588670e+03   1.4838000e+01
   1.1593490e+03   1.8188000e+01
   1.1598310e+03   6.5990000e+00
   1.1603130e+03   2.2603000e+01
   1.1607950e+03   3.6498000e+01
   1.1612780e+03   1.2717000e+01
   1.1617600e+03   2.0752000e+01
   1.1622420e+03   3.5949000e+01
   1.1627240e+03   4.0399000e+01
   1.1632060e+03   4.5115000e+01
   1.1636880e+03   5.3214000e+01
   1.1641700e+03   5.5930000e+01
   1.1646520e+03   5.2307000e+01
   1.1651350e+03   4.8069000e+01
   1.1656170e+03   4.7466000e+01
   1.1660990e+03   4.8424000e+01
   1.1665810e+03   4.7591000e+01
   1.1670630e+03   4.6036000e+01
   1.1675450e+03   4.6624000e+01
   1.1680270e+03   5.2851000e+01
   1.1685090e+03   5.5043000e+01
   1.1689910e+03   5.1109000e+01
   1.1694740e+03   4.7796000e+01
   1.1699560e+03   5.6288000e+01
   1.1704380e+03   6.7728000e+01
   1.1709200e+03   6.3055000e+01
   1.1714020e+03   4.4949000e+01
   1.1718840e+03   3.3488000e+01
   1.1723660e+03   4.1791000e+01
   1.1728480e+03   4.6357000e+01
   1.1733300e+03   4.2455000e+01
   1.1738130e+03   3.5844000e+01
   1.1742950e+03   3.4449000e+01
   1.1747770e+03   3.6663000e+01
   1.1752590e+03   3.8893000e+01
   1.1757410e+03   4.0741000e+01
   1.1762230e+03   4.3085000e+01
   1.1767050e+03   4.8529000e+01
   1.1771870e+03   5.1311000e+01
   1.1776700e+03   4.8627000e+01
   1.1781520e+03   4.3765000e+01
   1.1786340e+03   4.4951000e+01
   1.1791160e+03   4.9881000e+01
   1.1795980e+03   5.1107000e+01
   1.1800800e+03   4.6045000e+01
   1.1805620e+03   4.1615000e+01
   1.1810440e+03   3.0467000e+01
   1.1815260e+03   2.8073000e+01
   1.1820090e+03   2.4347000e+01
   1.1824910e+03   1.8273000e+01
   1.1829730e+03   2.2999000e+01
   1.1834550e+03   3.5266000e+01
   1.1839370e+03   4.0608000e+01
   1.1844190e+03   3.1353000e+01
   1.1849010e+03   2.2157000e+01
   1.1853830e+03   1.8913000e+01
   1.1858650e+03   1.9283000e+01
   1.1863480e+03   2.2829000e+01
   1.1868300e+03   2.8863000e+01
   1.1873120e+03   3.0878000e+01
   1.1877940e+03   2.9395000e+01
   1.1882760e+03   2.7860000e+01
   1.1887580e+03   2.8893000e+01
   1.1892400e+03   2.8777000e+01
   1.1897220e+03   2.3239000e+01
   1.1902050e+03   1.7481000e+01
   1.1906870e+03   1.7830000e+01
   1.1911690e+03   2.4814000e+01
   1.1916510e+03   2.2987000e+01
   1.1921330e+03   1.2509000e+01
   1.1926150e+03   3.7980000e+00
   1.1930970e+03   4.1780000e+00
   1.1935790e+03   7.1300000e+00
   1.1940620e+03   1.0561000e+01
   1.1945440e+03   1.3563000e+01
   1.1950260e+03   1.4946000e+01
   1.1955080e+03   1.4712000e+01
   1.1959900e+03   1.3548000e+01
   1.1964720e+03   1.1470000e+01
   1.1969540e+03   8.7370000e+00
   1.1974360e+03   4.3720000e+00
   1.1979180e+03   7.3500000e-01
   1.1984010e+03   5.1100000e-01
   1.1988830e+03   9.9000000e-02
   1.1993650e+03   2.0230000e+00
   1.1998470e+03   4.3360000e+00
   1.2003290e+03   3.9440000e+00
   1.2008110e+03   0.0000000e+00
   1.5000000e+03   0.0000000e+00
