   1.0000000e+02   0.0000000e+00
   1.5052830e+02   0.0000000e+00
   1.5101050e+02   1.3755890e+00
   1.5149260e+02   1.0638260e+00
   1.5197470e+02   1.3201550e+00
   1.5245680e+02   1.4199710e+00
   1.5293890e+02   1.3688420e+00
   1.5342100e+02   6.2801400e-01
   1.5390320e+02   7.7250200e-01
   1.5438530e+02   6.5715200e-01
   1.5486740e+02   4.1129100e-01
   1.5534950e+02   8.3037200e-01
   1.5583160e+02   1.5521900e-01
   1.5631380e+02   4.1927600e-01
   1.5679590e+02   3.0006600e-01
   1.5727800e+02   3.5221600e-01
   1.5776010e+02   4.8452999e-02
   1.5824220e+02   1.3983200e-01
   1.5872430e+02   3.6191002e-02
   1.5920650e+02   1.5897000e-02
   1.5968860e+02   3.1513700e-01
   1.6017070e+02   3.3707700e-01
   1.6065280e+02   4.8559000e-01
   1.6113490e+02   1.5987000e-01
   1.6161700e+02   7.7964999e-02
   1.6209920e+02   3.6786001e-02
   1.6258130e+02   1.6133500e-01
   1.6306340e+02   4.4622900e-01
   1.6354550e+02   8.7368200e-01
   1.6402760e+02   1.2845390e+00
   1.6450970e+02   1.6209730e+00
   1.6499190e+02   1.8854960e+00
   1.6547400e+02   2.0876100e+00
   1.6595610e+02   2.2017730e+00
   1.6643820e+02   2.2699070e+00
   1.6692030e+02   2.2982630e+00
   1.6740250e+02   1.7730260e+00
   1.6788460e+02   1.7322790e+00
   1.6836670e+02   3.2308340e+00
   1.6884880e+02   6.0278720e+00
   1.6933090e+02   8.5711180e+00
   1.6981300e+02   9.7709130e+00
   1.7029520e+02   1.0228160e+01
   1.7077730e+02   1.0671220e+01
   1.7125940e+02   1.1384910e+01
   1.7174150e+02   1.2153820e+01
   1.7222360e+02   1.2732710e+01
   1.7270570e+02   1.3147690e+01
   1.7318790e+02   1.3695390e+01
   1.7367000e+02   1.4616880e+01
   1.7415210e+02   1.5823620e+01
   1.7463420e+02   1.7160890e+01
   1.7511630e+02   1.8602650e+01
   1.7559840e+02   2.0138370e+01
   1.7608060e+02   2.1736410e+01
   1.7656270e+02   2.3396660e+01
   1.7704480e+02   2.5125940e+01
   1.7752690e+02   2.6840260e+01
   1.7800900e+02   2.8610160e+01
   1.7849110e+02   3.0655330e+01
   1.7897330e+02   3.3378760e+01
   1.7945540e+02   3.6313520e+01
   1.7993750e+02   3.8623160e+01
   1.8041960e+02   4.0219270e+01
   1.8090170e+02   4.1788420e+01
   1.8138390e+02   4.3988350e+01
   1.8186600e+02   4.6730440e+01
   1.8234810e+02   4.9790730e+01
   1.8283020e+02   5.3377220e+01
   1.8331230e+02   5.7165160e+01
   1.8379440e+02   6.0278340e+01
   1.8427660e+02   6.2635420e+01
   1.8475870e+02   6.4804330e+01
   1.8524080e+02   6.7624980e+01
   1.8572290e+02   7.0965210e+01
   1.8620500e+02   7.4177240e+01
   1.8668710e+02   7.6684710e+01
   1.8716930e+02   7.8769110e+01
   1.8765140e+02   8.1338270e+01
   1.8813350e+02   8.4524950e+01
   1.8861560e+02   8.7986920e+01
   1.8909770e+02   9.1382310e+01
   1.8957980e+02   9.4691650e+01
   1.9006200e+02   9.7843660e+01
   1.9054410e+02   1.0067540e+02
   1.9102620e+02   1.0327320e+02
   1.9150830e+02   1.0628220e+02
   1.9199040e+02   1.0991160e+02
   1.9247250e+02   1.1367000e+02
   1.9295470e+02   1.1676990e+02
   1.9343680e+02   1.1923110e+02
   1.9391890e+02   1.2136470e+02
   1.9440100e+02   1.2316330e+02
   1.9488310e+02   1.2453610e+02
   1.9536520e+02   1.2629900e+02
   1.9584740e+02   1.2885470e+02
   1.9632950e+02   1.3180100e+02
   1.9681160e+02   1.3389270e+02
   1.9729370e+02   1.3500620e+02
   1.9777580e+02   1.3575580e+02
   1.9825790e+02   1.3646960e+02
   1.9874010e+02   1.3720750e+02
   1.9922220e+02   1.3782590e+02
   1.9970430e+02   1.3844160e+02
   2.0018640e+02   1.3875510e+02
   2.0066850e+02   1.3797240e+02
   2.0115070e+02   1.3601810e+02
   2.0163280e+02   1.3302050e+02
   2.0211490e+02   1.2890430e+02
   2.0259700e+02   1.2361000e+02
   2.0307910e+02   1.1880440e+02
   2.0356120e+02   1.1486170e+02
   2.0404340e+02   1.1147000e+02
   2.0452550e+02   1.0786730e+02
   2.0500760e+02   1.0408210e+02
   2.0548970e+02   9.9999260e+01
   2.0597180e+02   9.5325150e+01
   2.0645390e+02   8.9839580e+01
   2.0693610e+02   8.5171390e+01
   2.0741820e+02   8.1738280e+01
   2.0790030e+02   7.9100170e+01
   2.0838240e+02   7.5631440e+01
   2.0886450e+02   7.0990950e+01
   2.0934660e+02   6.6359600e+01
   2.0982880e+02   6.2410920e+01
   2.1031090e+02   5.9236230e+01
   2.1079300e+02   5.6380440e+01
   2.1127510e+02   5.3943760e+01
   2.1175720e+02   5.1771490e+01
   2.1223930e+02   4.9093080e+01
   2.1272150e+02   4.5666520e+01
   2.1320360e+02   4.2321650e+01
   2.1368570e+02   3.9647160e+01
   2.1416780e+02   3.7830550e+01
   2.1464990e+02   3.5975840e+01
   2.1513210e+02   3.3900210e+01
   2.1561420e+02   3.1702160e+01
   2.1609630e+02   2.9887710e+01
   2.1657840e+02   2.8611300e+01
   2.1706050e+02   2.7442320e+01
   2.1754260e+02   2.6098720e+01
   2.1802480e+02   2.4492920e+01
   2.1850690e+02   2.3060710e+01
   2.1898900e+02   2.1952570e+01
   2.1947110e+02   2.1052850e+01
   2.1995320e+02   1.9723830e+01
   2.2043530e+02   1.7612600e+01
   2.2091750e+02   1.5630690e+01
   2.2139960e+02   1.4389740e+01
   2.2188170e+02   1.4219480e+01
   2.2236380e+02   1.3960290e+01
   2.2284590e+02   1.3503920e+01
   2.2332800e+02   1.2874180e+01
   2.2381020e+02   1.2241880e+01
   2.2429230e+02   1.1638100e+01
   2.2477440e+02   1.0966640e+01
   2.2525650e+02   1.0148660e+01
   2.2573860e+02   9.0901700e+00
   2.2622080e+02   8.1128440e+00
   2.2670290e+02   7.2480240e+00
   2.2718500e+02   6.4851820e+00
   2.2766710e+02   5.8194750e+00
   2.2814920e+02   5.2729420e+00
   2.2863130e+02   4.7916400e+00
   2.2911350e+02   4.3291120e+00
   2.2959560e+02   3.8063190e+00
   2.3007770e+02   3.4797690e+00
   2.3055980e+02   3.4365260e+00
   2.3104190e+02   3.6137580e+00
   2.3152400e+02   3.7064620e+00
   2.3200620e+02   3.7277260e+00
   2.3248830e+02   3.6496410e+00
   2.3297040e+02   3.4500100e+00
   2.3345250e+02   3.1002000e+00
   2.3393460e+02   2.6907520e+00
   2.3441670e+02   2.1931350e+00
   2.3489890e+02   1.6379740e+00
   2.3538100e+02   1.1825370e+00
   2.3586310e+02   8.9953400e-01
   2.3634520e+02   6.1076200e-01
   2.3682730e+02   1.7916900e-01
   2.3730950e+02   5.7108600e-01
   2.3779160e+02   7.0010200e-01
   2.3827370e+02   4.5064300e-01
   2.3875580e+02   4.5406700e-01
   2.3923790e+02   7.0242200e-01
   2.3972000e+02   3.5180900e-01
   2.4020220e+02   2.9048000e-01
   2.4068430e+02   4.9288400e-01
   2.4116640e+02   7.3161997e-02
   2.4164850e+02   4.0585800e-01
   2.4213060e+02   8.0577200e-01
   2.4261270e+02   1.5279900e-01
   2.4309490e+02   1.1403200e-01
   2.4357700e+02   2.6702800e-01
   2.4405910e+02   6.7448600e-01
   2.4454120e+02   7.8061200e-01
   2.4502330e+02   4.4551800e-01
   2.4550540e+02   1.2138400e-01
   2.4598760e+02   2.2040100e-01
   2.4646970e+02   5.3357000e-01
   2.4695180e+02   6.7698600e-01
   2.4743390e+02   6.0562100e-01
   2.4791600e+02   4.3156100e-01
   2.4839810e+02   1.7625000e-01
   2.4888030e+02   2.8757600e-01
   2.4936240e+02   5.0609600e-01
   2.4984450e+02   3.0405800e-01
   2.5032660e+02   1.0662600e-01
   2.5080870e+02   1.1797300e-01
   2.5129090e+02   4.6151300e-01
   2.5177300e+02   8.4540600e-01
   2.5225510e+02   2.9742800e-01
   2.5273720e+02   2.0716000e-01
   2.5321930e+02   4.0504000e-01
   2.5370140e+02   1.1648500e-01
   2.5418360e+02   4.0191800e-01
   2.5466570e+02   5.4428700e-01
   2.5514780e+02   1.6530200e-01
   2.5562990e+02   3.3723800e-01
   2.5611200e+02   8.5702800e-01
   2.5659410e+02   1.4914300e+00
   2.5707630e+02   1.7709450e+00
   2.5755840e+02   1.4590240e+00
   2.5804050e+02   9.4582200e-01
   2.5852260e+02   1.0721380e+00
   2.5900470e+02   2.1495670e+00
   2.5948680e+02   3.2288980e+00
   2.5996900e+02   3.9580430e+00
   2.6045110e+02   4.2932500e+00
   2.6093320e+02   4.4596490e+00
   2.6141530e+02   4.3939000e+00
   2.6189740e+02   4.2169060e+00
   2.6237950e+02   4.1286040e+00
   2.6286170e+02   4.1426720e+00
   2.6334380e+02   4.2084020e+00
   2.6382590e+02   4.2969090e+00
   2.6430800e+02   4.3939820e+00
   2.6479010e+02   4.6144360e+00
   2.6527220e+02   4.9682860e+00
   2.6575440e+02   5.4314040e+00
   2.6623650e+02   6.0255450e+00
   2.6671860e+02   6.8626040e+00
   2.6720070e+02   7.4697930e+00
   2.6768290e+02   7.5642580e+00
   2.6816500e+02   7.0916230e+00
   2.6864710e+02   7.1918640e+00
   2.6912920e+02   8.0889770e+00
   2.6961130e+02   9.2091520e+00
   2.7009340e+02   9.8210670e+00
   2.7057560e+02   9.8184390e+00
   2.7105770e+02   9.7326820e+00
   2.7153980e+02   9.6740880e+00
   2.7202190e+02   9.6443270e+00
   2.7250400e+02   9.7417550e+00
   2.7298610e+02   1.0014620e+01
   2.7346830e+02   1.0307620e+01
   2.7395040e+02   1.0426210e+01
   2.7443250e+02   1.0323830e+01
   2.7491460e+02   1.0310610e+01
   2.7539670e+02   1.0510050e+01
   2.7587880e+02   1.0878570e+01
   2.7636100e+02   1.0664330e+01
   2.7684310e+02   1.1164450e+01
   2.7732520e+02   1.1458640e+01
   2.7780730e+02   1.1557810e+01
   2.7828940e+02   1.0877860e+01
   2.7877150e+02   1.1204650e+01
   2.7925370e+02   1.1128280e+01
   2.7973580e+02   1.1035430e+01
   2.8021790e+02   1.1504380e+01
   2.8070000e+02   1.0938640e+01
   2.8118210e+02   1.1398920e+01
   2.8166420e+02   1.1449660e+01
   2.8214640e+02   1.1687990e+01
   2.8262850e+02   1.1520480e+01
   2.8311060e+02   1.1478630e+01
   2.8359270e+02   1.1843000e+01
   2.8407480e+02   1.1581980e+01
   2.8455690e+02   1.2005100e+01
   2.8503910e+02   1.2209780e+01
   2.8552120e+02   1.2207350e+01
   2.8600330e+02   1.1413320e+01
   2.8648540e+02   1.1613680e+01
   2.8696750e+02   1.1398450e+01
   2.8744960e+02   1.1154430e+01
   2.8793180e+02   1.1459710e+01
   2.8841390e+02   1.0717890e+01
   2.8889600e+02   1.0989820e+01
   2.8937810e+02   1.0840060e+01
   2.8986020e+02   1.0865720e+01
   2.9034240e+02   1.0473430e+01
   2.9082450e+02   1.0194440e+01
   2.9130660e+02   1.0309170e+01
   2.9178870e+02   1.0186840e+01
   2.9227080e+02   9.5732040e+00
   2.9275300e+02   9.2856300e+00
   2.9323510e+02   8.8854480e+00
   2.9371720e+02   8.4246090e+00
   2.9419930e+02   8.1114590e+00
   2.9468140e+02   7.9833230e+00
   2.9516350e+02   7.8130630e+00
   2.9564570e+02   7.3142670e+00
   2.9612780e+02   6.5941100e+00
   2.9660990e+02   5.9809100e+00
   2.9709200e+02   5.7185030e+00
   2.9757410e+02   5.7016880e+00
   2.9805620e+02   5.5931680e+00
   2.9853840e+02   5.3489200e+00
   2.9902050e+02   5.1253560e+00
   2.9950260e+02   5.0292670e+00
   2.9998470e+02   4.8976210e+00
   3.0046680e+02   4.9301760e+00
   3.0094890e+02   4.8883660e+00
   3.0143110e+02   4.7761780e+00
   3.0191320e+02   4.3829080e+00
   3.0239530e+02   4.3526280e+00
   3.0287740e+02   4.1768720e+00
   3.0335950e+02   3.9951600e+00
   3.0384160e+02   4.0159570e+00
   3.0432380e+02   3.6635540e+00
   3.0480590e+02   3.6811390e+00
   3.0528800e+02   3.5510470e+00
   3.0577010e+02   3.4885380e+00
   3.0625220e+02   3.2796730e+00
   3.0673430e+02   3.1160070e+00
   3.0721650e+02   3.0987340e+00
   3.0769860e+02   3.0004080e+00
   3.0818070e+02   2.4978680e+00
   3.0866280e+02   2.4872550e+00
   3.0914490e+02   2.5565060e+00
   3.0962700e+02   2.5550720e+00
   3.1010920e+02   2.5153610e+00
   3.1059130e+02   2.4402890e+00
   3.1107340e+02   2.2035380e+00
   3.1155550e+02   1.9750150e+00
   3.1203760e+02   1.5091640e+00
   3.1251970e+02   1.9294490e+00
   3.1300190e+02   2.1704380e+00
   3.1348400e+02   2.2301270e+00
   3.1396610e+02   1.5116540e+00
   3.1444820e+02   1.8010750e+00
   3.1493040e+02   1.6884480e+00
   3.1541250e+02   1.5606290e+00
   3.1589460e+02   1.9957600e+00
   3.1637670e+02   1.3973820e+00
   3.1685880e+02   1.8263120e+00
   3.1734090e+02   1.8470560e+00
   3.1782310e+02   2.0566100e+00
   3.1830520e+02   1.8616480e+00
   3.1878730e+02   1.7933860e+00
   3.1926940e+02   2.1325020e+00
   3.1975150e+02   2.2481860e+00
   3.2023360e+02   2.0119310e+00
   3.2071580e+02   2.2415480e+00
   3.2119790e+02   1.6425860e+00
   3.2168000e+02   1.7732670e+00
   3.2216210e+02   2.2195240e+00
   3.2264420e+02   2.0104720e+00
   3.2312630e+02   2.2543200e+00
   3.2360850e+02   2.3275310e+00
   3.2409060e+02   1.6206030e+00
   3.2457270e+02   2.2741580e+00
   3.2505480e+02   2.3412760e+00
   3.2553690e+02   1.8062600e+00
   3.2601900e+02   2.4173030e+00
   3.2650120e+02   1.9681920e+00
   3.2698330e+02   1.8993480e+00
   3.2746540e+02   2.1171010e+00
   3.2794750e+02   2.0390420e+00
   3.2842960e+02   2.4310460e+00
   3.2891170e+02   2.3730200e+00
   3.2939390e+02   2.2910150e+00
   3.2987600e+02   2.3972180e+00
   3.3035810e+02   2.0175710e+00
   3.3084020e+02   2.5695220e+00
   3.3132230e+02   2.5170720e+00
   3.3180440e+02   2.7461460e+00
   3.3228660e+02   3.0132660e+00
   3.3276870e+02   2.7363650e+00
   3.3325080e+02   3.0972810e+00
   3.3373290e+02   2.5449500e+00
   3.3421500e+02   2.7426620e+00
   3.3469710e+02   2.8743830e+00
   3.3517930e+02   3.4525900e+00
   3.3566140e+02   2.9512470e+00
   3.3614350e+02   3.1328120e+00
   3.3662560e+02   3.6238880e+00
   3.3710770e+02   3.6592400e+00
   3.3758990e+02   3.2668230e+00
   3.3807200e+02   3.4134530e+00
   3.3855410e+02   3.6154960e+00
   3.3903620e+02   3.9299120e+00
   3.3951830e+02   4.3028910e+00
   3.4000050e+02   4.5415940e+00
   3.4048260e+02   4.7096550e+00
   3.4096470e+02   5.0681680e+00
   3.4144680e+02   5.7800710e+00
   3.4192890e+02   6.6992810e+00
   3.4241100e+02   6.9601640e+00
   3.4289320e+02   6.5245270e+00
   3.4337530e+02   6.1149030e+00
   3.4385740e+02   6.3947420e+00
   3.4433950e+02   7.3004250e+00
   3.4482160e+02   7.9764510e+00
   3.4530370e+02   8.3134420e+00
   3.4578590e+02   8.4488560e+00
   3.4626800e+02   8.5717150e+00
   3.4675010e+02   8.7041820e+00
   3.4723220e+02   8.8998370e+00
   3.4771430e+02   9.2726500e+00
   3.4819640e+02   9.7082030e+00
   3.4867860e+02   9.8653340e+00
   3.4916070e+02   9.7190940e+00
   3.4964280e+02   9.6473920e+00
   3.5012490e+02   1.0102720e+01
   3.5060700e+02   1.0956750e+01
   3.5108910e+02   1.1774310e+01
   3.5157130e+02   1.2395180e+01
   3.5205340e+02   1.2820030e+01
   3.5253550e+02   1.3003900e+01
   3.5301760e+02   1.2985210e+01
   3.5349970e+02   1.2978920e+01
   3.5398180e+02   1.3082640e+01
   3.5446400e+02   1.3261660e+01
   3.5494610e+02   1.3451860e+01
   3.5542820e+02   1.3614380e+01
   3.5591030e+02   1.3805960e+01
   3.5639240e+02   1.4146020e+01
   3.5687450e+02   1.4576070e+01
   3.5735670e+02   1.4857600e+01
   3.5783880e+02   1.4811280e+01
   3.5832090e+02   1.4588470e+01
   3.5880300e+02   1.4276550e+01
   3.5928510e+02   1.3819110e+01
   3.5976720e+02   1.3482880e+01
   3.6024940e+02   1.3479630e+01
   3.6073150e+02   1.3691890e+01
   3.6121360e+02   1.3916310e+01
   3.6169570e+02   1.4283760e+01
   3.6217790e+02   1.4434030e+01
   3.6266000e+02   1.4064900e+01
   3.6314210e+02   1.3068130e+01
   3.6362420e+02   1.2244380e+01
   3.6410630e+02   1.1926880e+01
   3.6458840e+02   1.1859100e+01
   3.6507060e+02   1.1781560e+01
   3.6555270e+02   1.1851340e+01
   3.6603480e+02   1.1687360e+01
   3.6651690e+02   1.1089350e+01
   3.6699900e+02   1.0086800e+01
   3.6748110e+02   9.1991950e+00
   3.6796330e+02   8.4381610e+00
   3.6844540e+02   7.8269210e+00
   3.6892750e+02   7.3887430e+00
   3.6940960e+02   7.3180580e+00
   3.6989170e+02   7.1530510e+00
   3.7037380e+02   6.8690860e+00
   3.7085600e+02   6.4849880e+00
   3.7133810e+02   6.0496900e+00
   3.7182020e+02   5.4694520e+00
   3.7230230e+02   4.9607780e+00
   3.7278440e+02   4.6458030e+00
   3.7326650e+02   4.6161820e+00
   3.7374870e+02   4.3786840e+00
   3.7423080e+02   3.7627220e+00
   3.7471290e+02   2.8853270e+00
   3.7519500e+02   2.9623830e+00
   3.7567710e+02   2.9239660e+00
   3.7615920e+02   2.7766650e+00
   3.7664140e+02   2.1716110e+00
   3.7712350e+02   2.1750750e+00
   3.7760560e+02   1.9453480e+00
   3.7808770e+02   1.7133420e+00
   3.7856980e+02   1.8242090e+00
   3.7905190e+02   1.3248940e+00
   3.7953410e+02   1.4456310e+00
   3.8001620e+02   1.3295090e+00
   3.8049830e+02   1.3328960e+00
   3.8098040e+02   1.1015850e+00
   3.8146250e+02   9.5272560e-01
   3.8194460e+02   1.0538400e+00
   3.8242680e+02   1.0283460e+00
   3.8290890e+02   7.9957100e-01
   3.8339100e+02   8.5570880e-01
   3.8387310e+02   4.2399930e-01
   3.8435530e+02   4.3465330e-01
   3.8483740e+02   6.4050290e-01
   3.8531950e+02   4.6194850e-01
   3.8580160e+02   5.6054640e-01
   3.8628370e+02   5.6409380e-01
   3.8676580e+02   1.0870420e-01
   3.8724800e+02   4.6001900e-01
   3.8773010e+02   6.4134700e-01
   3.8821220e+02   5.8263800e-01
   3.8869430e+02   4.0857900e-01
   3.8917640e+02   5.7947100e-01
   3.8965850e+02   9.3973003e-02
   3.9014070e+02   2.6334900e-01
   3.9062280e+02   2.9145400e-01
   3.9110490e+02   4.3932500e-01
   3.9158700e+02   1.3656100e-01
   3.9206910e+02   2.0877600e-01
   3.9255120e+02   3.0664400e-01
   3.9303340e+02   6.7752500e-01
   3.9351550e+02   3.9243200e-01
   3.9399760e+02   4.1308700e-01
   3.9447970e+02   1.9688400e-01
   3.9496180e+02   3.7512100e-01
   3.9544390e+02   1.5764100e-01
   3.9592610e+02   8.0029003e-02
   3.9640820e+02   1.8292500e-01
   3.9689030e+02   4.5946200e-01
   3.9737240e+02   8.8113002e-02
   3.9785450e+02   4.9373500e-01
   3.9833660e+02   2.2266000e-01
   3.9881880e+02   1.1358700e-01
   3.9930090e+02   2.4644500e-01
   3.9978300e+02   1.4049000e-01
   4.0026510e+02   3.3218900e-01
   4.0074720e+02   1.4742300e-01
   4.0122930e+02   3.6919800e-01
   4.0171150e+02   1.1815100e-01
   4.0219360e+02   6.8760002e-03
   4.0267570e+02   5.3612001e-02
   4.0315780e+02   3.5330001e-02
   4.0363990e+02   9.0016998e-02
   4.0412200e+02   3.9510700e-01
   4.0460420e+02   2.6922300e-01
   4.0508630e+02   4.2861800e-01
   4.0556840e+02   1.3193900e-01
   4.0605050e+02   8.1997998e-02
   4.0653260e+02   1.7493100e-01
   4.0701470e+02   2.8288400e-01
   4.0749690e+02   3.0716800e-01
   4.0797900e+02   6.7542800e-01
   4.0846110e+02   8.0849500e-01
   4.0894320e+02   5.1010000e-01
   4.0942540e+02   2.7024000e-01
   4.0990750e+02   2.5467900e-01
   4.1038960e+02   2.1396700e-01
   4.1087170e+02   2.9919500e-01
   4.1135380e+02   2.2182999e-02
   4.1183590e+02   8.9318998e-02
   4.1231810e+02   2.2777000e-01
   4.1280020e+02   7.6739997e-02
   4.1328230e+02   3.4628200e-01
   4.1376440e+02   5.8317600e-01
   4.1424650e+02   7.9288500e-01
   4.1472860e+02   9.6646000e-01
   4.1521080e+02   1.1003200e+00
   4.1569290e+02   1.1934340e+00
   4.1617500e+02   1.2301860e+00
   4.1665710e+02   1.2227290e+00
   4.1713920e+02   1.1440170e+00
   4.1762130e+02   9.4283100e-01
   4.1810350e+02   3.2826900e-01
   4.1858560e+02   1.1666100e-01
   4.1906770e+02   4.0573001e-02
   4.1954980e+02   6.8002700e-01
   4.2003190e+02   1.3475260e+00
   4.2051400e+02   2.0863690e+00
   4.2099620e+02   2.6415730e+00
   4.2147830e+02   2.7861350e+00
   4.2196040e+02   1.8745170e+00
   4.2244250e+02   2.6388600e+00
   4.2292460e+02   3.1969280e+00
   4.2340670e+02   3.5598790e+00
   4.2388890e+02   3.1433160e+00
   4.2437100e+02   3.7332360e+00
   4.2485310e+02   3.9197080e+00
   4.2533520e+02   4.0896160e+00
   4.2581730e+02   4.8210650e+00
   4.2629940e+02   4.5176190e+00
   4.2678160e+02   4.6338990e+00
   4.2726370e+02   5.0692290e+00
   4.2774580e+02   5.2983280e+00
   4.2822790e+02   5.3322740e+00
   4.2871000e+02   4.5880540e+00
   4.2919210e+02   4.8701820e+00
   4.2967430e+02   4.7460220e+00
   4.3015640e+02   4.6096530e+00
   4.3063850e+02   5.0120840e+00
   4.3112060e+02   4.3796210e+00
   4.3160280e+02   4.7923410e+00
   4.3208490e+02   4.8082490e+00
   4.3256700e+02   5.0114270e+00
   4.3304910e+02   4.8118190e+00
   4.3353120e+02   4.7122040e+00
   4.3401330e+02   4.0774600e+00
   4.3449550e+02   2.9049650e+00
   4.3497760e+02   1.9558380e+00
   4.3545970e+02   1.4755870e+00
   4.3594180e+02   1.2612620e+00
   4.3642390e+02   9.8245200e-01
   4.3690600e+02   6.4913500e-01
   4.3738820e+02   4.2602100e-01
   4.3787030e+02   5.7186000e-01
   4.3835240e+02   8.7031300e-01
   4.3883450e+02   9.9926700e-01
   4.3931660e+02   9.0769600e-01
   4.3979870e+02   7.5957000e-01
   4.4028090e+02   6.9868300e-01
   4.4076300e+02   6.6272900e-01
   4.4124510e+02   5.5616700e-01
   4.4172720e+02   1.9702900e-01
   4.4220930e+02   1.9691500e-01
   4.4269140e+02   2.0665000e-01
   4.4317360e+02   1.0870900e-01
   4.4365570e+02   3.6796400e-01
   4.4413780e+02   2.5405200e-01
   4.4461990e+02   5.7258800e-01
   4.4510200e+02   6.8510700e-01
   4.4558410e+02   6.4329999e-03
   4.4606630e+02   3.2937000e-01
   4.4654840e+02   2.2241700e-01
   4.4703050e+02   1.3291600e-01
   4.4751260e+02   6.3943200e-01
   4.4799470e+02   1.1104500e-01
   4.4847680e+02   5.4941500e-01
   4.4895900e+02   5.9737500e-01
   4.4944110e+02   8.3317800e-01
   4.4992320e+02   6.4970700e-01
   4.5040530e+02   1.0082800e-01
   4.5088740e+02   5.4666700e-01
   4.5136950e+02   8.2867200e-01
   4.5185170e+02   9.1561700e-01
   4.5233380e+02   2.4869900e-01
   4.5281590e+02   5.6309100e-01
   4.5329800e+02   4.7446700e-01
   4.5378010e+02   4.0085900e-01
   4.5426220e+02   8.9509000e-01
   4.5474440e+02   3.2206700e-01
   4.5522650e+02   1.1640570e+00
   4.5570860e+02   1.5772960e+00
   4.5619070e+02   1.7011520e+00
   4.5667290e+02   1.5377850e+00
   4.5715500e+02   1.3241130e+00
   4.5763710e+02   1.4453220e+00
   4.5811920e+02   1.7152900e+00
   4.5860130e+02   1.8908550e+00
   4.5908340e+02   1.8211230e+00
   4.5956560e+02   1.7513800e+00
   4.6004770e+02   1.9361800e+00
   4.6052980e+02   2.3187570e+00
   4.6101190e+02   2.7332330e+00
   4.6149400e+02   3.2601140e+00
   4.6197610e+02   3.2460460e+00
   4.6245830e+02   3.9383510e+00
   4.6294040e+02   4.4150870e+00
   4.6342250e+02   4.7200190e+00
   4.6390460e+02   3.9641330e+00
   4.6438670e+02   4.5984810e+00
   4.6486880e+02   4.9931140e+00
   4.6535100e+02   5.1790300e+00
   4.6583310e+02   4.5630140e+00
   4.6631520e+02   4.9459720e+00
   4.6679730e+02   4.9450840e+00
   4.6727940e+02   4.9548110e+00
   4.6776150e+02   5.5593730e+00
   4.6824370e+02   5.1295280e+00
   4.6872580e+02   5.6935350e+00
   4.6920790e+02   5.8495100e+00
   4.6969000e+02   6.1936780e+00
   4.7017210e+02   6.1418750e+00
   4.7065420e+02   6.2358440e+00
   4.7113640e+02   6.1356230e+00
   4.7161850e+02   6.0015600e+00
   4.7210060e+02   5.8415710e+00
   4.7258270e+02   5.6636300e+00
   4.7306480e+02   5.4732660e+00
   4.7354690e+02   5.3067950e+00
   4.7402910e+02   5.1715510e+00
   4.7451120e+02   4.9770560e+00
   4.7499330e+02   4.6113430e+00
   4.7547540e+02   4.1305630e+00
   4.7595750e+02   3.8279540e+00
   4.7643960e+02   3.7277350e+00
   4.7692180e+02   3.5975730e+00
   4.7740390e+02   3.0480870e+00
   4.7788600e+02   2.2523310e+00
   4.7836810e+02   1.6304500e+00
   4.7885030e+02   1.3519080e+00
   4.7933240e+02   1.2555690e+00
   4.7981450e+02   1.2488810e+00
   4.8029660e+02   1.3062600e+00
   4.8077870e+02   1.3367080e+00
   4.8126080e+02   1.2778240e+00
   4.8174300e+02   1.1841820e+00
   4.8222510e+02   1.0578180e+00
   4.8270720e+02   8.7091600e-01
   4.8318930e+02   8.1883500e-01
   4.8367140e+02   1.2084770e+00
   4.8415350e+02   1.6609640e+00
   4.8463570e+02   1.7959050e+00
   4.8511780e+02   1.3984210e+00
   4.8559990e+02   8.6210900e-01
   4.8608200e+02   4.7036000e-02
   4.8656410e+02   2.5746900e-01
   4.8704620e+02   7.5533003e-02
   4.8752840e+02   4.0065600e-01
   4.8801050e+02   4.9822600e-01
   4.8849260e+02   5.8031100e-01
   4.8897470e+02   3.4383400e-01
   4.8945680e+02   5.1261500e-01
   4.8993890e+02   5.0966400e-01
   4.9042110e+02   5.9431900e-01
   4.9090320e+02   1.9113100e-01
   4.9138530e+02   3.8807700e-01
   4.9186740e+02   4.9322100e-01
   4.9234950e+02   2.0095400e-01
   4.9283160e+02   1.6925600e-01
   4.9331380e+02   5.7974000e-02
   4.9379590e+02   4.4041600e-01
   4.9427800e+02   3.4746700e-01
   4.9476010e+02   7.0963003e-02
   4.9524220e+02   3.3558400e-01
   4.9572430e+02   4.4216500e-01
   4.9620650e+02   3.8278000e-01
   4.9668860e+02   3.7677600e-01
   4.9717070e+02   6.4893800e-01
   4.9765280e+02   1.0685270e+00
   4.9813490e+02   1.4544520e+00
   4.9861700e+02   1.7268120e+00
   4.9909920e+02   2.0004280e+00
   4.9958130e+02   2.3705830e+00
   5.0006340e+02   2.7811660e+00
   5.0054550e+02   3.1258220e+00
   5.0102760e+02   3.2675630e+00
   5.0150970e+02   3.4172950e+00
   5.0199190e+02   3.7287670e+00
   5.0247400e+02   4.2253380e+00
   5.0295610e+02   4.6374860e+00
   5.0343820e+02   4.8851100e+00
   5.0392030e+02   5.0930350e+00
   5.0440250e+02   5.3210290e+00
   5.0488460e+02   5.6388890e+00
   5.0536670e+02   5.8073350e+00
   5.0584880e+02   5.6625390e+00
   5.0633090e+02   5.4487970e+00
   5.0681300e+02   5.7344880e+00
   5.0729520e+02   6.6349710e+00
   5.0777730e+02   7.5196260e+00
   5.0825940e+02   8.1879180e+00
   5.0874150e+02   8.6467710e+00
   5.0922360e+02   8.8661840e+00
   5.0970570e+02   8.8317570e+00
   5.1018790e+02   8.7444960e+00
   5.1067000e+02   8.7438460e+00
   5.1115210e+02   8.8223890e+00
   5.1163420e+02   8.9127350e+00
   5.1211630e+02   8.9520160e+00
   5.1259840e+02   9.1910370e+00
   5.1308060e+02   1.0124130e+01
   5.1356270e+02   1.1446010e+01
   5.1404480e+02   1.2517740e+01
   5.1452690e+02   1.2950010e+01
   5.1500900e+02   1.3127980e+01
   5.1549110e+02   1.3184050e+01
   5.1597330e+02   1.3157040e+01
   5.1645540e+02   1.3287880e+01
   5.1693750e+02   1.3821120e+01
   5.1741960e+02   1.4436040e+01
   5.1790170e+02   1.4946550e+01
   5.1838390e+02   1.5246310e+01
   5.1886600e+02   1.5555600e+01
   5.1934810e+02   1.5922030e+01
   5.1983020e+02   1.6341600e+01
   5.2031230e+02   1.6806230e+01
   5.2079440e+02   1.7360820e+01
   5.2127660e+02   1.7837910e+01
   5.2175870e+02   1.8152350e+01
   5.2224080e+02   1.8431050e+01
   5.2272290e+02   1.9156390e+01
   5.2320500e+02   2.0399690e+01
   5.2368710e+02   2.1734800e+01
   5.2416930e+02   2.2867440e+01
   5.2465140e+02   2.3807290e+01
   5.2513350e+02   2.5168660e+01
   5.2561560e+02   2.7021470e+01
   5.2609770e+02   2.8894130e+01
   5.2657980e+02   3.0059240e+01
   5.2706200e+02   3.0874400e+01
   5.2754410e+02   3.2367140e+01
   5.2802620e+02   3.4891330e+01
   5.2850830e+02   3.7853870e+01
   5.2899040e+02   4.0601690e+01
   5.2947250e+02   4.3276500e+01
   5.2995470e+02   4.6119290e+01
   5.3043680e+02   4.9115230e+01
   5.3091890e+02   5.2355180e+01
   5.3140100e+02   5.6004880e+01
   5.3188310e+02   6.0095270e+01
   5.3236520e+02   6.3837760e+01
   5.3284740e+02   6.6445390e+01
   5.3332950e+02   6.9035290e+01
   5.3381160e+02   7.2375680e+01
   5.3429370e+02   7.7069540e+01
   5.3477580e+02   8.1584340e+01
   5.3525790e+02   8.5643880e+01
   5.3574010e+02   8.9622160e+01
   5.3622220e+02   9.3970320e+01
   5.3670430e+02   9.8998870e+01
   5.3718650e+02   1.0371620e+02
   5.3766860e+02   1.0780600e+02
   5.3815070e+02   1.1148990e+02
   5.3863280e+02   1.1550460e+02
   5.3911490e+02   1.1987920e+02
   5.3959700e+02   1.2455920e+02
   5.4007920e+02   1.2957070e+02
   5.4056130e+02   1.3490350e+02
   5.4104340e+02   1.4017860e+02
   5.4152550e+02   1.4539020e+02
   5.4200760e+02   1.5044350e+02
   5.4248970e+02   1.5556320e+02
   5.4297190e+02   1.6045720e+02
   5.4345400e+02   1.6460960e+02
   5.4393610e+02   1.6780990e+02
   5.4441820e+02   1.7022880e+02
   5.4490030e+02   1.7218780e+02
   5.4538240e+02   1.7344510e+02
   5.4586460e+02   1.7351170e+02
   5.4634670e+02   1.7255690e+02
   5.4682880e+02   1.6996350e+02
   5.4731090e+02   1.6524140e+02
   5.4779300e+02   1.5840810e+02
   5.4827510e+02   1.5060840e+02
   5.4875730e+02   1.4154410e+02
   5.4923940e+02   1.3194530e+02
   5.4972150e+02   1.2211890e+02
   5.5020360e+02   1.1157590e+02
   5.5068570e+02   1.0189810e+02
   5.5116780e+02   9.3225080e+01
   5.5165000e+02   8.5253260e+01
   5.5213210e+02   7.7672080e+01
   5.5261420e+02   7.0402310e+01
   5.5309630e+02   6.3852760e+01
   5.5357840e+02   5.8164380e+01
   5.5406050e+02   5.3223270e+01
   5.5454270e+02   4.8725450e+01
   5.5502480e+02   4.4677710e+01
   5.5550690e+02   4.1198270e+01
   5.5598900e+02   3.8735020e+01
   5.5647110e+02   3.6795840e+01
   5.5695320e+02   3.4487640e+01
   5.5743540e+02   3.1776890e+01
   5.5791750e+02   2.9110850e+01
   5.5839960e+02   2.6823530e+01
   5.5888170e+02   2.4788340e+01
   5.5936380e+02   2.2855740e+01
   5.5984590e+02   2.0928520e+01
   5.6032810e+02   1.9266360e+01
   5.6081020e+02   1.8175510e+01
   5.6129230e+02   1.7386510e+01
   5.6177440e+02   1.6483720e+01
   5.6225650e+02   1.5310830e+01
   5.6273860e+02   1.4101760e+01
   5.6322080e+02   1.2759810e+01
   5.6370290e+02   1.1365940e+01
   5.6418500e+02   1.0442640e+01
   5.6466710e+02   1.0205940e+01
   5.6514920e+02   1.0074490e+01
   5.6563130e+02   9.8028470e+00
   5.6611350e+02   9.3948880e+00
   5.6659560e+02   8.7738410e+00
   5.6707770e+02   7.8762630e+00
   5.6755980e+02   7.0033800e+00
   5.6804190e+02   6.6066170e+00
   5.6852400e+02   6.5592040e+00
   5.6900620e+02   6.1123740e+00
   5.6948830e+02   4.9746950e+00
   5.6997040e+02   3.7486610e+00
   5.7045250e+02   3.3876640e+00
   5.7093460e+02   3.5694700e+00
   5.7141670e+02   3.4814660e+00
   5.7189890e+02   2.3065270e+00
   5.7238100e+02   1.0950710e+00
   5.7286310e+02   6.7416100e-01
   5.7334520e+02   9.3892500e-01
   5.7382730e+02   1.0896810e+00
   5.7430940e+02   6.5268100e-01
   5.7479160e+02   1.5955700e-01
   5.7527370e+02   6.0734000e-02
   5.7575580e+02   1.8491100e-01
   5.7623790e+02   1.6194300e-01
   5.7672000e+02   4.2424700e-01
   5.7720210e+02   2.5444700e-01
   5.7768430e+02   9.8947003e-02
   5.7816640e+02   6.1427100e-01
   5.7864850e+02   4.0678100e-01
   5.7913060e+02   3.5151900e-01
   5.7961270e+02   5.0823700e-01
   5.8009480e+02   5.7099400e-01
   5.8057700e+02   6.4239003e-02
   5.8105910e+02   2.9442900e-01
   5.8154120e+02   3.3695000e-01
   5.8202330e+02   1.6175900e-01
   5.8250540e+02   1.2688000e-01
   5.8298750e+02   4.9158900e-01
   5.8346970e+02   6.6839000e-01
   5.8395180e+02   2.1882700e-01
   5.8443400e+02   3.7806000e-01
   5.8491610e+02   5.2217000e-01
   5.8539820e+02   9.1830999e-02
   5.8588030e+02   2.3594100e-01
   5.8636240e+02   9.6933998e-02
   5.8684450e+02   5.8152700e-01
   5.8732670e+02   7.4584700e-01
   5.8780880e+02   4.7386002e-02
   5.8829090e+02   4.0446600e-01
   5.8877300e+02   2.5621100e-01
   5.8925510e+02   1.5170900e-01
   5.8973720e+02   2.2114400e-01
   5.9021940e+02   2.9773200e-01
   5.9070150e+02   6.5102500e-01
   5.9118360e+02   5.8050100e-01
   5.9166570e+02   1.9743200e-01
   5.9214780e+02   8.4179997e-02
   5.9262990e+02   2.6018900e-01
   5.9311210e+02   5.5990500e-01
   5.9359420e+02   1.0049830e+00
   5.9407630e+02   6.4906400e-01
   5.9455840e+02   5.4283800e-01
   5.9504050e+02   8.2628300e-01
   5.9552260e+02   1.1132660e+00
   5.9600480e+02   1.0692090e+00
   5.9648690e+02   8.1148600e-01
   5.9696900e+02   5.0111100e-01
   5.9745110e+02   1.6271200e-01
   5.9793320e+02   1.9708700e-01
   5.9841530e+02   6.7727700e-01
   5.9889750e+02   1.1490840e+00
   5.9937960e+02   1.4367250e+00
   5.9986170e+02   1.2977120e+00
   6.0034380e+02   1.1875420e+00
   6.0082590e+02   1.2032010e+00
   6.0130800e+02   1.3326840e+00
   6.0179020e+02   1.5448450e+00
   6.0227230e+02   1.9182540e+00
   6.0275440e+02   2.2373700e+00
   6.0323650e+02   2.4103680e+00
   6.0371860e+02   2.4375450e+00
   6.0420070e+02   2.5121410e+00
   6.0468290e+02   2.6563790e+00
   6.0516500e+02   2.7298970e+00
   6.0564710e+02   2.4628630e+00
   6.0612920e+02   1.9936020e+00
   6.0661130e+02   1.9609940e+00
   6.0709340e+02   2.4810740e+00
   6.0757560e+02   3.1527650e+00
   6.0805770e+02   3.5964140e+00
   6.0853980e+02   3.8999460e+00
   6.0902190e+02   4.2112720e+00
   6.0950400e+02   4.6880960e+00
   6.0998610e+02   5.0395170e+00
   6.1046830e+02   4.9137230e+00
   6.1095040e+02   4.5579320e+00
   6.1143250e+02   4.5042670e+00
   6.1191460e+02   5.3134350e+00
   6.1239670e+02   6.0081700e+00
   6.1287880e+02   6.1696520e+00
   6.1336100e+02   5.8657690e+00
   6.1384310e+02   5.9654610e+00
   6.1432520e+02   6.7092120e+00
   6.1480730e+02   7.4512280e+00
   6.1528940e+02   7.8269270e+00
   6.1577150e+02   7.8029520e+00
   6.1625370e+02   8.0246140e+00
   6.1673580e+02   8.5266920e+00
   6.1721790e+02   9.0978170e+00
   6.1770000e+02   9.4915130e+00
   6.1818210e+02   9.7685890e+00
   6.1866420e+02   1.0158420e+01
   6.1914640e+02   1.0739450e+01
   6.1962850e+02   1.1314420e+01
   6.2011060e+02   1.1645990e+01
   6.2059270e+02   1.1840000e+01
   6.2107480e+02   1.2078370e+01
   6.2155690e+02   1.2409450e+01
   6.2203910e+02   1.2825620e+01
   6.2252120e+02   1.3313170e+01
   6.2300330e+02   1.3884580e+01
   6.2348540e+02   1.4577520e+01
   6.2396750e+02   1.5709580e+01
   6.2444960e+02   1.6637650e+01
   6.2493180e+02   1.7141580e+01
   6.2541390e+02   1.7230360e+01
   6.2589600e+02   1.7265060e+01
   6.2637810e+02   1.7126220e+01
   6.2686020e+02   1.7209660e+01
   6.2734230e+02   1.7907340e+01
   6.2782450e+02   1.9192710e+01
   6.2830660e+02   2.0054700e+01
   6.2878870e+02   2.0414970e+01
   6.2927080e+02   2.0694530e+01
   6.2975290e+02   2.1294910e+01
   6.3023500e+02   2.2145320e+01
   6.3071720e+02   2.3097740e+01
   6.3119930e+02   2.4107800e+01
   6.3168150e+02   2.5251960e+01
   6.3216360e+02   2.6857200e+01
   6.3264570e+02   2.8567690e+01
   6.3312780e+02   2.9842670e+01
   6.3360990e+02   3.0049270e+01
   6.3409200e+02   3.0324270e+01
   6.3457420e+02   3.1024290e+01
   6.3505630e+02   3.2066840e+01
   6.3553840e+02   3.3065900e+01
   6.3602050e+02   3.3775100e+01
   6.3650260e+02   3.4822600e+01
   6.3698470e+02   3.6534690e+01
   6.3746690e+02   3.8812790e+01
   6.3794900e+02   4.0427350e+01
   6.3843110e+02   4.1306550e+01
   6.3891320e+02   4.2033520e+01
   6.3939530e+02   4.2961270e+01
   6.3987740e+02   4.4100410e+01
   6.4035960e+02   4.5395730e+01
   6.4084170e+02   4.6847440e+01
   6.4132380e+02   4.8470320e+01
   6.4180590e+02   5.0364290e+01
   6.4228800e+02   5.2361040e+01
   6.4277010e+02   5.4168190e+01
   6.4325230e+02   5.5664600e+01
   6.4373440e+02   5.7279380e+01
   6.4421650e+02   5.9300000e+01
   6.4469860e+02   6.1550290e+01
   6.4518070e+02   6.3834530e+01
   6.4566280e+02   6.6248020e+01
   6.4614500e+02   6.8601240e+01
   6.4662710e+02   7.0912730e+01
   6.4710920e+02   7.3145990e+01
   6.4759130e+02   7.5062710e+01
   6.4807340e+02   7.6430540e+01
   6.4855550e+02   7.8260750e+01
   6.4903770e+02   8.1077460e+01
   6.4951980e+02   8.4611730e+01
   6.5000190e+02   8.7625560e+01
   6.5048400e+02   9.0162160e+01
   6.5096610e+02   9.2503940e+01
   6.5144820e+02   9.4664210e+01
   6.5193040e+02   9.6881280e+01
   6.5241250e+02   9.9575420e+01
   6.5289460e+02   1.0272750e+02
   6.5337670e+02   1.0585910e+02
   6.5385880e+02   1.0872210e+02
   6.5434090e+02   1.1144720e+02
   6.5482310e+02   1.1414450e+02
   6.5530520e+02   1.1677310e+02
   6.5578730e+02   1.1948140e+02
   6.5626940e+02   1.2232760e+02
   6.5675150e+02   1.2524460e+02
   6.5723360e+02   1.2816060e+02
   6.5771580e+02   1.3105650e+02
   6.5819790e+02   1.3401540e+02
   6.5868000e+02   1.3713830e+02
   6.5916210e+02   1.4021360e+02
   6.5964420e+02   1.4288870e+02
   6.6012630e+02   1.4515050e+02
   6.6060850e+02   1.4707470e+02
   6.6109060e+02   1.4855460e+02
   6.6157270e+02   1.4982860e+02
   6.6205480e+02   1.5141140e+02
   6.6253690e+02   1.5320330e+02
   6.6301900e+02   1.5482620e+02
   6.6350120e+02   1.5607710e+02
   6.6398330e+02   1.5708550e+02
   6.6446540e+02   1.5804610e+02
   6.6494750e+02   1.5892000e+02
   6.6542960e+02   1.5942270e+02
   6.6591170e+02   1.5942870e+02
   6.6639390e+02   1.5910750e+02
   6.6687600e+02   1.5844970e+02
   6.6735810e+02   1.5743050e+02
   6.6784020e+02   1.5663670e+02
   6.6832230e+02   1.5631170e+02
   6.6880440e+02   1.5584780e+02
   6.6928660e+02   1.5489270e+02
   6.6976870e+02   1.5343210e+02
   6.7025080e+02   1.5130600e+02
   6.7073290e+02   1.4841880e+02
   6.7121500e+02   1.4523200e+02
   6.7169710e+02   1.4208490e+02
   6.7217930e+02   1.3899460e+02
   6.7266140e+02   1.3610140e+02
   6.7314350e+02   1.3346780e+02
   6.7362560e+02   1.3088750e+02
   6.7410770e+02   1.2826330e+02
   6.7458980e+02   1.2551610e+02
   6.7507200e+02   1.2255470e+02
   6.7555410e+02   1.1936260e+02
   6.7603620e+02   1.1595040e+02
   6.7651830e+02   1.1208600e+02
   6.7700040e+02   1.0803100e+02
   6.7748250e+02   1.0444470e+02
   6.7796470e+02   1.0156670e+02
   6.7844680e+02   9.8785320e+01
   6.7892900e+02   9.5989240e+01
   6.7941110e+02   9.3172550e+01
   6.7989320e+02   9.0085460e+01
   6.8037530e+02   8.6680980e+01
   6.8085740e+02   8.3370720e+01
   6.8133950e+02   8.0263770e+01
   6.8182170e+02   7.7431110e+01
   6.8230380e+02   7.5320140e+01
   6.8278590e+02   7.3869050e+01
   6.8326800e+02   7.2201850e+01
   6.8375010e+02   6.9464190e+01
   6.8423220e+02   6.6425850e+01
   6.8471440e+02   6.3581780e+01
   6.8519650e+02   6.1031340e+01
   6.8567860e+02   5.8796860e+01
   6.8616070e+02   5.7092060e+01
   6.8664280e+02   5.5598680e+01
   6.8712490e+02   5.4090360e+01
   6.8760710e+02   5.2624130e+01
   6.8808920e+02   5.1026710e+01
   6.8857130e+02   4.9249600e+01
   6.8905340e+02   4.7422900e+01
   6.8953550e+02   4.5731590e+01
   6.9001760e+02   4.4155380e+01
   6.9049980e+02   4.2510340e+01
   6.9098190e+02   4.0751300e+01
   6.9146400e+02   3.8952400e+01
   6.9194610e+02   3.7132540e+01
   6.9242820e+02   3.5392030e+01
   6.9291030e+02   3.3984080e+01
   6.9339250e+02   3.3294610e+01
   6.9387460e+02   3.2619790e+01
   6.9435670e+02   3.1516520e+01
   6.9483880e+02   3.0129560e+01
   6.9532090e+02   2.8801060e+01
   6.9580300e+02   2.7413210e+01
   6.9628520e+02   2.6331260e+01
   6.9676730e+02   2.5817620e+01
   6.9724940e+02   2.5693680e+01
   6.9773150e+02   2.5007840e+01
   6.9821360e+02   2.3588570e+01
   6.9869570e+02   2.2164570e+01
   6.9917790e+02   2.1007360e+01
   6.9966000e+02   2.0101470e+01
   7.0014210e+02   1.9549420e+01
   7.0062420e+02   1.9322380e+01
   7.0110630e+02   1.8892420e+01
   7.0158840e+02   1.7658740e+01
   7.0207060e+02   1.6136360e+01
   7.0255270e+02   1.4987960e+01
   7.0303480e+02   1.4260460e+01
   7.0351690e+02   1.3525620e+01
   7.0399900e+02   1.2456820e+01
   7.0448110e+02   1.1392970e+01
   7.0496330e+02   1.0574870e+01
   7.0544540e+02   1.0059250e+01
   7.0592750e+02   9.7159410e+00
   7.0640960e+02   9.6522680e+00
   7.0689170e+02   9.6375620e+00
   7.0737380e+02   9.5041450e+00
   7.0785600e+02   9.2636830e+00
   7.0833810e+02   8.8114530e+00
   7.0882020e+02   8.1163160e+00
   7.0930230e+02   7.2915280e+00
   7.0978440e+02   6.3347510e+00
   7.1026650e+02   5.3639080e+00
   7.1074870e+02   4.7074430e+00
   7.1123080e+02   4.5238020e+00
   7.1171290e+02   4.4971380e+00
   7.1219500e+02   4.5420500e+00
   7.1267710e+02   4.5361340e+00
   7.1315920e+02   4.2930030e+00
   7.1364140e+02   3.4107870e+00
   7.1412350e+02   2.6870100e+00
   7.1460560e+02   2.4834340e+00
   7.1508770e+02   2.5212630e+00
   7.1556980e+02   2.2328340e+00
   7.1605190e+02   1.4565140e+00
   7.1653410e+02   7.7370000e-01
   7.1701620e+02   3.1718900e-01
   7.1749830e+02   5.7240002e-02
   7.1798040e+02   2.2398001e-02
   7.1846250e+02   6.4274997e-02
   7.1894460e+02   1.3769400e-01
   7.1942680e+02   8.8345997e-02
   7.1990890e+02   8.6859995e-03
   7.2039100e+02   6.5250001e-03
   7.2087310e+02   8.0884002e-02
   7.2135520e+02   1.3044000e-02
   7.2183730e+02   6.2262800e-01
   7.2231950e+02   1.0712820e+00
   7.2280160e+02   8.1308800e-01
   7.2328370e+02   9.5756600e-01
   7.2376580e+02   7.9905400e-01
   7.2424790e+02   1.1164300e-01
   7.2473000e+02   7.3928200e-01
   7.2521220e+02   4.1804100e-01
   7.2569430e+02   8.7497500e-01
   7.2617650e+02   7.4939400e-01
   7.2665860e+02   6.6114800e-01
   7.2714070e+02   3.9507002e-02
   7.2762280e+02   1.7403999e-02
   7.2810490e+02   4.4940500e-01
   7.2858700e+02   7.4495300e-01
   7.2906920e+02   8.2168500e-01
   7.2955130e+02   7.4376000e-01
   7.3003340e+02   4.5657700e-01
   7.3051550e+02   9.2588000e-02
   7.3099760e+02   2.5437400e-01
   7.3147970e+02   6.4692400e-01
   7.3196190e+02   7.8654600e-01
   7.3244400e+02   3.5410000e-01
   7.3292610e+02   1.6131900e-01
   7.3340820e+02   3.7441000e-01
   7.3389030e+02   1.6343100e-01
   7.3437240e+02   6.5080002e-02
   7.3485460e+02   1.3239400e-01
   7.3533670e+02   2.5210700e-01
   7.3581880e+02   2.2508200e-01
   7.3630090e+02   1.0891700e-01
   7.3678300e+02   2.1420900e-01
   7.3726510e+02   6.7766800e-01
   7.3774730e+02   2.2081900e-01
   7.3822940e+02   2.0297100e-01
   7.3871150e+02   4.0061400e-01
   7.3919360e+02   4.3896800e-01
   7.3967570e+02   4.8551999e-02
   7.4015780e+02   3.9144500e-01
   7.4064000e+02   2.3779100e-01
   7.4112210e+02   1.2984000e-01
   7.4160420e+02   2.0186100e-01
   7.4208630e+02   2.2607400e-01
   7.4256840e+02   4.7299800e-01
   7.4305050e+02   3.4721100e-01
   7.4353270e+02   6.6027001e-02
   7.4401480e+02   1.6583400e-01
   7.4449690e+02   6.1521200e-01
   7.4497900e+02   1.0115120e+00
   7.4546110e+02   1.1932220e+00
   7.4594320e+02   1.2657050e+00
   7.4642540e+02   1.3016700e+00
   7.4690750e+02   1.3382850e+00
   7.4738960e+02   1.4724430e+00
   7.4787170e+02   1.9970440e+00
   7.4835380e+02   2.3788000e+00
   7.4883590e+02   2.2026160e+00
   7.4931810e+02   1.6303810e+00
   7.4980020e+02   1.5125800e+00
   7.5028230e+02   2.1740800e+00
   7.5076440e+02   2.7601580e+00
   7.5124650e+02   2.9693610e+00
   7.5172860e+02   2.9017830e+00
   7.5221080e+02   3.0358180e+00
   7.5269290e+02   3.3745010e+00
   7.5317500e+02   3.7546460e+00
   7.5365710e+02   4.1505560e+00
   7.5413920e+02   4.4968450e+00
   7.5462130e+02   4.6975200e+00
   7.5510350e+02   4.7532130e+00
   7.5558560e+02   4.6652890e+00
   7.5606770e+02   4.2173330e+00
   7.5654980e+02   3.8102670e+00
   7.5703190e+02   3.6694090e+00
   7.5751400e+02   3.8157400e+00
   7.5799620e+02   4.0905120e+00
   7.5847830e+02   4.5406920e+00
   7.5896040e+02   5.0278320e+00
   7.5944250e+02   5.5560380e+00
   7.5992460e+02   6.1127890e+00
   7.6040670e+02   6.2975190e+00
   7.6088890e+02   6.0766620e+00
   7.6137100e+02   5.7777090e+00
   7.6185310e+02   5.4586720e+00
   7.6233520e+02   5.2894120e+00
   7.6281730e+02   5.7877960e+00
   7.6329940e+02   6.9456990e+00
   7.6378160e+02   7.8709980e+00
   7.6426370e+02   7.7933550e+00
   7.6474580e+02   7.4226980e+00
   7.6522790e+02   7.2812050e+00
   7.6571000e+02   7.4801950e+00
   7.6619210e+02   7.6039740e+00
   7.6667430e+02   7.4884460e+00
   7.6715640e+02   7.4620780e+00
   7.6763850e+02   7.1715060e+00
   7.6812060e+02   7.7881960e+00
   7.6860270e+02   8.1985100e+00
   7.6908480e+02   8.4135100e+00
   7.6956700e+02   7.8543550e+00
   7.7004910e+02   8.3128650e+00
   7.7053120e+02   8.3809220e+00
   7.7101330e+02   8.4421990e+00
   7.7149540e+02   9.0687530e+00
   7.7197750e+02   8.6445520e+00
   7.7245970e+02   9.2258660e+00
   7.7294180e+02   9.3894470e+00
   7.7342400e+02   9.7402520e+00
   7.7390610e+02   9.6900360e+00
   7.7438820e+02   9.7720400e+00
   7.7487030e+02   1.0411540e+01
   7.7535240e+02   1.0857380e+01
   7.7583450e+02   1.1107530e+01
   7.7631670e+02   1.1161410e+01
   7.7679880e+02   1.1034350e+01
   7.7728090e+02   1.0725150e+01
   7.7776300e+02   1.0463730e+01
   7.7824510e+02   1.0547450e+01
   7.7872720e+02   1.0853670e+01
   7.7920940e+02   1.1105180e+01
   7.7969150e+02   1.1257600e+01
   7.8017360e+02   1.1339370e+01
   7.8065570e+02   1.1341980e+01
   7.8113780e+02   1.1380840e+01
   7.8161990e+02   1.1538790e+01
   7.8210210e+02   1.1931560e+01
   7.8258420e+02   1.2209560e+01
   7.8306630e+02   1.2479300e+01
   7.8354840e+02   1.2683360e+01
   7.8403050e+02   1.2718900e+01
   7.8451260e+02   1.2554910e+01
   7.8499480e+02   1.2660500e+01
   7.8547690e+02   1.3122930e+01
   7.8595900e+02   1.3646840e+01
   7.8644110e+02   1.3972140e+01
   7.8692320e+02   1.4124810e+01
   7.8740530e+02   1.4097850e+01
   7.8788750e+02   1.3815040e+01
   7.8836960e+02   1.3603660e+01
   7.8885170e+02   1.3764730e+01
   7.8933380e+02   1.3482500e+01
   7.8981590e+02   1.3876570e+01
   7.9029800e+02   1.4061710e+01
   7.9078020e+02   1.4048730e+01
   7.9126230e+02   1.3245910e+01
   7.9174440e+02   1.3446500e+01
   7.9222650e+02   1.3240360e+01
   7.9270860e+02   1.3013860e+01
   7.9319070e+02   1.3345210e+01
   7.9367290e+02   1.2640110e+01
   7.9415500e+02   1.2959150e+01
   7.9463710e+02   1.2866240e+01
   7.9511920e+02   1.2952770e+01
   7.9560130e+02   1.2664250e+01
   7.9608340e+02   1.2501600e+01
   7.9656560e+02   1.2731940e+01
   7.9704770e+02   1.2734460e+01
   7.9752980e+02   1.2517600e+01
   7.9801190e+02   1.2370500e+01
   7.9849400e+02   1.1799500e+01
   7.9897610e+02   1.1429910e+01
   7.9945830e+02   1.1369970e+01
   7.9994040e+02   1.1471800e+01
   8.0042250e+02   1.1451440e+01
   8.0090460e+02   1.1343380e+01
   8.0138670e+02   1.1374590e+01
   8.0186880e+02   1.1643620e+01
   8.0235100e+02   1.1914880e+01
   8.0283310e+02   1.2006960e+01
   8.0331520e+02   1.1934530e+01
   8.0379730e+02   1.1711240e+01
   8.0427940e+02   1.1261040e+01
   8.0476150e+02   1.0794330e+01
   8.0524370e+02   1.0266340e+01
   8.0572580e+02   9.7895030e+00
   8.0620790e+02   9.5207280e+00
   8.0669000e+02   9.5555250e+00
   8.0717210e+02   9.3951230e+00
   8.0765420e+02   8.9410380e+00
   8.0813640e+02   8.4203050e+00
   8.0861850e+02   8.1423070e+00
   8.0910060e+02   8.0470780e+00
   8.0958270e+02   7.9531120e+00
   8.1006480e+02   7.8074060e+00
   8.1054690e+02   7.6976040e+00
   8.1102910e+02   7.7515330e+00
   8.1151120e+02   7.8495850e+00
   8.1199330e+02   7.8532380e+00
   8.1247540e+02   7.7109110e+00
   8.1295750e+02   7.4967550e+00
   8.1343960e+02   7.1443970e+00
   8.1392180e+02   6.7925100e+00
   8.1440390e+02   6.6757250e+00
   8.1488600e+02   6.8261440e+00
   8.1536810e+02   6.6162820e+00
   8.1585020e+02   5.9124460e+00
   8.1633230e+02   5.1264000e+00
   8.1681450e+02   4.8174770e+00
   8.1729660e+02   4.7495990e+00
   8.1777870e+02   4.4493490e+00
   8.1826080e+02   3.6974120e+00
   8.1874290e+02   3.0944900e+00
   8.1922510e+02   2.9222970e+00
   8.1970720e+02   3.0395640e+00
   8.2018930e+02   3.3640270e+00
   8.2067140e+02   4.2704880e+00
   8.2115360e+02   4.4715570e+00
   8.2163570e+02   3.6892370e+00
   8.2211780e+02   2.6971110e+00
   8.2259990e+02   2.3749580e+00
   8.2308200e+02   2.6245130e+00
   8.2356410e+02   2.7991010e+00
   8.2404630e+02   2.8209890e+00
   8.2452840e+02   2.7910650e+00
   8.2501050e+02   2.8928790e+00
   8.2549260e+02   2.9490270e+00
   8.2597470e+02   2.7248240e+00
   8.2645680e+02   2.0934380e+00
   8.2693900e+02   1.4693470e+00
   8.2742110e+02   8.1393000e-01
   8.2790320e+02   3.0115700e-01
   8.2838530e+02   2.8310001e-02
   8.2886740e+02   1.6838999e-02
   8.2934950e+02   3.6286200e-01
   8.2983170e+02   1.2859090e+00
   8.3031380e+02   2.1083870e+00
   8.3079590e+02   2.0582710e+00
   8.3127800e+02   1.4705560e+00
   8.3176010e+02   1.0206880e+00
   8.3224220e+02   7.8439200e-01
   8.3272440e+02   6.7907300e-01
   8.3320650e+02   8.9789600e-01
   8.3368860e+02   1.0579790e+00
   8.3417070e+02   7.8082600e-01
   8.3465280e+02   1.7441900e-01
   8.3513490e+02   5.5689998e-03
   8.3561710e+02   3.3909999e-02
   8.3609920e+02   3.2679500e-01
   8.3658130e+02   1.8715100e-01
   8.3706340e+02   9.0823600e-01
   8.3754550e+02   8.3357300e-01
   8.3802760e+02   5.5110000e-02
   8.3850980e+02   1.8165400e-01
   8.3899190e+02   3.7138000e-02
   8.3947400e+02   5.8488000e-02
   8.3995610e+02   8.6209998e-02
   8.4043820e+02   2.3014800e-01
   8.4092030e+02   1.3569800e-01
   8.4140250e+02   9.1013998e-02
   8.4188460e+02   1.0365500e-01
   8.4236670e+02   1.2353400e-01
   8.4284880e+02   1.4858500e-01
   8.4333090e+02   1.7634001e-02
   8.4381300e+02   4.3929400e-01
   8.4429520e+02   6.9276900e-01
   8.4477730e+02   3.5509700e-01
   8.4525940e+02   2.7651800e-01
   8.4574150e+02   1.4410000e-01
   8.4622360e+02   2.6686600e-01
   8.4670570e+02   1.2211400e-01
   8.4718790e+02   2.8465400e-01
   8.4767000e+02   5.5296000e-02
   8.4815210e+02   1.8235700e-01
   8.4863420e+02   3.9942900e-01
   8.4911630e+02   5.8328800e-01
   8.4959840e+02   7.2460400e-01
   8.5008060e+02   8.4264200e-01
   8.5056270e+02   9.1715300e-01
   8.5104480e+02   9.8385100e-01
   8.5152690e+02   1.2069490e+00
   8.5200900e+02   1.5632440e+00
   8.5249110e+02   1.8845240e+00
   8.5297330e+02   2.1046350e+00
   8.5345540e+02   2.1808450e+00
   8.5393750e+02   1.9515690e+00
   8.5441960e+02   1.5586010e+00
   8.5490170e+02   1.3329450e+00
   8.5538390e+02   1.6050200e+00
   8.5586600e+02   1.7559200e+00
   8.5634810e+02   1.5754350e+00
   8.5683020e+02   1.2566580e+00
   8.5731230e+02   1.1756490e+00
   8.5779440e+02   1.3233400e+00
   8.5827660e+02   1.6721410e+00
   8.5875870e+02   2.3315270e+00
   8.5924080e+02   2.9653490e+00
   8.5972290e+02   2.9100960e+00
   8.6020500e+02   2.4607880e+00
   8.6068710e+02   2.1714840e+00
   8.6116930e+02   2.3169650e+00
   8.6165140e+02   2.4525150e+00
   8.6213350e+02   2.4590320e+00
   8.6261560e+02   2.3786460e+00
   8.6309770e+02   2.2497910e+00
   8.6357980e+02   1.9406060e+00
   8.6406200e+02   1.8052690e+00
   8.6454410e+02   1.9521320e+00
   8.6502620e+02   2.2257620e+00
   8.6550830e+02   2.4979170e+00
   8.6599040e+02   2.6917590e+00
   8.6647260e+02   2.6394020e+00
   8.6695470e+02   2.2582600e+00
   8.6743680e+02   2.0013890e+00
   8.6791890e+02   2.4318340e+00
   8.6840110e+02   2.9983980e+00
   8.6888320e+02   3.1507790e+00
   8.6936530e+02   2.5419270e+00
   8.6984740e+02   2.2428060e+00
   8.7032950e+02   2.3849570e+00
   8.7081160e+02   2.6407460e+00
   8.7129380e+02   2.6675780e+00
   8.7177590e+02   2.5105070e+00
   8.7225800e+02   2.6286420e+00
   8.7274010e+02   3.0509420e+00
   8.7322220e+02   3.5339200e+00
   8.7370430e+02   3.9248990e+00
   8.7418650e+02   4.2132100e+00
   8.7466860e+02   4.4004350e+00
   8.7515070e+02   4.4958320e+00
   8.7563280e+02   4.5008980e+00
   8.7611490e+02   4.3605290e+00
   8.7659700e+02   4.1806860e+00
   8.7707920e+02   3.9707930e+00
   8.7756130e+02   3.7413130e+00
   8.7804340e+02   3.6684180e+00
   8.7852550e+02   3.7674470e+00
   8.7900760e+02   3.7782220e+00
   8.7948970e+02   3.3823450e+00
   8.7997190e+02   2.8983820e+00
   8.8045400e+02   2.8740790e+00
   8.8093610e+02   3.1784500e+00
   8.8141820e+02   3.3582750e+00
   8.8190030e+02   2.9049020e+00
   8.8238240e+02   2.6587310e+00
   8.8286460e+02   3.1347800e+00
   8.8334670e+02   3.9920100e+00
   8.8382880e+02   4.3252290e+00
   8.8431090e+02   4.0296280e+00
   8.8479300e+02   3.8017970e+00
   8.8527510e+02   3.8373380e+00
   8.8575730e+02   3.9892240e+00
   8.8623940e+02   3.9713820e+00
   8.8672150e+02   3.8882970e+00
   8.8720360e+02   4.0202730e+00
   8.8768570e+02   4.6607560e+00
   8.8816780e+02   5.1891380e+00
   8.8865000e+02   5.2830660e+00
   8.8913210e+02   5.1151820e+00
   8.8961420e+02   4.9144310e+00
   8.9009630e+02   4.6612990e+00
   8.9057840e+02   4.4760510e+00
   8.9106050e+02   4.4018490e+00
   8.9154270e+02   4.3410630e+00
   8.9202480e+02   4.1281190e+00
   8.9250690e+02   3.7776830e+00
   8.9298900e+02   3.4373030e+00
   8.9347110e+02   3.1438610e+00
   8.9395320e+02   2.9068400e+00
   8.9443540e+02   2.7783600e+00
   8.9491750e+02   2.7311400e+00
   8.9539960e+02   2.7489040e+00
   8.9588170e+02   2.8080300e+00
   8.9636380e+02   2.8984270e+00
   8.9684590e+02   3.1841540e+00
   8.9732810e+02   3.3263500e+00
   8.9781020e+02   2.8667680e+00
   8.9829230e+02   1.9706400e+00
   8.9877440e+02   1.8886810e+00
   8.9925650e+02   2.5610490e+00
   8.9973860e+02   3.1325640e+00
   9.0022080e+02   2.8431430e+00
   9.0070290e+02   2.4264090e+00
   9.0118500e+02   2.5001410e+00
   9.0166710e+02   2.9704830e+00
   9.0214920e+02   3.1996290e+00
   9.0263130e+02   3.1338360e+00
   9.0311350e+02   2.8909880e+00
   9.0359560e+02   2.4415620e+00
   9.0407770e+02   1.8401060e+00
   9.0455980e+02   1.2970870e+00
   9.0504190e+02   8.2941000e-01
   9.0552400e+02   5.9723100e-01
   9.0600620e+02   7.6292500e-01
   9.0648830e+02   9.5936100e-01
   9.0697040e+02   7.4135200e-01
   9.0745250e+02   3.6657100e-01
   9.0793460e+02   2.5152900e-01
   9.0841670e+02   1.0257340e+00
   9.0889890e+02   1.2824420e+00
   9.0938100e+02   6.6245500e-01
   9.0986310e+02   1.7547000e-02
   9.1034520e+02   1.7187800e-01
   9.1082730e+02   5.4879999e-03
   9.1130940e+02   2.2817800e-01
   9.1179160e+02   1.7794400e-01
   9.1227370e+02   2.4859000e-02
   9.1275580e+02   1.0603000e-01
   9.1323800e+02   6.0164999e-02
   9.1372010e+02   1.2279100e-01
   9.1420220e+02   4.3259100e-01
   9.1468430e+02   5.0153100e-01
   9.1516640e+02   4.3287002e-02
   9.1564860e+02   1.4330000e-03
   9.1613070e+02   4.0477000e-02
   9.1661280e+02   1.4264900e-01
   9.1709490e+02   1.9329100e-01
   9.1757700e+02   5.7905100e-01
   9.1805910e+02   7.1952500e-01
   9.1854130e+02   4.9428001e-02
   9.1902340e+02   1.9739300e-01
   9.1950550e+02   5.4299999e-02
   9.1998760e+02   4.8858800e-01
   9.2046970e+02   9.5250700e-01
   9.2095180e+02   1.5337700e-01
   9.2143400e+02   2.1359700e-01
   9.2191610e+02   2.4840100e-01
   9.2239820e+02   8.9305000e-01
   9.2288030e+02   1.1208070e+00
   9.2336240e+02   4.6450800e-01
   9.2384450e+02   7.3815003e-02
   9.2432670e+02   1.8979900e-01
   9.2480880e+02   1.2606900e-01
   9.2529090e+02   1.0651300e-01
   9.2577300e+02   1.0066900e-01
   9.2625510e+02   5.4653000e-02
   9.2673720e+02   1.6251300e-01
   9.2721940e+02   1.9704900e-01
   9.2770150e+02   7.4979998e-02
   9.2818360e+02   4.0748000e-01
   9.2866570e+02   1.2096700e-01
   9.2914780e+02   1.0775600e-01
   9.2962990e+02   1.0260500e-01
   9.3011210e+02   1.5923800e-01
   9.3059420e+02   4.0327500e-01
   9.3107630e+02   3.4081000e-01
   9.3155840e+02   1.6904500e-01
   9.3204050e+02   9.7075000e-02
   9.3252260e+02   1.4541200e-01
   9.3300480e+02   1.9814900e-01
   9.3348690e+02   2.4650000e-01
   9.3396900e+02   2.7515000e-01
   9.3445110e+02   2.6461600e-01
   9.3493320e+02   2.3218700e-01
   9.3541530e+02   2.9592900e-01
   9.3589750e+02   4.4939500e-01
   9.3637960e+02   5.3242900e-01
   9.3686170e+02   4.4601200e-01
   9.3734380e+02   2.8670400e-01
   9.3782590e+02   1.8548500e-01
   9.3830800e+02   7.9162002e-02
   9.3879020e+02   1.5480800e-01
   9.3927230e+02   8.7809300e-01
   9.3975440e+02   1.2546440e+00
   9.4023650e+02   1.0410770e+00
   9.4071860e+02   6.3275600e-01
   9.4120070e+02   6.3302900e-01
   9.4168290e+02   9.9461900e-01
   9.4216500e+02   1.1025200e+00
   9.4264710e+02   8.4145400e-01
   9.4312920e+02   6.0230800e-01
   9.4361130e+02   8.2861600e-01
   9.4409340e+02   1.1996860e+00
   9.4457560e+02   1.4288060e+00
   9.4505770e+02   1.4772730e+00
   9.4553980e+02   1.3246720e+00
   9.4602190e+02   8.1229800e-01
   9.4650400e+02   3.8262000e-01
   9.4698610e+02   3.3017700e-01
   9.4746830e+02   5.6207800e-01
   9.4795040e+02   4.2668700e-01
   9.4843250e+02   1.6974000e-02
   9.4891460e+02   2.5939400e-01
   9.4939670e+02   2.5590300e-01
   9.4987880e+02   8.4436500e-01
   9.5036100e+02   9.5414700e-01
   9.5084310e+02   7.3043500e-01
   9.5132520e+02   6.2392300e-01
   9.5180730e+02   7.9581600e-01
   9.5228940e+02   8.5203800e-01
   9.5277150e+02   6.9002100e-01
   9.5325370e+02   4.5971300e-01
   9.5373580e+02   4.7990200e-01
   9.5421790e+02   6.5965500e-01
   9.5470000e+02   5.5963800e-01
   9.5518210e+02   2.0079999e-03
   9.5566420e+02   4.0186900e-01
   9.5614640e+02   8.6401999e-02
   9.5662850e+02   4.9105800e-01
   9.5711060e+02   9.5785800e-01
   9.5759270e+02   1.3087220e+00
   9.5807480e+02   1.3592550e+00
   9.5855690e+02   9.5313700e-01
   9.5903910e+02   6.6659700e-01
   9.5952120e+02   1.0326900e+00
   9.6000330e+02   1.7835710e+00
   9.6048550e+02   2.0903140e+00
   9.6096760e+02   2.0197460e+00
   9.6144970e+02   1.9550370e+00
   9.6193180e+02   1.3178630e+00
   9.6241390e+02   1.8906510e+00
   9.6289610e+02   2.2582240e+00
   9.6337820e+02   2.4314550e+00
   9.6386030e+02   1.8259870e+00
   9.6434240e+02   2.2277880e+00
   9.6482450e+02   2.2269060e+00
   9.6530660e+02   2.2101540e+00
   9.6578880e+02   2.7548390e+00
   9.6627090e+02   2.2662070e+00
   9.6675300e+02   2.8041980e+00
   9.6723510e+02   2.9333230e+00
   9.6771720e+02   3.2336890e+00
   9.6819930e+02   4.2423680e+00
   9.6868150e+02   3.7246030e+00
   9.6916360e+02   4.3137210e+00
   9.6964570e+02   4.6964090e+00
   9.7012780e+02   4.8783540e+00
   9.7060990e+02   4.2725360e+00
   9.7109200e+02   4.6732300e+00
   9.7157420e+02   4.6748600e+00
   9.7205630e+02   4.6514320e+00
   9.7253840e+02   5.1875230e+00
   9.7302050e+02   4.7013780e+00
   9.7350260e+02   5.2482030e+00
   9.7398470e+02   5.3888600e+00
   9.7446690e+02   5.7037240e+00
   9.7494900e+02   5.6185500e+00
   9.7543110e+02   5.6446020e+00
   9.7591320e+02   6.0715970e+00
   9.7639530e+02   6.2964560e+00
   9.7687740e+02   6.1826510e+00
   9.7735960e+02   6.5239190e+00
   9.7784170e+02   5.9484900e+00
   9.7832380e+02   6.0152710e+00
   9.7880590e+02   6.9103600e+00
   9.7928800e+02   7.9337640e+00
   9.7977010e+02   8.2277510e+00
   9.8025230e+02   7.3783090e+00
   9.8073440e+02   6.7544730e+00
   9.8121650e+02   6.4100170e+00
   9.8169860e+02   6.3601170e+00
   9.8218070e+02   6.7341880e+00
   9.8266280e+02   7.4093330e+00
   9.8314500e+02   7.8203280e+00
   9.8362710e+02   7.9876220e+00
   9.8410920e+02   8.0467130e+00
   9.8459130e+02   8.1311830e+00
   9.8507340e+02   8.0642620e+00
   9.8555550e+02   7.4884680e+00
   9.8603770e+02   6.7103440e+00
   9.8651980e+02   6.6362500e+00
   9.8700190e+02   7.5594810e+00
   9.8748400e+02   8.1517580e+00
   9.8796610e+02   8.1548720e+00
   9.8844820e+02   7.8837720e+00
   9.8893040e+02   7.6845940e+00
   9.8941250e+02   7.5824150e+00
   9.8989460e+02   7.6463950e+00
   9.9037670e+02   7.9164660e+00
   9.9085880e+02   8.1140960e+00
   9.9134090e+02   8.1328330e+00
   9.9182310e+02   8.0360690e+00
   9.9230520e+02   7.8687010e+00
   9.9278730e+02   7.6344070e+00
   9.9326940e+02   7.1934540e+00
   9.9375150e+02   6.5236480e+00
   9.9423360e+02   6.1272510e+00
   9.9471580e+02   6.5687790e+00
   9.9519790e+02   7.1885040e+00
   9.9568000e+02   7.0788640e+00
   9.9616210e+02   6.5517910e+00
   9.9664420e+02   6.3362020e+00
   9.9712630e+02   7.1465630e+00
   9.9760850e+02   7.5172800e+00
   9.9809060e+02   7.1119370e+00
   9.9857270e+02   6.4783030e+00
   9.9905480e+02   6.4009030e+00
   9.9953690e+02   6.7609310e+00
   1.0000190e+03   6.6874370e+00
   1.0005010e+03   6.0438840e+00
   1.0009830e+03   5.6641280e+00
   1.0014650e+03   6.6474070e+00
   1.0019480e+03   7.7443010e+00
   1.0024300e+03   7.8145480e+00
   1.0029120e+03   6.7901910e+00
   1.0033940e+03   6.4775440e+00
   1.0038760e+03   7.1697070e+00
   1.0043580e+03   7.5875660e+00
   1.0048400e+03   7.0870900e+00
   1.0053220e+03   6.2046320e+00
   1.0058040e+03   5.9418660e+00
   1.0062870e+03   6.1494710e+00
   1.0067690e+03   6.4486900e+00
   1.0072510e+03   6.7109810e+00
   1.0077330e+03   7.0614840e+00
   1.0082150e+03   7.6161670e+00
   1.0086970e+03   8.2289300e+00
   1.0091790e+03   8.8203560e+00
   1.0096610e+03   9.4072390e+00
   1.0101440e+03   9.6792010e+00
   1.0106260e+03   9.6078670e+00
   1.0111080e+03   9.5192910e+00
   1.0115900e+03   9.7668320e+00
   1.0120720e+03   1.0063170e+01
   1.0125540e+03   9.9637890e+00
   1.0130360e+03   9.5547740e+00
   1.0135180e+03   9.6371630e+00
   1.0140000e+03   1.0714680e+01
   1.0144830e+03   1.1673200e+01
   1.0149650e+03   1.2249550e+01
   1.0154470e+03   1.2568570e+01
   1.0159290e+03   1.2743800e+01
   1.0164110e+03   1.2875440e+01
   1.0168930e+03   1.3374780e+01
   1.0173750e+03   1.4447380e+01
   1.0178570e+03   1.5551100e+01
   1.0183400e+03   1.6342980e+01
   1.0188220e+03   1.7024880e+01
   1.0193040e+03   1.7792450e+01
   1.0197860e+03   1.8670410e+01
   1.0202680e+03   1.9476850e+01
   1.0207500e+03   2.0219280e+01
   1.0212320e+03   2.0835380e+01
   1.0217140e+03   2.1283630e+01
   1.0221960e+03   2.1582080e+01
   1.0226790e+03   2.1653100e+01
   1.0231610e+03   2.1590880e+01
   1.0236430e+03   2.1667370e+01
   1.0241250e+03   2.1905320e+01
   1.0246070e+03   2.2420280e+01
   1.0250890e+03   2.3369230e+01
   1.0255710e+03   2.4430550e+01
   1.0260530e+03   2.5152140e+01
   1.0265360e+03   2.5558610e+01
   1.0270180e+03   2.5931920e+01
   1.0275000e+03   2.6311900e+01
   1.0279820e+03   2.6563520e+01
   1.0284640e+03   2.6464100e+01
   1.0289460e+03   2.6294070e+01
   1.0294280e+03   2.6269950e+01
   1.0299100e+03   2.6414860e+01
   1.0303920e+03   2.6673670e+01
   1.0308750e+03   2.7126800e+01
   1.0313570e+03   2.7453530e+01
   1.0318390e+03   2.7531160e+01
   1.0323210e+03   2.7380240e+01
   1.0328030e+03   2.6907350e+01
   1.0332850e+03   2.6233510e+01
   1.0337670e+03   2.5661750e+01
   1.0342490e+03   2.5275460e+01
   1.0347320e+03   2.4975130e+01
   1.0352140e+03   2.4973560e+01
   1.0356960e+03   2.4867980e+01
   1.0361780e+03   2.4306300e+01
   1.0366600e+03   2.3282860e+01
   1.0371420e+03   2.2481280e+01
   1.0376240e+03   2.1887940e+01
   1.0381060e+03   2.1358040e+01
   1.0385890e+03   2.1053040e+01
   1.0390710e+03   2.0684270e+01
   1.0395530e+03   1.9923440e+01
   1.0400350e+03   1.8923030e+01
   1.0405170e+03   1.8204660e+01
   1.0409990e+03   1.7857230e+01
   1.0414810e+03   1.7638620e+01
   1.0419630e+03   1.7526290e+01
   1.0424450e+03   1.7417340e+01
   1.0429270e+03   1.7206940e+01
   1.0434100e+03   1.6867010e+01
   1.0438920e+03   1.6279550e+01
   1.0443740e+03   1.5434210e+01
   1.0448560e+03   1.4624220e+01
   1.0453380e+03   1.3882080e+01
   1.0458200e+03   1.3270310e+01
   1.0463020e+03   1.2833830e+01
   1.0467840e+03   1.2554320e+01
   1.0472670e+03   1.2353100e+01
   1.0477490e+03   1.2212750e+01
   1.0482310e+03   1.1979730e+01
   1.0487130e+03   1.1596240e+01
   1.0491950e+03   1.1167060e+01
   1.0496770e+03   1.0775330e+01
   1.0501590e+03   1.0372090e+01
   1.0506410e+03   9.8488280e+00
   1.0511240e+03   9.0376650e+00
   1.0516060e+03   8.6068760e+00
   1.0520880e+03   8.6378150e+00
   1.0525700e+03   8.7069750e+00
   1.0530520e+03   8.5466490e+00
   1.0535340e+03   8.2002160e+00
   1.0540160e+03   7.5912030e+00
   1.0544980e+03   6.8172770e+00
   1.0549800e+03   6.3099510e+00
   1.0554630e+03   6.5429710e+00
   1.0559450e+03   6.6439190e+00
   1.0564270e+03   6.3968150e+00
   1.0569090e+03   5.9688260e+00
   1.0573910e+03   5.5251390e+00
   1.0578730e+03   5.0731870e+00
   1.0583550e+03   4.8817030e+00
   1.0588370e+03   5.0051090e+00
   1.0593190e+03   5.1510540e+00
   1.0598020e+03   5.0393850e+00
   1.0602840e+03   4.9268500e+00
   1.0607660e+03   5.0731640e+00
   1.0612480e+03   5.4474150e+00
   1.0617300e+03   5.5110450e+00
   1.0622120e+03   5.1645730e+00
   1.0626940e+03   4.8406330e+00
   1.0631760e+03   4.7724150e+00
   1.0636590e+03   4.8157630e+00
   1.0641410e+03   4.7354450e+00
   1.0646230e+03   4.5628400e+00
   1.0651050e+03   4.4237340e+00
   1.0655870e+03   4.2805260e+00
   1.0660690e+03   4.3726620e+00
   1.0665510e+03   4.9552220e+00
   1.0670330e+03   5.4088720e+00
   1.0675160e+03   5.1053600e+00
   1.0679980e+03   4.2401360e+00
   1.0684800e+03   4.0444080e+00
   1.0689620e+03   4.3883750e+00
   1.0694440e+03   4.5266400e+00
   1.0699260e+03   3.5859120e+00
   1.0704080e+03   2.8224720e+00
   1.0708900e+03   3.1118800e+00
   1.0713720e+03   3.8543910e+00
   1.0718540e+03   4.1771800e+00
   1.0723370e+03   4.0507990e+00
   1.0728190e+03   3.4561840e+00
   1.0733010e+03   2.3291970e+00
   1.0737830e+03   1.4308000e+00
   1.0742650e+03   1.7258120e+00
   1.0747470e+03   2.4310700e+00
   1.0752290e+03   2.8446950e+00
   1.0757110e+03   2.9151340e+00
   1.0761940e+03   2.7711650e+00
   1.0766760e+03   2.3458980e+00
   1.0771580e+03   1.9167350e+00
   1.0776400e+03   1.5279140e+00
   1.0781220e+03   1.2357680e+00
   1.0786040e+03   1.2066220e+00
   1.0790860e+03   1.3263720e+00
   1.0795680e+03   1.3592250e+00
   1.0800510e+03   1.2362300e+00
   1.0805330e+03   1.0730740e+00
   1.0810150e+03   8.4364100e-01
   1.0814970e+03   6.5734600e-01
   1.0819790e+03   5.8794200e-01
   1.0824610e+03   6.1625600e-01
   1.0829430e+03   6.2902500e-01
   1.0834250e+03   6.2335900e-01
   1.0839070e+03   5.3578200e-01
   1.0843900e+03   2.1038200e-01
   1.0848720e+03   6.2442001e-02
   1.0853540e+03   1.6882000e-02
   1.0858360e+03   1.9351300e-01
   1.0863180e+03   1.1359100e-01
   1.0868000e+03   3.1903300e-01
   1.0872820e+03   6.6220600e-01
   1.0877640e+03   4.1495800e-01
   1.0882470e+03   3.0122500e-01
   1.0887290e+03   5.7236000e-01
   1.0892110e+03   3.3076700e-01
   1.0896930e+03   3.0951200e-01
   1.0901750e+03   5.5503400e-01
   1.0906570e+03   4.9612700e-01
   1.0911390e+03   5.4351400e-01
   1.0916210e+03   3.8601400e-01
   1.0921040e+03   1.0894000e-01
   1.0925860e+03   5.1584400e-01
   1.0930680e+03   2.7681500e-01
   1.0935500e+03   3.9063000e-01
   1.0940320e+03   1.0646800e-01
   1.0945140e+03   8.9950100e-01
   1.0949960e+03   1.1923660e+00
   1.0954780e+03   2.6931300e-01
   1.0959600e+03   2.6759900e-01
   1.0964430e+03   3.2777000e-01
   1.0969250e+03   5.9015000e-01
   1.0974070e+03   5.8219500e-01
   1.0978890e+03   3.2292200e-01
   1.0983710e+03   6.2797002e-02
   1.0988530e+03   2.1329500e-01
   1.0993350e+03   2.1912200e-01
   1.0998170e+03   3.4164100e-01
   1.1002990e+03   1.9821000e-01
   1.1007820e+03   3.1470500e-01
   1.1012640e+03   4.8992200e-01
   1.1017460e+03   6.1473600e-01
   1.1022280e+03   1.3037400e-01
   1.1027100e+03   6.0911998e-02
   1.1031920e+03   7.6578997e-02
   1.1036740e+03   1.8648100e-01
   1.1041560e+03   1.1510200e-01
   1.1046390e+03   2.2694200e-01
   1.1051210e+03   2.9099000e-01
   1.1056030e+03   1.8296800e-01
   1.1060850e+03   2.0106300e-01
   1.1065670e+03   1.5999900e-01
   1.1070490e+03   5.9997998e-02
   1.1075310e+03   2.0345300e-01
   1.1080130e+03   2.8895900e-01
   1.1084950e+03   3.9428200e-01
   1.1089780e+03   4.9627700e-01
   1.1094600e+03   4.9564700e-01
   1.1099420e+03   2.2750500e-01
   1.1104240e+03   3.2042999e-02
   1.1109060e+03   7.4900000e-04
   1.1113880e+03   1.9384000e-02
   1.1118700e+03   5.9916999e-02
   1.1123520e+03   1.5647000e-01
   1.1128340e+03   5.2280001e-02
   1.1133170e+03   2.8926400e-01
   1.1137990e+03   3.8149800e-01
   1.1142810e+03   1.9409999e-02
   1.1147630e+03   2.1736000e-02
   1.1152450e+03   2.3159999e-02
   1.1157270e+03   4.8661999e-02
   1.1162090e+03   2.1137700e-01
   1.1166910e+03   4.9392900e-01
   1.1171740e+03   4.8616400e-01
   1.1176560e+03   7.2126999e-02
   1.1181380e+03   1.1274900e-01
   1.1186200e+03   3.9703100e-01
   1.1191020e+03   4.1436800e-01
   1.1195840e+03   7.3409998e-03
   1.1200660e+03   1.2041300e+00
   1.1205480e+03   1.3238730e+00
   1.1210310e+03   1.5485900e-01
   1.1215130e+03   5.3051200e-01
   1.1219950e+03   4.1165600e-01
   1.1224770e+03   6.9214001e-02
   1.1229590e+03   2.0968200e-01
   1.1234410e+03   3.3004600e-01
   1.1239230e+03   3.6074600e-01
   1.1244050e+03   1.9894900e-01
   1.1248870e+03   3.8032400e-01
   1.1253700e+03   1.0998310e+00
   1.1258520e+03   1.6249050e+00
   1.1263340e+03   1.3387380e+00
   1.1268160e+03   7.0214900e-01
   1.1272980e+03   7.8018500e-01
   1.1277800e+03   1.2857410e+00
   1.1282620e+03   1.5322810e+00
   1.1287440e+03   7.8514900e-01
   1.1292270e+03   5.3632900e-01
   1.1297090e+03   1.1815000e+00
   1.1301910e+03   1.9331720e+00
   1.1306730e+03   2.0432440e+00
   1.1311550e+03   1.6906670e+00
   1.1316370e+03   1.5597950e+00
   1.1321190e+03   1.6363400e+00
   1.1326010e+03   1.7429730e+00
   1.1330830e+03   1.7129180e+00
   1.1335660e+03   1.8061560e+00
   1.1340480e+03   2.3145850e+00
   1.1345300e+03   2.8100810e+00
   1.1350120e+03   2.5905390e+00
   1.1354940e+03   1.7444310e+00
   1.1359760e+03   1.1880130e+00
   1.1364580e+03   9.9832800e-01
   1.1369400e+03   1.0292030e+00
   1.1374220e+03   1.3232940e+00
   1.1379050e+03   1.6658320e+00
   1.1383870e+03   1.9928010e+00
   1.1388690e+03   2.2540530e+00
   1.1393510e+03   2.3280840e+00
   1.1398330e+03   2.2173110e+00
   1.1403150e+03   1.8930570e+00
   1.1407970e+03   1.2734230e+00
   1.1412790e+03   9.8485600e-01
   1.1417620e+03   2.1247220e+00
   1.1422440e+03   3.4236960e+00
   1.1427260e+03   3.5972800e+00
   1.1432080e+03   2.6861370e+00
   1.1436900e+03   2.4827010e+00
   1.1441720e+03   3.1817970e+00
   1.1446540e+03   3.3707300e+00
   1.1451360e+03   1.2047490e+00
   1.1456190e+03   1.7057080e+00
   1.1461010e+03   2.0023900e+00
   1.1465830e+03   2.0950190e+00
   1.1470650e+03   1.4235120e+00
   1.1475470e+03   1.7589820e+00
   1.1480290e+03   1.6747840e+00
   1.1485110e+03   1.5749130e+00
   1.1489930e+03   2.0340040e+00
   1.1494750e+03   1.4680600e+00
   1.1499580e+03   1.9504900e+00
   1.1504400e+03   2.0227810e+00
   1.1509220e+03   2.5395490e+00
   1.1514040e+03   2.3880890e+00
   1.1518860e+03   2.5938750e+00
   1.1523680e+03   2.6668160e+00
   1.1528500e+03   2.6346660e+00
   1.1533320e+03   2.5136090e+00
   1.1538140e+03   2.0968600e+00
   1.1542970e+03   1.5986030e+00
   1.1547790e+03   1.6289910e+00
   1.1552610e+03   2.0205790e+00
   1.1557430e+03   2.3198070e+00
   1.1562250e+03   2.1361320e+00
   1.1567070e+03   2.1823480e+00
   1.1571890e+03   2.7940340e+00
   1.1576710e+03   3.3029490e+00
   1.1581540e+03   2.9684120e+00
   1.1586360e+03   2.0559470e+00
   1.1591180e+03   1.7858640e+00
   1.1596000e+03   2.0301990e+00
   1.1600820e+03   2.1935130e+00
   1.1605640e+03   1.8383470e+00
   1.1610460e+03   1.5768970e+00
   1.1615280e+03   1.6634920e+00
   1.1620100e+03   1.8374860e+00
   1.1624930e+03   1.6976690e+00
   1.1629750e+03   1.3363940e+00
   1.1634570e+03   1.5429450e+00
   1.1639390e+03   2.2777180e+00
   1.1644210e+03   2.7152580e+00
   1.1649030e+03   2.0078730e+00
   1.1653850e+03   1.3244940e+00
   1.1658670e+03   1.1921020e+00
   1.1663490e+03   1.4014570e+00
   1.1668320e+03   1.7505450e+00
   1.1673140e+03   2.2154550e+00
   1.1677960e+03   2.2687750e+00
   1.1682780e+03   1.8319750e+00
   1.1687600e+03   1.5305300e+00
   1.1692420e+03   2.1557890e+00
   1.1697240e+03   2.7131590e+00
   1.1702060e+03   2.4165840e+00
   1.1706890e+03   1.6582970e+00
   1.1711710e+03   1.3445300e+00
   1.1716530e+03   1.4593990e+00
   1.1721350e+03   1.6254940e+00
   1.1726170e+03   1.7775750e+00
   1.1730990e+03   1.9108430e+00
   1.1735810e+03   2.1093920e+00
   1.1740630e+03   2.2164200e+00
   1.1745460e+03   1.9960750e+00
   1.1750280e+03   1.5342030e+00
   1.1755100e+03   1.2283840e+00
   1.1759920e+03   1.0724240e+00
   1.1764740e+03   9.9241700e-01
   1.1769560e+03   9.7708800e-01
   1.1774380e+03   1.0828680e+00
   1.1779200e+03   1.5083480e+00
   1.1784020e+03   1.9177850e+00
   1.1788850e+03   1.9602670e+00
   1.1793670e+03   1.6178120e+00
   1.1798490e+03   1.3712100e+00
   1.1803310e+03   1.2442370e+00
   1.1808130e+03   1.0652460e+00
   1.1812950e+03   6.5138600e-01
   1.1817770e+03   3.2167900e-01
   1.1822590e+03   5.3133300e-01
   1.1827420e+03   9.7829300e-01
   1.1832240e+03   1.3528210e+00
   1.1837060e+03   1.6224160e+00
   1.1841880e+03   1.6607620e+00
   1.1846700e+03   1.4128750e+00
   1.1851520e+03   1.3082920e+00
   1.1856340e+03   1.6892490e+00
   1.1861160e+03   2.0359180e+00
   1.1865990e+03   1.5145020e+00
   1.1870810e+03   6.9263300e-01
   1.1875630e+03   4.1345000e-01
   1.1880450e+03   9.4120900e-01
   1.1885270e+03   1.1940350e+00
   1.1890090e+03   1.1384530e+00
   1.1894910e+03   9.6947300e-01
   1.1899730e+03   7.0699200e-01
   1.1904550e+03   4.9362100e-01
   1.1909380e+03   5.2759400e-01
   1.1914200e+03   7.2532000e-01
   1.1919020e+03   9.6690100e-01
   1.1923840e+03   1.2718740e+00
   1.1928660e+03   1.5167020e+00
   1.1933480e+03   1.7228500e+00
   1.1938300e+03   1.7403060e+00
   1.1943120e+03   1.3753070e+00
   1.1947940e+03   8.7532500e-01
   1.1952770e+03   3.4453100e-01
   1.1957590e+03   8.6179003e-02
   1.1962410e+03   3.7207998e-02
   1.1967230e+03   8.9548400e-01
   1.1972050e+03   1.4415750e+00
   1.1976870e+03   1.5270920e+00
   1.1981690e+03   1.4849080e+00
   1.1986510e+03   1.5512630e+00
   1.1991340e+03   1.6505010e+00
   1.1996160e+03   1.7228210e+00
   1.2000980e+03   1.7490430e+00
   1.2005800e+03   1.7054470e+00
   1.2010620e+03   1.5935700e+00
   1.2015440e+03   1.3394510e+00
   1.2020260e+03   8.5359400e-01
   1.2025080e+03   6.0048500e-01
   1.2029900e+03   1.2656790e+00
   1.2034730e+03   2.2035130e+00
   1.2039550e+03   2.4861820e+00
   1.2044370e+03   2.2747520e+00
   1.2049190e+03   2.2025390e+00
   1.2054010e+03   2.5660510e+00
   1.2058830e+03   2.5565870e+00
   1.2063650e+03   2.0291070e+00
   1.2068470e+03   1.4705700e+00
   1.2073290e+03   1.2827250e+00
   1.2078120e+03   1.3719840e+00
   1.2082940e+03   1.8451550e+00
   1.2087760e+03   2.5150900e+00
   1.2092580e+03   2.5582180e+00
   1.2097400e+03   1.6033970e+00
   1.2102220e+03   8.3015000e-01
   1.2107040e+03   3.5856800e-01
   1.2111860e+03   9.7388998e-02
   1.2116690e+03   7.8841999e-02
   1.2121510e+03   9.3327999e-02
   1.2126330e+03   3.6002800e-01
   1.2131150e+03   1.1397340e+00
   1.2135970e+03   1.3487260e+00
   1.2140790e+03   7.1803100e-01
   1.2145610e+03   2.0496400e-01
   1.2150430e+03   1.0005100e-01
   1.2155260e+03   1.3902400e-01
   1.2160080e+03   3.7233100e-01
   1.2164900e+03   9.9919600e-01
   1.2169720e+03   1.1774750e+00
   1.2174540e+03   9.4144000e-01
   1.2179360e+03   7.9399200e-01
   1.2184180e+03   8.1929000e-01
   1.2189000e+03   7.2417300e-01
   1.2193820e+03   4.1719100e-01
   1.2198650e+03   1.7305300e-01
   1.2203470e+03   3.4431800e-01
   1.2208290e+03   7.0565600e-01
   1.2213110e+03   1.1514860e+00
   1.2217930e+03   1.5946160e+00
   1.2222750e+03   1.5056830e+00
   1.2227570e+03   6.4471900e-01
   1.2232390e+03   2.3687900e-01
   1.2237220e+03   5.9543200e-01
   1.2242040e+03   1.0457410e+00
   1.2246860e+03   6.1589400e-01
   1.2251680e+03   3.0138001e-02
   1.2256500e+03   1.7948800e-01
   1.2261320e+03   1.0225330e+00
   1.2266140e+03   1.3036690e+00
   1.2270960e+03   9.0310500e-01
   1.2275780e+03   5.5894500e-01
   1.2280610e+03   4.3161600e-01
   1.2285430e+03   3.8311600e-01
   1.2290250e+03   1.0038400e-01
   1.2295070e+03   4.5517001e-02
   1.2299890e+03   5.5545400e-01
   1.2304710e+03   1.7688800e+00
   1.2309530e+03   2.0870480e+00
   1.2314350e+03   1.3998070e+00
   1.2319170e+03   7.7532800e-01
   1.2324000e+03   4.3369900e-01
   1.2328820e+03   3.2320200e-01
   1.2333640e+03   5.8114300e-01
   1.2338460e+03   8.9362000e-01
   1.2343280e+03   9.1714300e-01
   1.2348100e+03   7.1479100e-01
   1.2352920e+03   7.9135300e-01
   1.2357740e+03   1.1695830e+00
   1.2362570e+03   1.3032550e+00
   1.2367390e+03   1.0372440e+00
   1.2372210e+03   6.3621400e-01
   1.2377030e+03   1.2994600e-01
   1.2381850e+03   2.5519300e-01
   1.2386670e+03   2.6109400e-01
   1.2391490e+03   1.8347999e-02
   1.2396310e+03   2.2893400e-01
   1.2401140e+03   3.7266600e-01
   1.2405960e+03   5.3637000e-01
   1.2410780e+03   7.5285800e-01
   1.2415600e+03   9.0450100e-01
   1.2420420e+03   8.2893300e-01
   1.2425240e+03   7.2674700e-01
   1.2430060e+03   7.5189300e-01
   1.2434880e+03   8.5402200e-01
   1.2439700e+03   8.1480000e-01
   1.2444530e+03   6.7040900e-01
   1.2449350e+03   8.0942300e-01
   1.2454170e+03   1.4260200e+00
   1.2458990e+03   1.8036310e+00
   1.2463810e+03   1.2226540e+00
   1.2468630e+03   5.5991400e-01
   1.2473450e+03   3.0304900e-01
   1.2478270e+03   3.5042500e-01
   1.2483090e+03   4.2627700e-01
   1.2487920e+03   5.2769400e-01
   1.2492740e+03   6.3920200e-01
   1.2497560e+03   7.7980000e-01
   1.2502380e+03   9.1258500e-01
   1.2507200e+03   1.1963770e+00
   1.2512020e+03   1.2051760e+00
   1.2516840e+03   6.0566700e-01
   1.2521660e+03   2.3436900e-01
   1.2526490e+03   3.0116700e-01
   1.2531310e+03   1.8473000e-01
   1.2536130e+03   5.5869800e-01
   1.2540950e+03   6.5909600e-01
   1.2545770e+03   7.9905700e-01
   1.2550590e+03   1.2223900e+00
   1.2555410e+03   1.4768700e+00
   1.2560230e+03   1.3545950e+00
   1.2565050e+03   1.0306810e+00
   1.2569880e+03   7.6040800e-01
   1.2574700e+03   5.8798600e-01
   1.2579520e+03   6.9572300e-01
   1.2584340e+03   1.1534880e+00
   1.2589160e+03   1.4238030e+00
   1.2593980e+03   1.3826830e+00
   1.2598800e+03   1.3040680e+00
   1.2603620e+03   1.2390990e+00
   1.2608440e+03   1.2188260e+00
   1.2613270e+03   1.3626350e+00
   1.2618090e+03   1.5532390e+00
   1.2622910e+03   1.5924050e+00
   1.2627730e+03   1.4327600e+00
   1.2632550e+03   1.2768940e+00
   1.2637370e+03   1.1506200e+00
   1.2642190e+03   9.8965100e-01
   1.2647010e+03   7.7121900e-01
   1.2651840e+03   5.6771700e-01
   1.2656660e+03   4.8694400e-01
   1.2661480e+03   4.6270800e-01
   1.2666300e+03   3.7614600e-01
   1.2671120e+03   2.1428900e-01
   1.2675940e+03   5.1733400e-01
   1.2680760e+03   1.3900590e+00
   1.2685580e+03   1.9021180e+00
   1.2690410e+03   1.7287370e+00
   1.2695230e+03   1.3107090e+00
   1.2700050e+03   1.0336280e+00
   1.2704870e+03   7.1499900e-01
   1.2709690e+03   3.9645001e-02
   1.2714510e+03   7.0280999e-02
   1.2719330e+03   8.8085003e-02
   1.2724150e+03   5.2614200e-01
   1.2728970e+03   1.3123100e+00
   1.2733800e+03   1.3702410e+00
   1.2738620e+03   1.1899880e+00
   1.2743440e+03   8.7919400e-01
   1.2748260e+03   7.0908600e-01
   1.2753080e+03   9.5178700e-01
   1.2757900e+03   1.4159240e+00
   1.2762720e+03   1.3865200e+00
   1.2767540e+03   9.6453800e-01
   1.2772370e+03   7.2257300e-01
   1.2777190e+03   7.2187900e-01
   1.2782010e+03   7.6665900e-01
   1.2786830e+03   6.6360500e-01
   1.2791650e+03   3.7788900e-01
   1.2796470e+03   2.5677800e-01
   1.2801290e+03   2.6505800e-01
   1.2806110e+03   8.8596001e-02
   1.2810940e+03   3.7955001e-02
   1.2815760e+03   6.4840300e-01
   1.2820580e+03   1.0124830e+00
   1.2825400e+03   1.2306330e+00
   1.2830220e+03   1.2880010e+00
   1.2835040e+03   1.2736790e+00
   1.2839860e+03   1.1952720e+00
   1.2844680e+03   1.0757320e+00
   1.2849500e+03   8.8725100e-01
   1.2854320e+03   7.2892400e-01
   1.2859150e+03   7.5264200e-01
   1.2863970e+03   9.7028500e-01
   1.2868790e+03   1.2330920e+00
   1.2873610e+03   1.3885180e+00
   1.2878430e+03   1.5233050e+00
   1.2883250e+03   1.2750270e+00
   1.2888070e+03   9.5331000e-01
   1.2892890e+03   7.9137200e-01
   1.2897720e+03   8.4816600e-01
   1.2902540e+03   1.3924250e+00
   1.2907360e+03   2.2794500e+00
   1.2912180e+03   2.3832570e+00
   1.2917000e+03   1.4015720e+00
   1.2921820e+03   9.8887100e-01
   1.2926640e+03   9.3060700e-01
   1.2931460e+03   8.9072200e-01
   1.2936290e+03   5.3127300e-01
   1.2941110e+03   1.6582100e-01
   1.2945930e+03   6.5736003e-02
   1.2950750e+03   1.4382300e-01
   1.2955570e+03   2.0014800e-01
   1.2960390e+03   2.1976400e-01
   1.2965210e+03   1.9295400e-01
   1.2970030e+03   1.2906400e-01
   1.2974850e+03   1.4793200e-01
   1.2979680e+03   3.1694800e-01
   1.2984500e+03   4.2792200e-01
   1.2989320e+03   4.0491000e-01
   1.2994140e+03   3.2992900e-01
   1.2998960e+03   1.4846200e-01
   1.3003780e+03   1.0836000e-02
   1.3008600e+03   2.6704100e-01
   1.3013420e+03   9.6874700e-01
   1.3018240e+03   8.8420500e-01
   1.3023070e+03   0.0000000e+00
   1.5000000e+03   0.0000000e+00
