   1.0000000e+02   0.0000000e+00
   2.2611410e+02   0.0000000e+00
   2.2659620e+02   1.4938960e+00
   2.2707830e+02   2.0095210e+00
   2.2756040e+02   2.3291630e+00
   2.2804250e+02   1.4293820e+00
   2.2852470e+02   3.1884800e-01
   2.2900680e+02   9.3445003e-02
   2.2948890e+02   1.0078130e+00
   2.2997100e+02   2.8905640e+00
   2.3045310e+02   3.4929200e+00
   2.3093520e+02   2.0681150e+00
   2.3141740e+02   4.8706100e-01
   2.3189950e+02   2.2418200e-01
   2.3238160e+02   9.4934100e-01
   2.3286370e+02   1.8197630e+00
   2.3334580e+02   2.6427610e+00
   2.3382790e+02   3.3209230e+00
   2.3431010e+02   3.4500120e+00
   2.3479220e+02   2.6483760e+00
   2.3527430e+02   1.9266360e+00
   2.3575640e+02   1.8259890e+00
   2.3623850e+02   2.2059330e+00
   2.3672060e+02   2.8208010e+00
   2.3720280e+02   3.7759400e+00
   2.3768490e+02   4.8719480e+00
   2.3816700e+02   5.1996460e+00
   2.3864910e+02   4.4567260e+00
   2.3913120e+02   3.4382320e+00
   2.3961330e+02   2.7346190e+00
   2.4009550e+02   2.3598020e+00
   2.4057760e+02   2.4813230e+00
   2.4105970e+02   2.4551390e+00
   2.4154180e+02   2.6033940e+00
   2.4202390e+02   2.8656010e+00
   2.4250600e+02   3.4205930e+00
   2.4298820e+02   3.8223270e+00
   2.4347030e+02   3.9844970e+00
   2.4395240e+02   3.9276120e+00
   2.4443450e+02   3.5816040e+00
   2.4491660e+02   2.8514400e+00
   2.4539870e+02   1.9144290e+00
   2.4588090e+02   1.6557010e+00
   2.4636300e+02   2.7957150e+00
   2.4684510e+02   3.6965940e+00
   2.4732720e+02   3.9927370e+00
   2.4780930e+02   3.9282230e+00
   2.4829140e+02   3.8966060e+00
   2.4877360e+02   4.1392820e+00
   2.4925570e+02   4.4570920e+00
   2.4973780e+02   3.9981690e+00
   2.5021990e+02   1.3551640e+00
   2.5070200e+02   3.2983400e-01
   2.5118410e+02   8.7890001e-03
   2.5166630e+02   1.2577510e+00
   2.5214840e+02   2.2907100e+00
   2.5263050e+02   2.5288090e+00
   2.5311260e+02   2.1218260e+00
   2.5359470e+02   1.5200200e+00
   2.5407680e+02   5.4565001e-02
   2.5455900e+02   7.4499500e-01
   2.5504110e+02   2.7679400e-01
   2.5552320e+02   6.9897500e-01
   2.5600530e+02   1.2873540e+00
   2.5648740e+02   1.1115720e+00
   2.5696950e+02   5.6488000e-01
   2.5745170e+02   5.2813700e-01
   2.5793380e+02   1.8104860e+00
   2.5841590e+02   2.6689450e+00
   2.5889800e+02   2.9665530e+00
   2.5938010e+02   2.8870240e+00
   2.5986220e+02   2.5138550e+00
   2.6034440e+02   1.8883060e+00
   2.6082650e+02   1.2196040e+00
   2.6130860e+02   8.9282200e-01
   2.6179070e+02   1.1216430e+00
   2.6227280e+02   1.3922730e+00
   2.6275490e+02   1.7481080e+00
   2.6323710e+02   2.1137080e+00
   2.6371920e+02   2.5012820e+00
   2.6420130e+02   2.9094240e+00
   2.6468340e+02   3.1156010e+00
   2.6516550e+02   2.6894530e+00
   2.6564760e+02   1.0741580e+00
   2.6612980e+02   3.0749500e-01
   2.6661190e+02   1.0121460e+00
   2.6709400e+02   2.2627560e+00
   2.6757610e+02   3.3264160e+00
   2.6805820e+02   4.0222780e+00
   2.6854030e+02   4.3563840e+00
   2.6902250e+02   4.2456670e+00
   2.6950460e+02   3.5292360e+00
   2.6998670e+02   3.1544190e+00
   2.7046880e+02   3.6386720e+00
   2.7095090e+02   4.1752930e+00
   2.7143300e+02   3.9113160e+00
   2.7191520e+02   2.7925420e+00
   2.7239730e+02   1.6188350e+00
   2.7287940e+02   1.1480710e+00
   2.7336150e+02   1.4581910e+00
   2.7384360e+02   1.7026370e+00
   2.7432570e+02   1.8677370e+00
   2.7480790e+02   1.9652710e+00
   2.7529000e+02   1.8825070e+00
   2.7577210e+02   1.6497190e+00
   2.7625420e+02   1.6065670e+00
   2.7673630e+02   2.0602420e+00
   2.7721840e+02   2.9716190e+00
   2.7770060e+02   3.7738650e+00
   2.7818270e+02   4.7852780e+00
   2.7866480e+02   5.5450440e+00
   2.7914690e+02   5.2482300e+00
   2.7962900e+02   4.0236820e+00
   2.8011110e+02   3.0341800e+00
   2.8059330e+02   2.9577640e+00
   2.8107540e+02   3.7072750e+00
   2.8155750e+02   4.6622920e+00
   2.8203960e+02   6.4893190e+00
   2.8252170e+02   7.7821660e+00
   2.8300380e+02   7.2457890e+00
   2.8348600e+02   5.2236940e+00
   2.8396810e+02   3.5091550e+00
   2.8445020e+02   2.9340210e+00
   2.8493230e+02   3.1149900e+00
   2.8541440e+02   3.1597290e+00
   2.8589650e+02   3.0902100e+00
   2.8637870e+02   2.8673100e+00
   2.8686080e+02   2.2346190e+00
   2.8734290e+02   1.3952640e+00
   2.8782500e+02   1.0090940e+00
   2.8830710e+02   1.4194340e+00
   2.8878920e+02   2.2156370e+00
   2.8927140e+02   2.8303830e+00
   2.8975350e+02   3.2650760e+00
   2.9023560e+02   3.5738530e+00
   2.9071770e+02   3.8156740e+00
   2.9119980e+02   3.9459230e+00
   2.9168190e+02   3.7830200e+00
   2.9216410e+02   3.1531370e+00
   2.9264620e+02   2.4970700e+00
   2.9312830e+02   2.3910520e+00
   2.9361040e+02   2.7723390e+00
   2.9409250e+02   3.0862430e+00
   2.9457460e+02   2.8843990e+00
   2.9505680e+02   2.3871460e+00
   2.9553890e+02   2.2069700e+00
   2.9602100e+02   2.5337520e+00
   2.9650310e+02   3.0877690e+00
   2.9698520e+02   3.8406980e+00
   2.9746730e+02   4.6744380e+00
   2.9794950e+02   5.1862790e+00
   2.9843160e+02   5.0992430e+00
   2.9891370e+02   4.6725460e+00
   2.9939580e+02   4.2763060e+00
   2.9987790e+02   3.9304810e+00
   3.0036000e+02   3.5569460e+00
   3.0084220e+02   3.0408330e+00
   3.0132430e+02   2.4729000e+00
   3.0180640e+02   2.0123900e+00
   3.0228850e+02   1.6271360e+00
   3.0277060e+02   1.4302370e+00
   3.0325270e+02   1.6827390e+00
   3.0373490e+02   2.4282230e+00
   3.0421700e+02   2.9979250e+00
   3.0469910e+02   2.9525760e+00
   3.0518120e+02   2.6093750e+00
   3.0566330e+02   2.3942870e+00
   3.0614540e+02   2.4051510e+00
   3.0662760e+02   2.4375000e+00
   3.0710970e+02   2.2781370e+00
   3.0759180e+02   1.9431760e+00
   3.0807390e+02   1.6625370e+00
   3.0855600e+02   1.3912350e+00
   3.0903810e+02   1.3356320e+00
   3.0952030e+02   1.7244260e+00
   3.1000240e+02   2.6014400e+00
   3.1048450e+02   3.3849490e+00
   3.1096660e+02   3.5702510e+00
   3.1144870e+02   3.2826540e+00
   3.1193080e+02   3.1649170e+00
   3.1241300e+02   3.4431760e+00
   3.1289510e+02   3.7526860e+00
   3.1337720e+02   3.6381840e+00
   3.1385930e+02   3.1380620e+00
   3.1434140e+02   2.6467290e+00
   3.1482350e+02   2.0805050e+00
   3.1530570e+02   1.6755370e+00
   3.1578780e+02   2.3282470e+00
   3.1626990e+02   4.7141110e+00
   3.1675200e+02   6.6705930e+00
   3.1723410e+02   5.9581910e+00
   3.1771620e+02   3.6222530e+00
   3.1819840e+02   1.8887330e+00
   3.1868050e+02   1.8704220e+00
   3.1916260e+02   2.7713620e+00
   3.1964470e+02   3.4533690e+00
   3.2012680e+02   3.9315800e+00
   3.2060890e+02   4.1332400e+00
   3.2109110e+02   3.8508910e+00
   3.2157320e+02   3.3182980e+00
   3.2205530e+02   2.7492680e+00
   3.2253740e+02   1.9214480e+00
   3.2301950e+02   1.4599000e+00
   3.2350160e+02   2.5122070e+00
   3.2398380e+02   5.1054690e+00
   3.2446590e+02   6.8133540e+00
   3.2494800e+02   6.1244510e+00
   3.2543010e+02   4.4370120e+00
   3.2591220e+02   3.4946290e+00
   3.2639430e+02   3.4685670e+00
   3.2687650e+02   3.7118530e+00
   3.2735860e+02   3.9431150e+00
   3.2784070e+02   4.1104130e+00
   3.2832280e+02   3.8789060e+00
   3.2880490e+02   3.0095210e+00
   3.2928700e+02   1.9318850e+00
   3.2976920e+02   9.9841300e-01
   3.3025130e+02   2.1136500e-01
   3.3073340e+02   3.0023200e-01
   3.3121550e+02   3.8787800e-01
   3.3169760e+02   1.5655500e-01
   3.3217970e+02   1.9348100e-01
   3.3266190e+02   6.9409200e-01
   3.3314400e+02   1.1623540e+00
   3.3362610e+02   1.4742430e+00
   3.3410820e+02   1.6450810e+00
   3.3459030e+02   1.6644900e+00
   3.3507240e+02   1.2906490e+00
   3.3555460e+02   9.0954600e-01
   3.3603670e+02   1.1737060e+00
   3.3651880e+02   2.1333010e+00
   3.3700090e+02   2.8717650e+00
   3.3748300e+02   2.6326290e+00
   3.3796510e+02   1.8707890e+00
   3.3844730e+02   1.4444580e+00
   3.3892940e+02   1.5179440e+00
   3.3941150e+02   1.8311160e+00
   3.3989360e+02   2.4216310e+00
   3.4037570e+02   3.2219240e+00
   3.4085780e+02   3.4990230e+00
   3.4134000e+02   2.6813350e+00
   3.4182210e+02   1.4426270e+00
   3.4230420e+02   8.8171400e-01
   3.4278630e+02   1.1012570e+00
   3.4326840e+02   1.3928220e+00
   3.4375050e+02   1.3305660e+00
   3.4423270e+02   1.0588380e+00
   3.4471480e+02   9.3096900e-01
   3.4519690e+02   1.0023800e+00
   3.4567900e+02   1.2842410e+00
   3.4616110e+02   2.0444340e+00
   3.4664320e+02   3.1881710e+00
   3.4712540e+02   3.8919680e+00
   3.4760750e+02   3.7382200e+00
   3.4808960e+02   3.1283570e+00
   3.4857170e+02   2.5012820e+00
   3.4905380e+02   1.8880620e+00
   3.4953590e+02   1.3021240e+00
   3.5001810e+02   7.3907500e-01
   3.5050020e+02   2.1289100e-01
   3.5098230e+02   2.3803700e-01
   3.5146440e+02   9.8931900e-01
   3.5194650e+02   1.3384400e+00
   3.5242860e+02   3.7677000e-01
   3.5291080e+02   1.5769040e+00
   3.5339290e+02   2.9437260e+00
   3.5387500e+02   2.8136600e+00
   3.5435710e+02   1.7602540e+00
   3.5483920e+02   1.2128300e+00
   3.5532140e+02   1.2787480e+00
   3.5580350e+02   1.5035400e+00
   3.5628560e+02   1.9282230e+00
   3.5676770e+02   2.3685910e+00
   3.5724980e+02   2.4002690e+00
   3.5773190e+02   1.8461300e+00
   3.5821410e+02   1.1740110e+00
   3.5869620e+02   1.0611570e+00
   3.5917830e+02   1.6033940e+00
   3.5966040e+02   2.0813600e+00
   3.6014250e+02   2.5897830e+00
   3.6062460e+02   2.8964230e+00
   3.6110680e+02   2.6372070e+00
   3.6158890e+02   1.8295900e+00
   3.6207100e+02   1.0328370e+00
   3.6255310e+02   6.9805900e-01
   3.6303520e+02   8.3996600e-01
   3.6351730e+02   1.1068730e+00
   3.6399950e+02   1.7946780e+00
   3.6448160e+02   2.3086550e+00
   3.6496370e+02   2.2297970e+00
   3.6544580e+02   1.7371830e+00
   3.6592790e+02   1.2713010e+00
   3.6641000e+02   1.0377810e+00
   3.6689220e+02   1.0350950e+00
   3.6737430e+02   1.2916870e+00
   3.6785640e+02   2.1326900e+00
   3.6833850e+02   2.7463990e+00
   3.6882060e+02   2.9544680e+00
   3.6930270e+02   2.9104000e+00
   3.6978490e+02   2.7269290e+00
   3.7026700e+02   2.4489750e+00
   3.7074910e+02   2.1791990e+00
   3.7123120e+02   2.0631100e+00
   3.7171330e+02   2.1502690e+00
   3.7219540e+02   2.2642210e+00
   3.7267760e+02   2.5611570e+00
   3.7315970e+02   2.7542720e+00
   3.7364180e+02   2.5588380e+00
   3.7412390e+02   2.0604250e+00
   3.7460600e+02   1.6476440e+00
   3.7508810e+02   1.6554570e+00
   3.7557030e+02   2.0668950e+00
   3.7605240e+02   2.1994630e+00
   3.7653450e+02   1.9016110e+00
   3.7701660e+02   1.5217900e+00
   3.7749870e+02   1.0422970e+00
   3.7798080e+02   5.5059800e-01
   3.7846300e+02   1.4270000e-01
   3.7894510e+02   1.3720700e-01
   3.7942720e+02   2.8314200e-01
   3.7990930e+02   2.6849400e-01
   3.8039140e+02   4.4799998e-02
   3.8087350e+02   2.8643800e-01
   3.8135570e+02   4.3347200e-01
   3.8183780e+02   5.2624500e-01
   3.8231990e+02   5.8911100e-01
   3.8280200e+02   6.2805200e-01
   3.8328410e+02   6.4086900e-01
   3.8376620e+02   6.1346400e-01
   3.8424840e+02   5.2728300e-01
   3.8473050e+02   5.0433300e-01
   3.8521260e+02   4.6392800e-01
   3.8569470e+02   5.6451400e-01
   3.8617680e+02   9.4787600e-01
   3.8665890e+02   1.5059810e+00
   3.8714110e+02   2.0278320e+00
   3.8762320e+02   2.3800050e+00
   3.8810530e+02   2.5902710e+00
   3.8858740e+02   2.8171390e+00
   3.8906950e+02   3.2302860e+00
   3.8955160e+02   3.4086300e+00
   3.9003380e+02   3.2678220e+00
   3.9051590e+02   2.8853150e+00
   3.9099800e+02   2.2311400e+00
   3.9148010e+02   1.3018800e+00
   3.9196220e+02   3.8317900e-01
   3.9244430e+02   2.2222900e-01
   3.9292650e+02   5.1702900e-01
   3.9340860e+02   4.6862800e-01
   3.9389070e+02   2.8918500e-01
   3.9437280e+02   1.0951540e+00
   3.9485490e+02   1.6660770e+00
   3.9533700e+02   1.9689940e+00
   3.9581920e+02   1.9611820e+00
   3.9630130e+02   1.4642940e+00
   3.9678340e+02   6.4270000e-01
   3.9726550e+02   1.7090000e-03
   3.9774760e+02   4.9487300e-01
   3.9822970e+02   7.3791500e-01
   3.9871190e+02   4.3499800e-01
   3.9919400e+02   7.2571002e-02
   3.9967610e+02   3.1872600e-01
   4.0015820e+02   1.0235600e-01
   4.0064030e+02   2.1850600e-01
   4.0112240e+02   2.9510500e-01
   4.0160460e+02   1.4794900e-01
   4.0208670e+02   9.1599999e-04
   4.0256880e+02   3.1799000e-02
   4.0305090e+02   1.0192900e-01
   4.0353300e+02   4.6502700e-01
   4.0401510e+02   1.1335450e+00
   4.0449730e+02   1.6042480e+00
   4.0497940e+02   1.5476680e+00
   4.0546150e+02   1.1823120e+00
   4.0594360e+02   8.6584500e-01
   4.0642570e+02   6.4166300e-01
   4.0690780e+02   4.6917700e-01
   4.0739000e+02   3.1658900e-01
   4.0787210e+02   1.8896500e-01
   4.0835420e+02   1.0754400e-01
   4.0883630e+02   1.3439900e-01
   4.0931840e+02   1.2591600e-01
   4.0980050e+02   1.8920000e-03
   4.1028270e+02   1.2780800e-01
   4.1076480e+02   9.2101999e-02
   4.1124690e+02   1.3531500e-01
   4.1172900e+02   4.4140600e-01
   4.1221110e+02   5.3656000e-01
   4.1269320e+02   2.5830100e-01
   4.1317540e+02   1.8914800e-01
   4.1365750e+02   6.5063500e-01
   4.1413960e+02   1.2468870e+00
   4.1462170e+02   1.5161130e+00
   4.1510380e+02   1.3977660e+00
   4.1558590e+02   1.2261960e+00
   4.1606810e+02   1.3703610e+00
   4.1655020e+02   1.8945310e+00
   4.1703230e+02   1.9781490e+00
   4.1751440e+02   1.0715940e+00
   4.1799650e+02   3.5742200e-01
   4.1847860e+02   4.9823000e-01
   4.1896080e+02   1.1636350e+00
   4.1944290e+02   1.6903690e+00
   4.1992500e+02   1.7332760e+00
   4.2040710e+02   1.4204710e+00
   4.2088920e+02   1.0996090e+00
   4.2137130e+02   5.1776100e-01
   4.2185350e+02   3.5449200e-01
   4.2233560e+02   1.1002200e+00
   4.2281770e+02   1.9127810e+00
   4.2329980e+02   2.0396120e+00
   4.2378190e+02   1.4559330e+00
   4.2426400e+02   7.6416000e-01
   4.2474620e+02   6.0314900e-01
   4.2522830e+02   1.0142210e+00
   4.2571040e+02   1.3387450e+00
   4.2619250e+02   1.6710210e+00
   4.2667460e+02   1.7916870e+00
   4.2715670e+02   1.4815670e+00
   4.2763890e+02   9.6118200e-01
   4.2812100e+02   5.0970500e-01
   4.2860310e+02   2.2851600e-01
   4.2908520e+02   1.8762200e-01
   4.2956730e+02   6.6015600e-01
   4.3004940e+02   1.8755490e+00
   4.3053160e+02   2.7929690e+00
   4.3101370e+02   3.0554810e+00
   4.3149580e+02   3.0107420e+00
   4.3197790e+02   2.6944580e+00
   4.3246000e+02   2.1666260e+00
   4.3294210e+02   1.8150020e+00
   4.3342430e+02   2.1549680e+00
   4.3390640e+02   2.9778440e+00
   4.3438850e+02   3.2547000e+00
   4.3487060e+02   2.7236330e+00
   4.3535270e+02   2.0981450e+00
   4.3583480e+02   1.6981810e+00
   4.3631700e+02   1.5015260e+00
   4.3679910e+02   1.5647580e+00
   4.3728120e+02   2.1104130e+00
   4.3776330e+02   2.6494140e+00
   4.3824540e+02   2.6440430e+00
   4.3872750e+02   2.1678470e+00
   4.3920970e+02   1.8076170e+00
   4.3969180e+02   1.8090210e+00
   4.4017390e+02   1.9412840e+00
   4.4065600e+02   1.7813720e+00
   4.4113810e+02   1.2773440e+00
   4.4162020e+02   1.0588990e+00
   4.4210240e+02   1.5296020e+00
   4.4258450e+02   2.2513430e+00
   4.4306660e+02   2.8190920e+00
   4.4354870e+02   3.1753540e+00
   4.4403080e+02   3.1773680e+00
   4.4451290e+02   2.5496220e+00
   4.4499510e+02   1.4426270e+00
   4.4547720e+02   1.2252810e+00
   4.4595930e+02   2.8900150e+00
   4.4644140e+02   4.1586910e+00
   4.4692350e+02   4.1423950e+00
   4.4740560e+02   3.3565670e+00
   4.4788780e+02   2.4785160e+00
   4.4836990e+02   1.7515870e+00
   4.4885200e+02   1.2394410e+00
   4.4933410e+02   1.0296630e+00
   4.4981620e+02   1.1170040e+00
   4.5029830e+02   1.5580440e+00
   4.5078050e+02   2.9022830e+00
   4.5126260e+02   4.0698850e+00
   4.5174470e+02   4.3606570e+00
   4.5222680e+02   3.9714360e+00
   4.5270890e+02   3.6364140e+00
   4.5319100e+02   3.8709110e+00
   4.5367320e+02   4.4915770e+00
   4.5415530e+02   4.7015990e+00
   4.5463740e+02   4.1618040e+00
   4.5511950e+02   3.7717290e+00
   4.5560160e+02   3.8163450e+00
   4.5608370e+02   3.9430540e+00
   4.5656590e+02   3.8569340e+00
   4.5704800e+02   3.5139770e+00
   4.5753010e+02   3.1084590e+00
   4.5801220e+02   2.6807250e+00
   4.5849430e+02   2.2301030e+00
   4.5897640e+02   2.5829470e+00
   4.5945860e+02   4.4789430e+00
   4.5994070e+02   6.1260380e+00
   4.6042280e+02   6.3074950e+00
   4.6090490e+02   5.6727910e+00
   4.6138700e+02   5.4362180e+00
   4.6186910e+02   6.2813110e+00
   4.6235130e+02   7.2579350e+00
   4.6283340e+02   7.0495610e+00
   4.6331550e+02   5.7066650e+00
   4.6379760e+02   4.5340580e+00
   4.6427970e+02   3.9269410e+00
   4.6476180e+02   3.6799930e+00
   4.6524400e+02   3.5448610e+00
   4.6572610e+02   3.5187380e+00
   4.6620820e+02   3.5590210e+00
   4.6669030e+02   3.8497920e+00
   4.6717240e+02   4.0962520e+00
   4.6765450e+02   3.7235110e+00
   4.6813670e+02   2.7481080e+00
   4.6861880e+02   2.1380620e+00
   4.6910090e+02   2.7130130e+00
   4.6958300e+02   4.1317750e+00
   4.7006510e+02   4.6877440e+00
   4.7054720e+02   3.4306030e+00
   4.7102940e+02   2.6301880e+00
   4.7151150e+02   3.2775880e+00
   4.7199360e+02   4.5210570e+00
   4.7247570e+02   5.2965090e+00
   4.7295780e+02   5.3311160e+00
   4.7343990e+02   5.0249020e+00
   4.7392210e+02   4.8585210e+00
   4.7440420e+02   4.8927000e+00
   4.7488630e+02   4.6985470e+00
   4.7536840e+02   4.0662230e+00
   4.7585050e+02   3.4511720e+00
   4.7633260e+02   3.0209350e+00
   4.7681480e+02   2.7238770e+00
   4.7729690e+02   2.4782100e+00
   4.7777900e+02   2.2515870e+00
   4.7826110e+02   1.9959720e+00
   4.7874320e+02   1.5778200e+00
   4.7922530e+02   8.7719700e-01
   4.7970750e+02   3.6840800e-01
   4.8018960e+02   2.1368400e-01
   4.8067170e+02   1.8072500e-01
   4.8115380e+02   8.2580999e-02
   4.8163590e+02   2.4597000e-02
   4.8211800e+02   1.3470500e-01
   4.8260020e+02   1.0332640e+00
   4.8308230e+02   2.2450560e+00
   4.8356440e+02   2.4168090e+00
   4.8404650e+02   1.2545780e+00
   4.8452860e+02   1.2725800e-01
   4.8501070e+02   4.0564000e-01
   4.8549290e+02   5.4834000e-01
   4.8597500e+02   4.8162800e-01
   4.8645710e+02   1.7474400e-01
   4.8693920e+02   1.0241700e-01
   4.8742130e+02   2.1691900e-01
   4.8790340e+02   1.7828400e-01
   4.8838560e+02   4.4495001e-02
   4.8886770e+02   4.8675500e-01
   4.8934980e+02   9.0655500e-01
   4.8983190e+02   1.0921630e+00
   4.9031400e+02   1.0492550e+00
   4.9079610e+02   9.9157700e-01
   4.9127830e+02   1.2813720e+00
   4.9176040e+02   1.1760860e+00
   4.9224250e+02   2.3870800e-01
   4.9272460e+02   2.1842650e+00
   4.9320670e+02   3.0992430e+00
   4.9368880e+02   2.4364010e+00
   4.9417100e+02   1.0691530e+00
   4.9465310e+02   3.4344500e-01
   4.9513520e+02   5.0500500e-01
   4.9561730e+02   5.6573500e-01
   4.9609940e+02   4.5678700e-01
   4.9658150e+02   3.2934600e-01
   4.9706370e+02   2.2686800e-01
   4.9754580e+02   1.6638200e-01
   4.9802790e+02   1.5429700e-01
   4.9851000e+02   1.8908700e-01
   4.9899210e+02   2.9504400e-01
   4.9947420e+02   5.6848100e-01
   4.9995640e+02   1.1307370e+00
   5.0043850e+02   1.5421140e+00
   5.0092060e+02   1.6774900e+00
   5.0140270e+02   1.6892090e+00
   5.0188480e+02   1.5152590e+00
   5.0236690e+02   1.2460330e+00
   5.0284910e+02   1.2478030e+00
   5.0333120e+02   1.9642330e+00
   5.0381330e+02   3.0910640e+00
   5.0429540e+02   3.8055420e+00
   5.0477750e+02   4.0684810e+00
   5.0525960e+02   4.0882570e+00
   5.0574180e+02   3.6859130e+00
   5.0622390e+02   3.2521970e+00
   5.0670600e+02   3.4136350e+00
   5.0718810e+02   4.3666990e+00
   5.0767020e+02   5.2256470e+00
   5.0815230e+02   5.3267820e+00
   5.0863450e+02   5.1188350e+00
   5.0911660e+02   5.4626460e+00
   5.0959870e+02   6.4882200e+00
   5.1008080e+02   7.4576420e+00
   5.1056290e+02   7.7163090e+00
   5.1104500e+02   7.3400880e+00
   5.1152720e+02   7.2849730e+00
   5.1200930e+02   7.8713380e+00
   5.1249140e+02   8.3462520e+00
   5.1297350e+02   8.2886960e+00
   5.1345560e+02   8.0742800e+00
   5.1393770e+02   8.2638550e+00
   5.1441990e+02   8.9821780e+00
   5.1490200e+02   9.8452150e+00
   5.1538410e+02   1.0398990e+01
   5.1586620e+02   1.0645750e+01
   5.1634830e+02   1.0576720e+01
   5.1683040e+02   9.7790530e+00
   5.1731260e+02   9.1026000e+00
   5.1779470e+02   8.8181150e+00
   5.1827680e+02   8.7980350e+00
   5.1875890e+02   8.8966670e+00
   5.1924100e+02   9.0686040e+00
   5.1972310e+02   9.1558840e+00
   5.2020530e+02   8.8106080e+00
   5.2068740e+02   7.9797970e+00
   5.2116950e+02   7.5147710e+00
   5.2165160e+02   7.7503660e+00
   5.2213370e+02   8.0908810e+00
   5.2261580e+02   8.1377560e+00
   5.2309800e+02   7.9584960e+00
   5.2358010e+02   7.7588500e+00
   5.2406220e+02   7.8106080e+00
   5.2454430e+02   7.6791990e+00
   5.2502640e+02   6.3791500e+00
   5.2550850e+02   4.2481080e+00
   5.2599070e+02   3.6343380e+00
   5.2647280e+02   5.8387450e+00
   5.2695490e+02   8.8266600e+00
   5.2743700e+02   9.4047850e+00
   5.2791910e+02   7.1617430e+00
   5.2840120e+02   5.3804320e+00
   5.2888340e+02   4.4898070e+00
   5.2936550e+02   4.0695800e+00
   5.2984760e+02   3.9980470e+00
   5.3032970e+02   4.1555790e+00
   5.3081180e+02   4.3314820e+00
   5.3129390e+02   4.4172360e+00
   5.3177610e+02   4.4003910e+00
   5.3225820e+02   4.2255250e+00
   5.3274030e+02   3.6163940e+00
   5.3322240e+02   3.3530880e+00
   5.3370450e+02   3.5889280e+00
   5.3418660e+02   3.9879150e+00
   5.3466880e+02   4.5271610e+00
   5.3515090e+02   5.0622560e+00
   5.3563300e+02   5.2550050e+00
   5.3611510e+02   4.7899170e+00
   5.3659720e+02   3.9593510e+00
   5.3707930e+02   3.5816040e+00
   5.3756150e+02   3.7829590e+00
   5.3804360e+02   3.9457400e+00
   5.3852570e+02   3.9581300e+00
   5.3900780e+02   3.8159790e+00
   5.3948990e+02   3.4284060e+00
   5.3997200e+02   2.8222660e+00
   5.4045420e+02   2.3712160e+00
   5.4093630e+02   2.4071040e+00
   5.4141840e+02   2.6404420e+00
   5.4190050e+02   2.5623780e+00
   5.4238260e+02   2.1860960e+00
   5.4286470e+02   2.0840450e+00
   5.4334690e+02   2.6718750e+00
   5.4382900e+02   3.6198730e+00
   5.4431110e+02   4.0674440e+00
   5.4479320e+02   3.9432980e+00
   5.4527530e+02   3.5648190e+00
   5.4575740e+02   2.5421140e+00
   5.4623960e+02   1.5795290e+00
   5.4672170e+02   1.4016110e+00
   5.4720380e+02   1.9109500e+00
   5.4768590e+02   2.4581910e+00
   5.4816800e+02   2.5856320e+00
   5.4865010e+02   2.3970340e+00
   5.4913230e+02   2.3460080e+00
   5.4961440e+02   2.5263060e+00
   5.5009650e+02   2.7456050e+00
   5.5057860e+02   3.0453490e+00
   5.5106070e+02   3.2803340e+00
   5.5154280e+02   3.2008670e+00
   5.5202500e+02   2.8953250e+00
   5.5250710e+02   2.8477170e+00
   5.5298920e+02   3.5500490e+00
   5.5347130e+02   4.6935420e+00
   5.5395340e+02   5.4883420e+00
   5.5443550e+02   5.9794310e+00
   5.5491770e+02   6.1463620e+00
   5.5539980e+02   5.5502930e+00
   5.5588190e+02   4.6926880e+00
   5.5636400e+02   4.4856570e+00
   5.5684610e+02   5.1630860e+00
   5.5732820e+02   5.6652220e+00
   5.5781040e+02   4.9329220e+00
   5.5829250e+02   3.9296880e+00
   5.5877460e+02   4.1705320e+00
   5.5925670e+02   5.5466920e+00
   5.5973880e+02   6.6824340e+00
   5.6022090e+02   6.7890630e+00
   5.6070310e+02   6.1682130e+00
   5.6118520e+02   5.6879880e+00
   5.6166730e+02   5.1389160e+00
   5.6214940e+02   4.9970090e+00
   5.6263150e+02   5.4708250e+00
   5.6311360e+02   5.9693600e+00
   5.6359580e+02   6.1230470e+00
   5.6407790e+02   6.0795900e+00
   5.6456000e+02   6.2487180e+00
   5.6504210e+02   6.9351200e+00
   5.6552420e+02   7.8045040e+00
   5.6600630e+02   7.8317260e+00
   5.6648850e+02   6.6455690e+00
   5.6697060e+02   5.7605590e+00
   5.6745270e+02   5.7431640e+00
   5.6793480e+02   5.9992070e+00
   5.6841690e+02   6.1849980e+00
   5.6889900e+02   6.2799070e+00
   5.6938120e+02   6.3449100e+00
   5.6986330e+02   6.3894650e+00
   5.7034540e+02   6.4370120e+00
   5.7082750e+02   6.5814820e+00
   5.7130960e+02   6.8068850e+00
   5.7179170e+02   6.8656620e+00
   5.7227390e+02   6.6318360e+00
   5.7275600e+02   6.2094730e+00
   5.7323810e+02   5.7357790e+00
   5.7372020e+02   5.1381840e+00
   5.7420230e+02   4.7741090e+00
   5.7468440e+02   4.6329960e+00
   5.7516660e+02   4.7742920e+00
   5.7564870e+02   5.5047000e+00
   5.7613080e+02   6.5506590e+00
   5.7661290e+02   7.2756960e+00
   5.7709500e+02   7.3485110e+00
   5.7757710e+02   6.9100950e+00
   5.7805930e+02   6.2022090e+00
   5.7854140e+02   5.0186160e+00
   5.7902350e+02   4.1228640e+00
   5.7950560e+02   3.4949950e+00
   5.7998770e+02   3.2197270e+00
   5.8046980e+02   3.5480960e+00
   5.8095200e+02   4.2547610e+00
   5.8143410e+02   4.8912350e+00
   5.8191620e+02   5.3442380e+00
   5.8239830e+02   5.4527590e+00
   5.8288040e+02   4.6966550e+00
   5.8336250e+02   3.2003170e+00
   5.8384470e+02   2.4058230e+00
   5.8432680e+02   2.8174440e+00
   5.8480890e+02   3.6275630e+00
   5.8529100e+02   3.9979250e+00
   5.8577310e+02   3.9901730e+00
   5.8625520e+02   4.2380980e+00
   5.8673740e+02   5.1221310e+00
   5.8721950e+02   5.9387210e+00
   5.8770160e+02   6.5087280e+00
   5.8818370e+02   6.7168580e+00
   5.8866580e+02   6.2017210e+00
   5.8914790e+02   4.9015500e+00
   5.8963010e+02   3.4693600e+00
   5.9011220e+02   2.6701660e+00
   5.9059430e+02   2.5261230e+00
   5.9107640e+02   2.8358760e+00
   5.9155850e+02   4.2950440e+00
   5.9204060e+02   5.3881840e+00
   5.9252280e+02   5.5228880e+00
   5.9300490e+02   5.2095340e+00
   5.9348700e+02   4.9956670e+00
   5.9396910e+02   5.0283810e+00
   5.9445120e+02   5.2531130e+00
   5.9493330e+02   5.8649290e+00
   5.9541550e+02   6.6682740e+00
   5.9589760e+02   6.6237790e+00
   5.9637970e+02   5.4360960e+00
   5.9686180e+02   4.5167240e+00
   5.9734390e+02   5.0470580e+00
   5.9782600e+02   6.2729490e+00
   5.9830820e+02   6.2657470e+00
   5.9879030e+02   4.3825680e+00
   5.9927240e+02   2.9064940e+00
   5.9975450e+02   2.8840330e+00
   6.0023660e+02   3.4397580e+00
   6.0071880e+02   3.6835940e+00
   6.0120090e+02   3.5508420e+00
   6.0168300e+02   3.4127200e+00
   6.0216510e+02   3.5406490e+00
   6.0264720e+02   3.7990110e+00
   6.0312930e+02   3.6614380e+00
   6.0361150e+02   2.8012700e+00
   6.0409360e+02   2.1398320e+00
   6.0457570e+02   1.7750240e+00
   6.0505780e+02   1.5711060e+00
   6.0553990e+02   1.5055540e+00
   6.0602200e+02   1.5335080e+00
   6.0650420e+02   1.5410160e+00
   6.0698630e+02   1.4180300e+00
   6.0746840e+02   1.3146360e+00
   6.0795050e+02   1.6374510e+00
   6.0843260e+02   2.3649900e+00
   6.0891470e+02   2.5446780e+00
   6.0939690e+02   1.6949460e+00
   6.0987900e+02   6.6101100e-01
   6.1036110e+02   5.4254200e-01
   6.1084320e+02   1.2332760e+00
   6.1132530e+02   1.3463130e+00
   6.1180740e+02   6.1767999e-02
   6.1228960e+02   1.2454220e+00
   6.1277170e+02   7.3986800e-01
   6.1325380e+02   4.5745800e-01
   6.1373590e+02   3.8952600e-01
   6.1421800e+02   1.4414060e+00
   6.1470010e+02   3.5568850e+00
   6.1518230e+02   4.1899410e+00
   6.1566440e+02   3.2677000e+00
   6.1614650e+02   2.3817140e+00
   6.1662860e+02   1.1677250e+00
   6.1711070e+02   5.3436300e-01
   6.1759280e+02   9.9273700e-01
   6.1807500e+02   1.9394530e+00
   6.1855710e+02   2.9872440e+00
   6.1903920e+02   4.0109250e+00
   6.1952130e+02   4.4307250e+00
   6.2000340e+02   3.2423710e+00
   6.2048550e+02   1.2707520e+00
   6.2096770e+02   5.8367900e-01
   6.2144980e+02   1.3101200e+00
   6.2193190e+02   1.7777710e+00
   6.2241400e+02   1.0910030e+00
   6.2289610e+02   2.8021200e-01
   6.2337820e+02   1.3898930e+00
   6.2386040e+02   2.2420040e+00
   6.2434250e+02   2.8744510e+00
   6.2482460e+02   3.1998290e+00
   6.2530670e+02   3.3842770e+00
   6.2578880e+02   3.6124880e+00
   6.2627090e+02   3.7858280e+00
   6.2675310e+02   3.5265500e+00
   6.2723520e+02   2.6336670e+00
   6.2771730e+02   1.6585690e+00
   6.2819940e+02   1.6878660e+00
   6.2868150e+02   2.9097290e+00
   6.2916360e+02   4.1014400e+00
   6.2964580e+02   5.4502560e+00
   6.3012790e+02   6.4054570e+00
   6.3061000e+02   6.3896480e+00
   6.3109210e+02   5.9135740e+00
   6.3157420e+02   5.9427490e+00
   6.3205630e+02   6.8808590e+00
   6.3253850e+02   7.8511350e+00
   6.3302060e+02   8.2269290e+00
   6.3350270e+02   8.1889040e+00
   6.3398480e+02   8.0025630e+00
   6.3446690e+02   7.7191770e+00
   6.3494900e+02   7.5742190e+00
   6.3543120e+02   7.7440190e+00
   6.3591330e+02   8.1882320e+00
   6.3639540e+02   8.7097780e+00
   6.3687750e+02   9.5015260e+00
   6.3735960e+02   1.0108220e+01
   6.3784170e+02   1.0377320e+01
   6.3832390e+02   1.0570070e+01
   6.3880600e+02   1.0853520e+01
   6.3928810e+02   1.1230770e+01
   6.3977020e+02   1.1669310e+01
   6.4025230e+02   1.2202030e+01
   6.4073440e+02   1.2646910e+01
   6.4121660e+02   1.2555050e+01
   6.4169870e+02   1.1893620e+01
   6.4218080e+02   1.1406980e+01
   6.4266290e+02   1.1353880e+01
   6.4314500e+02   1.1314090e+01
   6.4362710e+02   1.0592350e+01
   6.4410930e+02   9.4932860e+00
   6.4459140e+02   9.2585450e+00
   6.4507350e+02   1.0901980e+01
   6.4555560e+02   1.2477910e+01
   6.4603770e+02   1.2885740e+01
   6.4651980e+02   1.2755620e+01
   6.4700200e+02   1.3146610e+01
   6.4748410e+02   1.4164550e+01
   6.4796620e+02   1.4848330e+01
   6.4844830e+02   1.4212100e+01
   6.4893040e+02   1.2549620e+01
   6.4941250e+02   1.2020200e+01
   6.4989470e+02   1.3548650e+01
   6.5037680e+02   1.4476320e+01
   6.5085890e+02   1.3504460e+01
   6.5134100e+02   1.2471860e+01
   6.5182310e+02   1.2984740e+01
   6.5230520e+02   1.4771000e+01
   6.5278740e+02   1.6032100e+01
   6.5326950e+02   1.5492430e+01
   6.5375160e+02   1.4339480e+01
   6.5423370e+02   1.3955690e+01
   6.5471580e+02   1.4234740e+01
   6.5519790e+02   1.4749270e+01
   6.5568010e+02   1.5414550e+01
   6.5616220e+02   1.6060730e+01
   6.5664430e+02   1.6482730e+01
   6.5712640e+02   1.6662600e+01
   6.5760850e+02   1.6958440e+01
   6.5809060e+02   1.7356450e+01
   6.5857280e+02   1.7871890e+01
   6.5905490e+02   1.8806580e+01
   6.5953700e+02   1.9686950e+01
   6.6001910e+02   1.9797420e+01
   6.6050120e+02   1.9197510e+01
   6.6098330e+02   1.8855220e+01
   6.6146550e+02   1.9643980e+01
   6.6194760e+02   2.1247310e+01
   6.6242970e+02   2.2828430e+01
   6.6291180e+02   2.4462890e+01
   6.6339390e+02   2.5395080e+01
   6.6387600e+02   2.4945860e+01
   6.6435820e+02   2.4227290e+01
   6.6484030e+02   2.4613100e+01
   6.6532240e+02   2.6010930e+01
   6.6580450e+02   2.7502990e+01
   6.6628660e+02   2.9126460e+01
   6.6676870e+02   3.0619080e+01
   6.6725090e+02   3.1747680e+01
   6.6773300e+02   3.2661620e+01
   6.6821510e+02   3.3638610e+01
   6.6869720e+02   3.4761290e+01
   6.6917930e+02   3.5856990e+01
   6.6966140e+02   3.6691100e+01
   6.7014360e+02   3.7263430e+01
   6.7062570e+02   3.8127200e+01
   6.7110780e+02   3.9481870e+01
   6.7158990e+02   4.0765080e+01
   6.7207200e+02   4.1519960e+01
   6.7255410e+02   4.2180240e+01
   6.7303630e+02   4.3213130e+01
   6.7351840e+02   4.4717470e+01
   6.7400050e+02   4.6452030e+01
   6.7448260e+02   4.8674800e+01
   6.7496470e+02   5.0807620e+01
   6.7544680e+02   5.2195860e+01
   6.7592900e+02   5.2946590e+01
   6.7641110e+02   5.3461730e+01
   6.7689320e+02   5.3867610e+01
   6.7737530e+02   5.4127620e+01
   6.7785740e+02   5.4151310e+01
   6.7833950e+02   5.3942990e+01
   6.7882170e+02   5.4669560e+01
   6.7930380e+02   5.7357480e+01
   6.7978590e+02   5.9502260e+01
   6.8026800e+02   6.0654790e+01
   6.8075010e+02   6.1265010e+01
   6.8123220e+02   6.1459050e+01
   6.8171440e+02   6.1347410e+01
   6.8219650e+02   6.1289860e+01
   6.8267860e+02   6.1455630e+01
   6.8316070e+02   6.1865360e+01
   6.8364280e+02   6.2825620e+01
   6.8412490e+02   6.4212280e+01
   6.8460710e+02   6.4829650e+01
   6.8508920e+02   6.4181400e+01
   6.8557130e+02   6.3130130e+01
   6.8605340e+02   6.2584170e+01
   6.8653550e+02   6.2559270e+01
   6.8701760e+02   6.2844730e+01
   6.8749980e+02   6.4280210e+01
   6.8798190e+02   6.4939940e+01
   6.8846400e+02   6.3612610e+01
   6.8894610e+02   6.1734860e+01
   6.8942820e+02   6.0813900e+01
   6.8991030e+02   6.0969240e+01
   6.9039250e+02   6.1267330e+01
   6.9087460e+02   6.1049990e+01
   6.9135670e+02   6.0447510e+01
   6.9183880e+02   5.9758970e+01
   6.9232090e+02   5.8990300e+01
   6.9280300e+02   5.8046690e+01
   6.9328520e+02   5.6822630e+01
   6.9376730e+02   5.5581790e+01
   6.9424940e+02   5.4712520e+01
   6.9473150e+02   5.4160160e+01
   6.9521360e+02   5.3118840e+01
   6.9569570e+02   5.1014890e+01
   6.9617790e+02   4.9074890e+01
   6.9666000e+02   4.7862060e+01
   6.9714210e+02   4.6946410e+01
   6.9762420e+02   4.5789550e+01
   6.9810630e+02   4.4377140e+01
   6.9858840e+02   4.3121830e+01
   6.9907060e+02   4.2362850e+01
   6.9955270e+02   4.1940670e+01
   7.0003480e+02   4.1466670e+01
   7.0051690e+02   4.0985350e+01
   7.0099900e+02   4.0105770e+01
   7.0148110e+02   3.8499570e+01
   7.0196330e+02   3.6821350e+01
   7.0244540e+02   3.5617490e+01
   7.0292750e+02   3.4792540e+01
   7.0340960e+02   3.4037840e+01
   7.0389170e+02   3.3326900e+01
   7.0437380e+02   3.2659000e+01
   7.0485600e+02   3.1903810e+01
   7.0533810e+02   3.1254640e+01
   7.0582020e+02   3.1151550e+01
   7.0630230e+02   3.1467900e+01
   7.0678440e+02   3.1363160e+01
   7.0726650e+02   3.0199710e+01
   7.0774870e+02   2.8508060e+01
   7.0823080e+02   2.7958070e+01
   7.0871290e+02   2.8924380e+01
   7.0919500e+02   2.9322690e+01
   7.0967710e+02   2.8660220e+01
   7.1015920e+02   2.7709050e+01
   7.1064140e+02   2.6727050e+01
   7.1112350e+02   2.5863280e+01
   7.1160560e+02   2.5514040e+01
   7.1208770e+02   2.6082640e+01
   7.1256980e+02   2.6544370e+01
   7.1305190e+02   2.6136720e+01
   7.1353410e+02   2.5508850e+01
   7.1401620e+02   2.5509640e+01
   7.1449830e+02   2.6059690e+01
   7.1498040e+02   2.6571900e+01
   7.1546250e+02   2.6787960e+01
   7.1594460e+02   2.6721500e+01
   7.1642680e+02   2.6156560e+01
   7.1690890e+02   2.4780700e+01
   7.1739100e+02   2.4185730e+01
   7.1787310e+02   2.5010250e+01
   7.1835520e+02   2.5823670e+01
   7.1883730e+02   2.5846560e+01
   7.1931950e+02   2.5510070e+01
   7.1980160e+02   2.5381590e+01
   7.2028370e+02   2.5499940e+01
   7.2076580e+02   2.5789550e+01
   7.2124790e+02   2.6396910e+01
   7.2173000e+02   2.7104740e+01
   7.2221220e+02   2.7782960e+01
   7.2269430e+02   2.8327580e+01
   7.2317640e+02   2.8353760e+01
   7.2365850e+02   2.7684020e+01
   7.2414060e+02   2.6907530e+01
   7.2462270e+02   2.7046810e+01
   7.2510490e+02   2.8226010e+01
   7.2558700e+02   2.8855830e+01
   7.2606910e+02   2.8504760e+01
   7.2655120e+02   2.8368100e+01
   7.2703330e+02   2.8874940e+01
   7.2751540e+02   2.9668330e+01
   7.2799760e+02   3.0633360e+01
   7.2847970e+02   3.1772890e+01
   7.2896180e+02   3.2544130e+01
   7.2944390e+02   3.2178960e+01
   7.2992600e+02   3.1782650e+01
   7.3040810e+02   3.2667600e+01
   7.3089030e+02   3.4328740e+01
   7.3137240e+02   3.5513670e+01
   7.3185450e+02   3.5827150e+01
   7.3233660e+02   3.5585690e+01
   7.3281870e+02   3.5044490e+01
   7.3330080e+02   3.4230350e+01
   7.3378300e+02   3.3672910e+01
   7.3426510e+02   3.3375060e+01
   7.3474720e+02   3.3339110e+01
   7.3522930e+02   3.3958190e+01
   7.3571140e+02   3.4521550e+01
   7.3619350e+02   3.4421020e+01
   7.3667570e+02   3.3789120e+01
   7.3715780e+02   3.3292850e+01
   7.3763990e+02   3.3374510e+01
   7.3812200e+02   3.3337040e+01
   7.3860410e+02   3.2740230e+01
   7.3908620e+02   3.1710630e+01
   7.3956840e+02   3.0243230e+01
   7.4005050e+02   2.8465880e+01
   7.4053260e+02   2.6996280e+01
   7.4101470e+02   2.6317440e+01
   7.4149680e+02   2.6186890e+01
   7.4197890e+02   2.6047790e+01
   7.4246110e+02   2.6032290e+01
   7.4294320e+02   2.5596680e+01
   7.4342530e+02   2.4484130e+01
   7.4390740e+02   2.3192930e+01
   7.4438950e+02   2.1765810e+01
   7.4487160e+02   2.0423340e+01
   7.4535380e+02   1.9684020e+01
   7.4583590e+02   1.9866390e+01
   7.4631800e+02   1.9833560e+01
   7.4680010e+02   1.8782470e+01
   7.4728220e+02   1.7494570e+01
   7.4776430e+02   1.6821840e+01
   7.4824650e+02   1.6651060e+01
   7.4872860e+02   1.6344970e+01
   7.4921070e+02   1.5616030e+01
   7.4969280e+02   1.4821660e+01
   7.5017490e+02   1.4642030e+01
   7.5065700e+02   1.5141850e+01
   7.5113920e+02   1.4755000e+01
   7.5162130e+02   1.2966980e+01
   7.5210340e+02   1.1475220e+01
   7.5258550e+02   1.1210940e+01
   7.5306760e+02   1.1403320e+01
   7.5354970e+02   1.1116760e+01
   7.5403190e+02   1.0324220e+01
   7.5451400e+02   9.5161130e+00
   7.5499610e+02   8.8461910e+00
   7.5547820e+02   8.1475830e+00
   7.5596030e+02   7.1111450e+00
   7.5644240e+02   6.0712890e+00
   7.5692460e+02   5.5926510e+00
   7.5740670e+02   5.7410890e+00
   7.5788880e+02   6.0712890e+00
   7.5837090e+02   6.2653200e+00
   7.5885300e+02   6.2647090e+00
   7.5933510e+02   5.6799320e+00
   7.5981730e+02   4.3629760e+00
   7.6029940e+02   3.8782350e+00
   7.6078150e+02   5.1113890e+00
   7.6126360e+02   6.2647710e+00
   7.6174570e+02   5.6092530e+00
   7.6222780e+02   3.5286870e+00
   7.6271000e+02   1.9656980e+00
   7.6319210e+02   1.2306520e+00
   7.6367420e+02   6.0827600e-01
   7.6415630e+02   2.2106900e-01
   7.6463840e+02   8.6004600e-01
   7.6512050e+02   8.7768600e-01
   7.6560270e+02   4.2388900e-01
   7.6608480e+02   2.9114000e-02
   7.6656690e+02   2.5811800e-01
   7.6704900e+02   4.8632800e-01
   7.6753110e+02   1.3240360e+00
   7.6801320e+02   2.5061650e+00
   7.6849540e+02   2.2760010e+00
   7.6897750e+02   3.3075000e-01
   7.6945960e+02   1.2952880e+00
   7.6994170e+02   1.5294190e+00
   7.7042380e+02   1.0557250e+00
   7.7090590e+02   1.1066890e+00
   7.7138810e+02   1.9564820e+00
   7.7187020e+02   2.2119140e+00
   7.7235230e+02   1.2346800e+00
   7.7283440e+02   4.5123300e-01
   7.7331650e+02   5.7257100e-01
   7.7379860e+02   1.0167240e+00
   7.7428080e+02   1.0831300e+00
   7.7476290e+02   7.0562700e-01
   7.7524500e+02   3.5455300e-01
   7.7572710e+02   3.3825700e-01
   7.7620920e+02   5.2862500e-01
   7.7669130e+02   9.0277100e-01
   7.7717350e+02   1.3442380e+00
   7.7765560e+02   1.2699580e+00
   7.7813770e+02   5.2880900e-01
   7.7861980e+02   2.8442400e-01
   7.7910190e+02   6.6058300e-01
   7.7958400e+02   6.8054200e-01
   7.8006620e+02   7.7893100e-01
   7.8054830e+02   1.1949460e+00
   7.8103040e+02   1.2246700e+00
   7.8151250e+02   3.8311800e-01
   7.8199460e+02   3.9923100e-01
   7.8247670e+02   5.6512500e-01
   7.8295890e+02   3.7793000e-01
   7.8344100e+02   4.2474400e-01
   7.8392310e+02   9.4073500e-01
   7.8440520e+02   1.2211910e+00
   7.8488730e+02   4.7381600e-01
   7.8536940e+02   4.9615500e-01
   7.8585160e+02   5.7202100e-01
   7.8633370e+02   4.9561001e-02
   7.8681580e+02   4.5562700e-01
   7.8729790e+02   2.8283700e-01
   7.8778000e+02   4.1565001e-02
   7.8826210e+02   8.9844003e-02
   7.8874430e+02   6.5008500e-01
   7.8922640e+02   8.9428700e-01
   7.8970850e+02   8.2366900e-01
   7.9019060e+02   4.0423600e-01
   7.9067270e+02   7.0031700e-01
   7.9115480e+02   1.8474730e+00
   7.9163700e+02   2.3032230e+00
   7.9211910e+02   2.1740110e+00
   7.9260120e+02   2.2004390e+00
   7.9308330e+02   2.6043700e+00
   7.9356540e+02   3.0341800e+00
   7.9404750e+02   3.5176390e+00
   7.9452970e+02   3.8480220e+00
   7.9501180e+02   3.7264400e+00
   7.9549390e+02   3.2323000e+00
   7.9597600e+02   2.7375490e+00
   7.9645810e+02   2.4594120e+00
   7.9694020e+02   2.1821900e+00
   7.9742240e+02   1.4147950e+00
   7.9790450e+02   2.8778100e-01
   7.9838660e+02   2.5085400e-01
   7.9886870e+02   9.0392999e-02
   7.9935080e+02   4.0210000e-01
   7.9983290e+02   1.1696170e+00
   8.0031510e+02   1.9622800e+00
   8.0079720e+02   2.3127440e+00
   8.0127930e+02   2.1441650e+00
   8.0176140e+02   1.8262940e+00
   8.0224350e+02   1.0593260e+00
   8.0272560e+02   5.2716100e-01
   8.0320780e+02   6.0650600e-01
   8.0368990e+02   9.0795900e-01
   8.0417200e+02   8.9440900e-01
   8.0465410e+02   6.1358600e-01
   8.0513620e+02   7.6837200e-01
   8.0561830e+02   2.1980590e+00
   8.0610050e+02   3.6956180e+00
   8.0658260e+02   3.8675540e+00
   8.0706470e+02   3.1760860e+00
   8.0754680e+02   2.5535280e+00
   8.0802890e+02   2.1929930e+00
   8.0851100e+02   2.1300660e+00
   8.0899320e+02   2.4273070e+00
   8.0947530e+02   2.9097290e+00
   8.0995740e+02   3.1185910e+00
   8.1043950e+02   3.0296630e+00
   8.1092160e+02   2.7424320e+00
   8.1140370e+02   2.0795290e+00
   8.1188590e+02   1.5219730e+00
   8.1236800e+02   1.3925780e+00
   8.1285010e+02   1.4757080e+00
   8.1333220e+02   1.3262330e+00
   8.1381430e+02   7.9486100e-01
   8.1429640e+02   1.0112300e+00
   8.1477860e+02   3.1966550e+00
   8.1526070e+02   5.1727290e+00
   8.1574280e+02   5.4415280e+00
   8.1622490e+02   4.8113400e+00
   8.1670700e+02   4.4310910e+00
   8.1718910e+02   4.5277100e+00
   8.1767130e+02   4.6933590e+00
   8.1815340e+02   4.6140140e+00
   8.1863550e+02   4.4186400e+00
   8.1911760e+02   4.3101810e+00
   8.1959970e+02   4.2972410e+00
   8.2008180e+02   4.5136110e+00
   8.2056400e+02   5.0090940e+00
   8.2104610e+02   5.4639280e+00
   8.2152820e+02   5.6210330e+00
   8.2201030e+02   5.6031490e+00
   8.2249240e+02   5.8317870e+00
   8.2297450e+02   6.8415530e+00
   8.2345670e+02   6.9874880e+00
   8.2393880e+02   5.0369870e+00
   8.2442090e+02   3.6125490e+00
   8.2490300e+02   4.1949460e+00
   8.2538510e+02   5.5508420e+00
   8.2586720e+02   6.0206300e+00
   8.2634940e+02   5.3831180e+00
   8.2683150e+02   4.8251340e+00
   8.2731360e+02   5.0966800e+00
   8.2779570e+02   5.4218140e+00
   8.2827780e+02   4.9531250e+00
   8.2875990e+02   4.1195070e+00
   8.2924210e+02   3.7692260e+00
   8.2972420e+02   4.0711060e+00
   8.3020630e+02   4.6018680e+00
   8.3068840e+02   4.9798580e+00
   8.3117050e+02   5.2212520e+00
   8.3165260e+02   5.5592650e+00
   8.3213480e+02   6.0310670e+00
   8.3261690e+02   6.0276490e+00
   8.3309900e+02   5.3060910e+00
   8.3358110e+02   4.5758670e+00
   8.3406320e+02   4.1309810e+00
   8.3454530e+02   4.0151980e+00
   8.3502750e+02   4.4509280e+00
   8.3550960e+02   5.8786010e+00
   8.3599170e+02   6.6663820e+00
   8.3647380e+02   6.3346560e+00
   8.3695590e+02   5.8514400e+00
   8.3743800e+02   5.4595950e+00
   8.3792020e+02   5.1862790e+00
   8.3840230e+02   5.0661620e+00
   8.3888440e+02   5.0788570e+00
   8.3936650e+02   5.1512450e+00
   8.3984860e+02   5.3630980e+00
   8.4033070e+02   5.4430540e+00
   8.4081290e+02   4.8068850e+00
   8.4129500e+02   3.9349980e+00
   8.4177710e+02   4.0393680e+00
   8.4225920e+02   5.1232910e+00
   8.4274130e+02   5.8958130e+00
   8.4322340e+02   5.4537960e+00
   8.4370560e+02   4.4482420e+00
   8.4418770e+02   4.3875120e+00
   8.4466980e+02   5.3893430e+00
   8.4515190e+02   5.7270510e+00
   8.4563400e+02   5.0798950e+00
   8.4611610e+02   4.5098270e+00
   8.4659830e+02   4.5184330e+00
   8.4708040e+02   4.7614750e+00
   8.4756250e+02   4.7463380e+00
   8.4804460e+02   4.4745480e+00
   8.4852670e+02   4.2227170e+00
   8.4900890e+02   3.7299190e+00
   8.4949100e+02   3.5095210e+00
   8.4997310e+02   4.0359500e+00
   8.5045520e+02   4.6366580e+00
   8.5093730e+02   4.6477050e+00
   8.5141940e+02   4.1738280e+00
   8.5190160e+02   3.7294310e+00
   8.5238370e+02   3.5003050e+00
   8.5286580e+02   3.4908450e+00
   8.5334790e+02   3.9127200e+00
   8.5383000e+02   4.4615480e+00
   8.5431210e+02   4.4504390e+00
   8.5479430e+02   3.9928590e+00
   8.5527640e+02   3.9108280e+00
   8.5575850e+02   4.5546880e+00
   8.5624060e+02   5.2673950e+00
   8.5672270e+02   5.1553960e+00
   8.5720480e+02   4.3432620e+00
   8.5768700e+02   4.3162230e+00
   8.5816910e+02   5.3210450e+00
   8.5865120e+02   6.0974120e+00
   8.5913330e+02   6.3341060e+00
   8.5961540e+02   6.2445070e+00
   8.6009750e+02   5.8812870e+00
   8.6057970e+02   5.3145750e+00
   8.6106180e+02   4.9932250e+00
   8.6154390e+02   5.2282100e+00
   8.6202600e+02   5.1943970e+00
   8.6250810e+02   4.2948610e+00
   8.6299020e+02   3.6146240e+00
   8.6347240e+02   4.2086790e+00
   8.6395450e+02   5.3018800e+00
   8.6443660e+02   5.4492800e+00
   8.6491870e+02   4.3312380e+00
   8.6540080e+02   3.3543090e+00
   8.6588290e+02   3.7309570e+00
   8.6636510e+02   4.5307010e+00
   8.6684720e+02   4.6731570e+00
   8.6732930e+02   4.3120120e+00
   8.6781140e+02   3.7418210e+00
   8.6829350e+02   3.0917970e+00
   8.6877560e+02   2.7263180e+00
   8.6925780e+02   2.9656370e+00
   8.6973990e+02   3.5357670e+00
   8.7022200e+02   3.7540280e+00
   8.7070410e+02   3.6021120e+00
   8.7118620e+02   3.3995360e+00
   8.7166830e+02   3.1207280e+00
   8.7215050e+02   2.9780270e+00
   8.7263260e+02   3.0765990e+00
   8.7311470e+02   3.3441770e+00
   8.7359680e+02   3.6622310e+00
   8.7407890e+02   4.0308230e+00
   8.7456100e+02   4.4462280e+00
   8.7504320e+02   5.2188110e+00
   8.7552530e+02   5.6232300e+00
   8.7600740e+02   5.2080690e+00
   8.7648950e+02   4.5946660e+00
   8.7697160e+02   4.2741700e+00
   8.7745370e+02   4.2314450e+00
   8.7793590e+02   4.2380370e+00
   8.7841800e+02   4.2752080e+00
   8.7890010e+02   4.2114260e+00
   8.7938220e+02   3.9766850e+00
   8.7986430e+02   3.5917970e+00
   8.8034640e+02   2.9708250e+00
   8.8082860e+02   2.3063960e+00
   8.8131070e+02   1.7219850e+00
   8.8179280e+02   1.2294310e+00
   8.8227490e+02   1.1848750e+00
   8.8275700e+02   2.2033080e+00
   8.8323910e+02   3.8674320e+00
   8.8372130e+02   4.9313960e+00
   8.8420340e+02   5.4418950e+00
   8.8468550e+02   5.5998540e+00
   8.8516760e+02   5.5239870e+00
   8.8564970e+02   5.1680300e+00
   8.8613180e+02   4.2633060e+00
   8.8661400e+02   3.1745610e+00
   8.8709610e+02   2.9472660e+00
   8.8757820e+02   4.2334590e+00
   8.8806030e+02   4.6917720e+00
   8.8854240e+02   3.5589600e+00
   8.8902450e+02   2.6212160e+00
   8.8950670e+02   2.8241580e+00
   8.8998880e+02   3.4580080e+00
   8.9047090e+02   3.5610350e+00
   8.9095300e+02   3.1022950e+00
   8.9143510e+02   3.0849000e+00
   8.9191720e+02   4.1490480e+00
   8.9239940e+02   5.1519170e+00
   8.9288150e+02   5.8011470e+00
   8.9336360e+02   6.0426030e+00
   8.9384570e+02   5.8372800e+00
   8.9432780e+02   5.1885990e+00
   8.9480990e+02   3.9041750e+00
   8.9529210e+02   1.7800290e+00
   8.9577420e+02   7.0800997e-02
   8.9625630e+02   4.3463100e-01
   8.9673840e+02   1.7657470e+00
   8.9722050e+02   2.2222900e+00
   8.9770260e+02   1.8718260e+00
   8.9818480e+02   1.2305910e+00
   8.9866690e+02   4.8797600e-01
   8.9914900e+02   1.5870000e-03
   8.9963110e+02   1.6827400e-01
   9.0011320e+02   7.7764900e-01
   9.0059530e+02   9.6527100e-01
   9.0107750e+02   6.9323700e-01
   9.0155960e+02   3.8201900e-01
   9.0204170e+02   9.9489996e-03
   9.0252380e+02   8.7219000e-02
   9.0300590e+02   5.5554200e-01
   9.0348800e+02   1.4865720e+00
   9.0397020e+02   1.7678220e+00
   9.0445230e+02   1.1317140e+00
   9.0493440e+02   9.0716600e-01
   9.0541650e+02   1.5458980e+00
   9.0589860e+02   2.0084230e+00
   9.0638070e+02   1.9682620e+00
   9.0686290e+02   1.7327880e+00
   9.0734500e+02   1.5076900e+00
   9.0782710e+02   1.3234250e+00
   9.0830920e+02   1.2186280e+00
   9.0879130e+02   1.1817630e+00
   9.0927340e+02   1.2686770e+00
   9.0975560e+02   1.6559450e+00
   9.1023770e+02   2.0479130e+00
   9.1071980e+02   2.0782470e+00
   9.1120190e+02   1.9379880e+00
   9.1168400e+02   2.1221920e+00
   9.1216610e+02   2.7332760e+00
   9.1264830e+02   3.2203370e+00
   9.1313040e+02   3.0702510e+00
   9.1361250e+02   2.5637820e+00
   9.1409460e+02   2.0351560e+00
   9.1457670e+02   1.5455320e+00
   9.1505880e+02   1.3476560e+00
   9.1554100e+02   1.4562990e+00
   9.1602310e+02   1.5682980e+00
   9.1650520e+02   1.4821780e+00
   9.1698730e+02   1.3515010e+00
   9.1746940e+02   1.5615230e+00
   9.1795150e+02   2.1209720e+00
   9.1843370e+02   2.1105960e+00
   9.1891580e+02   1.3154910e+00
   9.1939790e+02   1.0007930e+00
   9.1988000e+02   1.8108520e+00
   9.2036210e+02   2.8538820e+00
   9.2084420e+02   3.2418820e+00
   9.2132640e+02   2.9796750e+00
   9.2180850e+02   2.5517580e+00
   9.2229060e+02   1.8012080e+00
   9.2277270e+02   1.1086430e+00
   9.2325480e+02   2.6007100e-01
   9.2373690e+02   2.7246100e-01
   9.2421910e+02   8.8440001e-02
   9.2470120e+02   4.7314500e-01
   9.2518330e+02   9.4482400e-01
   9.2566540e+02   1.2744140e+00
   9.2614750e+02   1.4864500e+00
   9.2662960e+02   1.5898440e+00
   9.2711180e+02   1.5791020e+00
   9.2759390e+02   1.4379270e+00
   9.2807600e+02   1.1920170e+00
   9.2855810e+02   7.0184300e-01
   9.2904020e+02   1.2695300e-01
   9.2952230e+02   7.9960003e-03
   9.3000450e+02   6.5582300e-01
   9.3048660e+02   1.3352660e+00
   9.3096870e+02   1.0850220e+00
   9.3145080e+02   4.9585000e-01
   9.3193290e+02   7.1032700e-01
   9.3241500e+02   1.4946900e+00
   9.3289720e+02   1.9335330e+00
   9.3337930e+02   1.7968750e+00
   9.3386140e+02   1.6146850e+00
   9.3434350e+02   1.8803710e+00
   9.3482560e+02   2.3355710e+00
   9.3530770e+02   2.2363280e+00
   9.3578990e+02   1.6369020e+00
   9.3627200e+02   1.5136720e+00
   9.3675410e+02   2.0503540e+00
   9.3723620e+02   2.0187990e+00
   9.3771830e+02   6.3488800e-01
   9.3820040e+02   1.0468750e+00
   9.3868260e+02   1.3635250e+00
   9.3916470e+02   2.7282700e-01
   9.3964680e+02   2.3230000e-01
   9.4012890e+02   2.5262500e-01
   9.4061100e+02   2.9260300e-01
   9.4109310e+02   1.0090940e+00
   9.4157530e+02   1.9927980e+00
   9.4205740e+02   9.2974900e-01
   9.4253950e+02   1.2291870e+00
   9.4302160e+02   1.7955930e+00
   9.4350370e+02   3.3080999e-02
   9.4398580e+02   1.0894170e+00
   9.4446800e+02   1.0659790e+00
   9.4495010e+02   6.9732700e-01
   9.4543220e+02   1.6583300e-01
   9.4591430e+02   9.0124500e-01
   9.4639640e+02   7.0916700e-01
   9.4687850e+02   2.4395800e-01
   9.4736070e+02   9.2004400e-01
   9.4784280e+02   7.8656000e-01
   9.4832490e+02   7.2131300e-01
   9.4880700e+02   1.4575810e+00
   9.4928910e+02   2.2558590e+00
   9.4977120e+02   2.2158200e+00
   9.5025340e+02   1.7359010e+00
   9.5073550e+02   1.7453000e+00
   9.5121760e+02   2.4475710e+00
   9.5169970e+02   3.2467040e+00
   9.5218180e+02   3.8192750e+00
   9.5266390e+02   4.0528560e+00
   9.5314610e+02   3.5044560e+00
   9.5362820e+02   2.5560300e+00
   9.5411030e+02   2.1742550e+00
   9.5459240e+02   2.4085080e+00
   9.5507450e+02   2.7974240e+00
   9.5555660e+02   3.1215210e+00
   9.5603880e+02   3.3116460e+00
   9.5652090e+02   3.2341310e+00
   9.5700300e+02   2.9478150e+00
   9.5748510e+02   2.7640990e+00
   9.5796720e+02   2.6838990e+00
   9.5844930e+02   2.5188600e+00
   9.5893150e+02   2.1883540e+00
   9.5941360e+02   2.1189580e+00
   9.5989570e+02   2.7262570e+00
   9.6037780e+02   3.5921020e+00
   9.6085990e+02   3.5323490e+00
   9.6134200e+02   2.2219850e+00
   9.6182420e+02   1.6910400e+00
   9.6230630e+02   2.3500370e+00
   9.6278840e+02   2.7918090e+00
   9.6327050e+02   2.3132930e+00
   9.6375260e+02   1.6466060e+00
   9.6423470e+02   1.5168460e+00
   9.6471690e+02   1.8711550e+00
   9.6519900e+02   2.3182370e+00
   9.6568110e+02   2.7620850e+00
   9.6616320e+02   3.4533080e+00
   9.6664530e+02   5.1848750e+00
   9.6712740e+02   6.2553710e+00
   9.6760960e+02   5.4066160e+00
   9.6809170e+02   3.8174440e+00
   9.6857380e+02   2.9672240e+00
   9.6905590e+02   2.9372560e+00
   9.6953800e+02   2.9207150e+00
   9.7002010e+02   2.2485350e+00
   9.7050230e+02   2.1856690e+00
   9.7098440e+02   4.1062010e+00
   9.7146650e+02   5.9708860e+00
   9.7194860e+02   5.9497070e+00
   9.7243070e+02   4.6395870e+00
   9.7291280e+02   3.4356080e+00
   9.7339500e+02   2.7106930e+00
   9.7387710e+02   2.0593870e+00
   9.7435920e+02   9.4049100e-01
   9.7484130e+02   8.2947001e-02
   9.7532340e+02   5.0885000e-01
   9.7580550e+02   1.3974610e+00
   9.7628770e+02   1.4291380e+00
   9.7676980e+02   6.7169200e-01
   9.7725190e+02   4.7667999e-02
   9.7773400e+02   8.4840003e-03
   9.7821610e+02   2.7148400e-01
   9.7869820e+02   9.3933001e-02
   9.7918040e+02   1.1902000e-02
   9.7966250e+02   3.4362800e-01
   9.8014460e+02   9.6069300e-01
   9.8062670e+02   1.3349610e+00
   9.8110880e+02   1.3999020e+00
   9.8159090e+02   1.7589110e+00
   9.8207310e+02   2.9551390e+00
   9.8255520e+02   4.2274780e+00
   9.8303730e+02   3.9495240e+00
   9.8351940e+02   2.3817750e+00
   9.8400150e+02   1.4646000e+00
   9.8448360e+02   1.2527470e+00
   9.8496580e+02   1.0687870e+00
   9.8544790e+02   6.9238300e-01
   9.8593000e+02   3.7182600e-01
   9.8641210e+02   3.6737100e-01
   9.8689420e+02   5.4522700e-01
   9.8737630e+02   3.4722900e-01
   9.8785850e+02   3.5656700e-01
   9.8834060e+02   3.9910900e-01
   9.8882270e+02   4.8767100e-01
   9.8930480e+02   1.2832030e+00
   9.8978690e+02   1.5098270e+00
   9.9026900e+02   1.6004640e+00
   9.9075120e+02   2.1760250e+00
   9.9123330e+02   1.9534300e+00
   9.9171540e+02   3.2211910e+00
   9.9219750e+02   1.7579960e+00
   9.9267960e+02   8.3728000e-01
   9.9316170e+02   8.1274400e-01
   9.9364390e+02   1.0448610e+00
   9.9412600e+02   1.3593140e+00
   9.9460810e+02   1.6931150e+00
   9.9509020e+02   1.9954830e+00
   9.9557230e+02   2.2687990e+00
   9.9605440e+02   2.2199710e+00
   9.9653660e+02   1.6086430e+00
   9.9701870e+02   1.2445070e+00
   9.9750080e+02   1.3277590e+00
   9.9798290e+02   1.4704590e+00
   9.9846500e+02   1.5386350e+00
   9.9894710e+02   1.5642700e+00
   9.9942930e+02   1.5248410e+00
   9.9991140e+02   1.4117430e+00
   1.0003930e+03   1.1438600e+00
   1.0008760e+03   5.8764600e-01
   1.0013580e+03   3.2641600e-01
   1.0018400e+03   6.7376700e-01
   1.0023220e+03   1.0986330e+00
   1.0028040e+03   1.1259770e+00
   1.0032860e+03   8.3215300e-01
   1.0037680e+03   4.5965600e-01
   1.0042500e+03   1.2707500e-01
   1.0047330e+03   8.3618000e-02
   1.0052150e+03   7.4121100e-01
   1.0056970e+03   1.3047490e+00
   1.0061790e+03   9.0612800e-01
   1.0066610e+03   2.4151600e-01
   1.0071430e+03   3.9276100e-01
   1.0076250e+03   1.1571040e+00
   1.0081070e+03   1.3820800e+00
   1.0085890e+03   5.3125000e-01
   1.0090720e+03   1.2878400e-01
   1.0095540e+03   9.6374500e-01
   1.0100360e+03   2.4036250e+00
   1.0105180e+03   2.2792970e+00
   1.0110000e+03   1.2833250e+00
   1.0114820e+03   8.5913100e-01
   1.0119640e+03   1.1709590e+00
   1.0124460e+03   1.6040650e+00
   1.0129290e+03   1.8374020e+00
   1.0134110e+03   1.9115600e+00
   1.0138930e+03   1.7894290e+00
   1.0143750e+03   1.5901490e+00
   1.0148570e+03   1.6433720e+00
   1.0153390e+03   1.8398440e+00
   1.0158210e+03   1.6853030e+00
   1.0163030e+03   1.1307980e+00
   1.0167850e+03   7.2845500e-01
   1.0172680e+03   8.7402300e-01
   1.0177500e+03   1.2723390e+00
   1.0182320e+03   1.5797120e+00
   1.0187140e+03   1.7159420e+00
   1.0191960e+03   1.1089480e+00
   1.0196780e+03   1.1920200e-01
   1.0201600e+03   7.6425200e-01
   1.0206420e+03   5.0170900e-01
   1.0211250e+03   1.3397200e-01
   1.0216070e+03   7.7005000e-01
   1.0220890e+03   1.2876280e+00
   1.0225710e+03   1.3599850e+00
   1.0230530e+03   1.0104060e+00
   1.0235350e+03   6.4758300e-01
   1.0240170e+03   2.7423100e-01
   1.0244990e+03   2.1185300e-01
   1.0249810e+03   6.0015900e-01
   1.0254640e+03   1.0379030e+00
   1.0259460e+03   1.1441650e+00
   1.0264280e+03   1.0521850e+00
   1.0269100e+03   1.2333980e+00
   1.0273920e+03   1.7494510e+00
   1.0278740e+03   1.8480220e+00
   1.0283560e+03   1.3423770e+00
   1.0288380e+03   1.2678530e+00
   1.0293210e+03   2.1220400e+00
   1.0298030e+03   3.1185300e+00
   1.0302850e+03   3.5245060e+00
   1.0307670e+03   3.4051210e+00
   1.0312490e+03   2.9801640e+00
   1.0317310e+03   2.0142520e+00
   1.0322130e+03   1.6885380e+00
   1.0326950e+03   2.3548580e+00
   1.0331770e+03   2.8002320e+00
   1.0336600e+03   2.4284970e+00
   1.0341420e+03   1.8841550e+00
   1.0346240e+03   1.8520200e+00
   1.0351060e+03   2.2340700e+00
   1.0355880e+03   2.4881290e+00
   1.0360700e+03   2.6085820e+00
   1.0365520e+03   2.5937190e+00
   1.0370340e+03   2.2197270e+00
   1.0375160e+03   2.0489500e+00
   1.0379990e+03   2.4129940e+00
   1.0384810e+03   2.9314270e+00
   1.0389630e+03   3.2777400e+00
   1.0394450e+03   3.4375000e+00
   1.0399270e+03   3.2696230e+00
   1.0404090e+03   2.3845210e+00
   1.0408910e+03   1.8601380e+00
   1.0413730e+03   2.0530400e+00
   1.0418550e+03   2.1594540e+00
   1.0423380e+03   1.5407710e+00
   1.0428200e+03   9.5806900e-01
   1.0433020e+03   1.4562070e+00
   1.0437840e+03   2.8283390e+00
   1.0442660e+03   3.4630430e+00
   1.0447480e+03   2.9944150e+00
   1.0452300e+03   2.3289490e+00
   1.0457120e+03   1.0438840e+00
   1.0461950e+03   9.9854000e-02
   1.0466770e+03   1.6510000e-02
   1.0471590e+03   3.8076800e-01
   1.0476410e+03   9.6102900e-01
   1.0481230e+03   1.6530460e+00
   1.0486050e+03   1.9223630e+00
   1.0490870e+03   1.3022160e+00
   1.0495690e+03   9.9041700e-01
   1.0500520e+03   1.5014950e+00
   1.0505340e+03   1.9343570e+00
   1.0510160e+03   1.7760010e+00
   1.0514980e+03   1.4016110e+00
   1.0519800e+03   1.2263790e+00
   1.0524620e+03   1.2456360e+00
   1.0529440e+03   1.2383420e+00
   1.0534260e+03   1.1131900e+00
   1.0539080e+03   1.0586850e+00
   1.0543910e+03   1.0822450e+00
   1.0548730e+03   1.2252500e+00
   1.0553550e+03   1.5642090e+00
   1.0558370e+03   1.9936220e+00
   1.0563190e+03   2.5347290e+00
   1.0568010e+03   3.0829470e+00
   1.0572830e+03   3.1630250e+00
   1.0577650e+03   2.3359380e+00
   1.0582480e+03   1.8216250e+00
   1.0587300e+03   2.3330690e+00
   1.0592120e+03   2.8925480e+00
   1.0596940e+03   2.8549500e+00
   1.0601760e+03   2.6135250e+00
   1.0606580e+03   2.7124630e+00
   1.0611400e+03   3.0914920e+00
   1.0616220e+03   3.2564090e+00
   1.0621040e+03   3.0032650e+00
   1.0625870e+03   2.6640630e+00
   1.0630690e+03   2.1382750e+00
   1.0635510e+03   1.8687740e+00
   1.0640330e+03   2.2637630e+00
   1.0645150e+03   2.9421690e+00
   1.0649970e+03   3.6878970e+00
   1.0654790e+03   4.3057250e+00
   1.0659610e+03   4.2008670e+00
   1.0664430e+03   2.8544620e+00
   1.0669260e+03   2.0252380e+00
   1.0674080e+03   3.0131530e+00
   1.0678900e+03   4.0760800e+00
   1.0683720e+03   4.1242680e+00
   1.0688540e+03   3.7203670e+00
   1.0693360e+03   3.4684750e+00
   1.0698180e+03   3.4184880e+00
   1.0703000e+03   3.4041750e+00
   1.0707820e+03   3.3716430e+00
   1.0712650e+03   3.4081730e+00
   1.0717470e+03   3.7737730e+00
   1.0722290e+03   3.9584660e+00
   1.0727110e+03   3.3650510e+00
   1.0731930e+03   2.6500240e+00
   1.0736750e+03   2.6432800e+00
   1.0741570e+03   3.1536250e+00
   1.0746390e+03   3.4278560e+00
   1.0751220e+03   3.2361150e+00
   1.0756040e+03   2.9953310e+00
   1.0760860e+03   3.0401610e+00
   1.0765680e+03   2.9215390e+00
   1.0770500e+03   2.1434940e+00
   1.0775320e+03   1.2515260e+00
   1.0780140e+03   7.7621500e-01
   1.0784960e+03   7.1209700e-01
   1.0789790e+03   7.8753700e-01
   1.0794610e+03   9.1543600e-01
   1.0799430e+03   1.1701050e+00
   1.0804250e+03   1.6986690e+00
   1.0809070e+03   2.2221980e+00
   1.0813890e+03   2.8129580e+00
   1.0818710e+03   3.1283870e+00
   1.0823530e+03   2.6007390e+00
   1.0828350e+03   1.6161190e+00
   1.0833180e+03   1.0017400e+00
   1.0838000e+03   9.4311500e-01
   1.0842820e+03   1.0307920e+00
   1.0847640e+03   1.1894840e+00
   1.0852460e+03   1.3258670e+00
   1.0857280e+03   1.3922120e+00
   1.0862100e+03   1.4184570e+00
   1.0866920e+03   1.2073360e+00
   1.0871750e+03   1.0690310e+00
   1.0876570e+03   1.7460020e+00
   1.0881390e+03   3.2764590e+00
   1.0886210e+03   4.3223270e+00
   1.0891030e+03   4.0397950e+00
   1.0895850e+03   3.6023250e+00
   1.0900670e+03   3.6055910e+00
   1.0905490e+03   3.5500490e+00
   1.0910310e+03   2.5589290e+00
   1.0915140e+03   1.5098270e+00
   1.0919960e+03   2.1230470e+00
   1.0924780e+03   4.3175050e+00
   1.0929600e+03   5.6492000e+00
   1.0934420e+03   4.8248290e+00
   1.0939240e+03   3.9203190e+00
   1.0944060e+03   3.8147580e+00
   1.0948880e+03   3.7596130e+00
   1.0953700e+03   3.1813350e+00
   1.0958530e+03   2.4201660e+00
   1.0963350e+03   1.8581540e+00
   1.0968170e+03   1.5612490e+00
   1.0972990e+03   1.5681150e+00
   1.0977810e+03   1.9739690e+00
   1.0982630e+03   2.4786680e+00
   1.0987450e+03   3.4768980e+00
   1.0992270e+03   3.9830020e+00
   1.0997090e+03   2.9776920e+00
   1.1001920e+03   1.6029970e+00
   1.1006740e+03   1.0011900e+00
   1.1011560e+03   1.1281740e+00
   1.1016380e+03   1.5603640e+00
   1.1021200e+03   2.4235840e+00
   1.1026020e+03   2.7804260e+00
   1.1030840e+03   1.8486330e+00
   1.1035660e+03   1.0689700e+00
   1.1040490e+03   1.2425840e+00
   1.1045310e+03   1.5804140e+00
   1.1050130e+03   1.3427120e+00
   1.1054950e+03   7.3214700e-01
   1.1059770e+03   2.8530900e-01
   1.1064590e+03   4.3517999e-02
   1.1069410e+03   9.3474999e-02
   1.1074230e+03   6.6543600e-01
   1.1079060e+03   1.2304380e+00
   1.1083880e+03   1.8564760e+00
   1.1088700e+03   2.2251590e+00
   1.1093520e+03   1.8798220e+00
   1.1098340e+03   1.2506410e+00
   1.1103160e+03   1.1887820e+00
   1.1107980e+03   1.7870180e+00
   1.1112800e+03   1.9195250e+00
   1.1117620e+03   9.5806900e-01
   1.1122450e+03   3.5391200e-01
   1.1127270e+03   6.3983200e-01
   1.1132090e+03   9.1491700e-01
   1.1136910e+03   6.4132700e-01
   1.1141730e+03   1.8109100e-01
   1.1146550e+03   4.3701001e-02
   1.1151370e+03   1.9329800e-01
   1.1156190e+03   1.1038200e-01
   1.1161020e+03   4.4226100e-01
   1.1165840e+03   8.1268300e-01
   1.1170660e+03   8.3969100e-01
   1.1175480e+03   9.3234300e-01
   1.1180300e+03   1.4523930e+00
   1.1185120e+03   1.8602910e+00
   1.1189940e+03   1.5535890e+00
   1.1194760e+03   7.2070300e-01
   1.1199580e+03   1.2695300e-01
   1.1204410e+03   1.1837800e-01
   1.1209230e+03   4.9826000e-01
   1.1214050e+03   1.1973570e+00
   1.1218870e+03   1.6082460e+00
   1.1223690e+03   1.4520870e+00
   1.1228510e+03   1.2032780e+00
   1.1233330e+03   1.2287900e+00
   1.1238150e+03   1.3893430e+00
   1.1242970e+03   1.3804320e+00
   1.1247800e+03   1.1987610e+00
   1.1252620e+03   8.3993500e-01
   1.1257440e+03   8.9782998e-02
   1.1262260e+03   1.1151100e-01
   1.1267080e+03   1.4512630e+00
   1.1271900e+03   2.3555600e+00
   1.1276720e+03   1.6936040e+00
   1.1281540e+03   4.9588000e-01
   1.1286360e+03   3.0621300e-01
   1.1291190e+03   9.6807900e-01
   1.1296010e+03   1.1410520e+00
   1.1300830e+03   7.6373300e-01
   1.1305650e+03   5.5477900e-01
   1.1310470e+03   5.9719800e-01
   1.1315290e+03   6.8652300e-01
   1.1320110e+03   7.4392700e-01
   1.1324930e+03   7.7325400e-01
   1.1329760e+03   7.4850500e-01
   1.1334580e+03   7.6303100e-01
   1.1339400e+03   1.1569520e+00
   1.1344220e+03   1.8897400e+00
   1.1349040e+03   2.4870910e+00
   1.1353860e+03   2.9196470e+00
   1.1358680e+03   3.0248110e+00
   1.1363500e+03   2.7633970e+00
   1.1368330e+03   2.2804870e+00
   1.1373150e+03   1.6304320e+00
   1.1377970e+03   1.1304020e+00
   1.1382790e+03   1.5371400e+00
   1.1387610e+03   2.4925230e+00
   1.1392430e+03   2.6675720e+00
   1.1397250e+03   2.2416690e+00
   1.1402070e+03   1.9666140e+00
   1.1406890e+03   1.9725950e+00
   1.1411720e+03   2.1647030e+00
   1.1416540e+03   2.4942930e+00
   1.1421360e+03   2.7841490e+00
   1.1426180e+03   2.6513370e+00
   1.1431000e+03   2.5728760e+00
   1.1435820e+03   3.9659420e+00
   1.1440640e+03   3.3455810e+00
   1.1445460e+03   5.2982180e+00
   1.1450290e+03   3.1378170e+00
   1.1455110e+03   1.6485290e+00
   1.1459930e+03   1.5256350e+00
   1.1464750e+03   2.0853880e+00
   1.1469570e+03   3.1509090e+00
   1.1474390e+03   3.9608150e+00
   1.1479210e+03   3.4940190e+00
   1.1484030e+03   2.5718380e+00
   1.1488850e+03   2.1237790e+00
   1.1493680e+03   1.9997860e+00
   1.1498500e+03   1.8447270e+00
   1.1503320e+03   1.6190490e+00
   1.1508140e+03   1.4692690e+00
   1.1512960e+03   1.4720150e+00
   1.1517780e+03   1.4775390e+00
   1.1522600e+03   1.3153690e+00
   1.1527420e+03   1.2252200e+00
   1.1532240e+03   1.4243770e+00
   1.1537070e+03   1.7371830e+00
   1.1541890e+03   2.0733340e+00
   1.1546710e+03   2.3357240e+00
   1.1551530e+03   2.2857060e+00
   1.1556350e+03   1.8704830e+00
   1.1561170e+03   1.6826170e+00
   1.1565990e+03   1.9427490e+00
   1.1570810e+03   2.4107970e+00
   1.1575630e+03   3.3763430e+00
   1.1580460e+03   4.1289060e+00
   1.1585280e+03   4.1305850e+00
   1.1590100e+03   3.7161870e+00
   1.1594920e+03   3.1163330e+00
   1.1599740e+03   2.4567260e+00
   1.1604560e+03   2.5247500e+00
   1.1609380e+03   4.2669980e+00
   1.1614200e+03   5.0133060e+00
   1.1619030e+03   3.8558960e+00
   1.1623850e+03   2.8383180e+00
   1.1628670e+03   2.6104430e+00
   1.1633490e+03   2.5894170e+00
   1.1638310e+03   2.2517700e+00
   1.1643130e+03   1.8308110e+00
   1.1647950e+03   1.9499210e+00
   1.1652770e+03   2.7137150e+00
   1.1657600e+03   3.1011050e+00
   1.1662420e+03   2.9534910e+00
   1.1667240e+03   2.9627690e+00
   1.1672060e+03   3.2926030e+00
   1.1676880e+03   3.6080020e+00
   1.1681700e+03   3.7355350e+00
   1.1686520e+03   3.7867430e+00
   1.1691340e+03   3.9063420e+00
   1.1696160e+03   4.0710750e+00
   1.1700990e+03   4.1911930e+00
   1.1705810e+03   4.2716980e+00
   1.1710630e+03   4.0438230e+00
   1.1715450e+03   3.4840090e+00
   1.1720270e+03   3.2956240e+00
   1.1725090e+03   3.7047420e+00
   1.1729910e+03   4.7550350e+00
   1.1734730e+03   6.6211850e+00
   1.1739560e+03   8.3867490e+00
   1.1744380e+03   8.3685300e+00
   1.1749200e+03   7.0449220e+00
   1.1754020e+03   5.5143130e+00
   1.1758840e+03   4.0089720e+00
   1.1763660e+03   3.6297300e+00
   1.1768480e+03   4.3336490e+00
   1.1773300e+03   4.8690190e+00
   1.1778130e+03   4.6730650e+00
   1.1782950e+03   4.2775570e+00
   1.1787770e+03   4.1441650e+00
   1.1792590e+03   4.1058040e+00
   1.1797410e+03   3.9902650e+00
   1.1802230e+03   3.8213810e+00
   1.1807050e+03   3.5460210e+00
   1.1811870e+03   3.2737730e+00
   1.1816690e+03   3.3047790e+00
   1.1821510e+03   3.6128850e+00
   1.1826340e+03   3.7391050e+00
   1.1831160e+03   3.3875120e+00
   1.1835980e+03   3.1630550e+00
   1.1840800e+03   3.6771850e+00
   1.1845620e+03   4.1504520e+00
   1.1850440e+03   3.9373780e+00
   1.1855260e+03   3.5644840e+00
   1.1860080e+03   3.4051510e+00
   1.1864900e+03   3.4617920e+00
   1.1869730e+03   3.7919620e+00
   1.1874550e+03   4.4476320e+00
   1.1879370e+03   5.1695250e+00
   1.1884190e+03   6.2900090e+00
   1.1889010e+03   6.9152220e+00
   1.1893830e+03   6.5290220e+00
   1.1898650e+03   5.9817810e+00
   1.1903470e+03   5.7956540e+00
   1.1908300e+03   5.6024170e+00
   1.1913120e+03   4.8169860e+00
   1.1917940e+03   3.6667180e+00
   1.1922760e+03   3.2998660e+00
   1.1927580e+03   4.0046080e+00
   1.1932400e+03   4.5178530e+00
   1.1937220e+03   4.8228760e+00
   1.1942040e+03   5.0314030e+00
   1.1946870e+03   5.1038510e+00
   1.1951690e+03   5.0720520e+00
   1.1956510e+03   5.0021060e+00
   1.1961330e+03   4.9777830e+00
   1.1966150e+03   5.0036010e+00
   1.1970970e+03   5.4101260e+00
   1.1975790e+03   4.9761350e+00
   1.1980610e+03   4.9945680e+00
   1.1985430e+03   4.9078370e+00
   1.1990260e+03   4.3428040e+00
   1.1995080e+03   4.5188600e+00
   1.1999900e+03   3.8106380e+00
   1.2004720e+03   3.1458740e+00
   1.2009540e+03   3.2879330e+00
   1.2014360e+03   3.0208440e+00
   1.2019180e+03   3.6965030e+00
   1.2024000e+03   3.4847720e+00
   1.2028830e+03   3.9441830e+00
   1.2033650e+03   4.7954410e+00
   1.2038470e+03   5.3368840e+00
   1.2043290e+03   5.5643620e+00
   1.2048110e+03   6.0201110e+00
   1.2052930e+03   6.8663640e+00
   1.2057750e+03   7.2123410e+00
   1.2062570e+03   6.1527710e+00
   1.2067400e+03   4.7859190e+00
   1.2072220e+03   3.4508970e+00
   1.2077040e+03   2.6105040e+00
   1.2081860e+03   3.1481020e+00
   1.2086680e+03   4.1885380e+00
   1.2091500e+03   4.4140010e+00
   1.2096320e+03   3.8319090e+00
   1.2101140e+03   3.2780150e+00
   1.2105960e+03   2.8342290e+00
   1.2110780e+03   2.7697750e+00
   1.2115610e+03   3.5522770e+00
   1.2120430e+03   4.1407780e+00
   1.2125250e+03   4.1388550e+00
   1.2130070e+03   3.9200740e+00
   1.2134890e+03   3.5871280e+00
   1.2139710e+03   3.2890010e+00
   1.2144530e+03   3.2933350e+00
   1.2149350e+03   3.5735470e+00
   1.2154170e+03   3.6943970e+00
   1.2159000e+03   3.4363710e+00
   1.2163820e+03   4.0361630e+00
   1.2168640e+03   5.9761050e+00
   1.2173460e+03   6.8055420e+00
   1.2178280e+03   5.6014100e+00
   1.2183100e+03   3.8586120e+00
   1.2187920e+03   2.5995480e+00
   1.2192740e+03   1.9349670e+00
   1.2197570e+03   2.3473210e+00
   1.2202390e+03   3.4685670e+00
   1.2207210e+03   3.3557430e+00
   1.2212030e+03   2.2834780e+00
   1.2216850e+03   1.5029910e+00
   1.2221670e+03   1.1900630e+00
   1.2226490e+03   1.3569640e+00
   1.2231310e+03   1.9462590e+00
   1.2236140e+03   2.3605040e+00
   1.2240960e+03   2.0261230e+00
   1.2245780e+03   1.6310730e+00
   1.2250600e+03   1.9753720e+00
   1.2255420e+03   2.6325070e+00
   1.2260240e+03   3.3302920e+00
   1.2265060e+03   3.8352360e+00
   1.2269880e+03   3.5910030e+00
   1.2274700e+03   2.8938600e+00
   1.2279530e+03   2.9067690e+00
   1.2284350e+03   4.0301210e+00
   1.2289170e+03   4.2977290e+00
   1.2293990e+03   1.8395390e+00
   1.2298810e+03   3.1280998e-02
   1.2303630e+03   3.3975200e-01
   1.2308450e+03   1.1835940e+00
   1.2313270e+03   2.0460510e+00
   1.2318100e+03   2.6296390e+00
   1.2322920e+03   2.3690190e+00
   1.2327740e+03   1.5631410e+00
   1.2332560e+03   1.4315490e+00
   1.2337380e+03   2.1943970e+00
   1.2342200e+03   2.7232060e+00
   1.2347020e+03   3.1168820e+00
   1.2351840e+03   2.8375550e+00
   1.2356670e+03   1.5345760e+00
   1.2361490e+03   5.8047500e-01
   1.2366310e+03   7.4966400e-01
   1.2371130e+03   1.3087160e+00
   1.2375950e+03   1.3777770e+00
   1.2380770e+03   1.1594240e+00
   1.2385590e+03   1.3022160e+00
   1.2390410e+03   1.7100520e+00
   1.2395230e+03   1.9336850e+00
   1.2400050e+03   1.9404910e+00
   1.2404880e+03   1.6106570e+00
   1.2409700e+03   9.9340800e-01
   1.2414520e+03   5.1089500e-01
   1.2419340e+03   3.7011700e-01
   1.2424160e+03   1.8133500e-01
   1.2428980e+03   7.3291000e-01
   1.2433800e+03   1.5080870e+00
   1.2438620e+03   1.0690310e+00
   1.2443440e+03   2.0117200e-01
   1.2448270e+03   3.5177600e-01
   1.2453090e+03   5.9295700e-01
   1.2457910e+03   4.9261500e-01
   1.2462730e+03   1.9863900e-01
   1.2467550e+03   3.6068700e-01
   1.2472370e+03   1.3511660e+00
   1.2477190e+03   2.0737000e+00
   1.2482010e+03   2.2452390e+00
   1.2486840e+03   2.1715390e+00
   1.2491660e+03   1.7577820e+00
   1.2496480e+03   1.3367310e+00
   1.2501300e+03   1.1618350e+00
   1.2506120e+03   1.0081480e+00
   1.2510940e+03   4.6957400e-01
   1.2515760e+03   3.1320200e-01
   1.2520580e+03   3.1256100e-01
   1.2525410e+03   6.7419400e-01
   1.2530230e+03   8.4722900e-01
   1.2535050e+03   6.0486000e-02
   1.2539870e+03   3.3221400e-01
   1.2544690e+03   3.9059999e-03
   1.2549510e+03   5.6631500e-01
   1.2554330e+03   1.0598450e+00
   1.2559150e+03   1.5884700e+00
   1.2563970e+03   2.3813780e+00
   1.2568800e+03   3.1272890e+00
   1.2573620e+03   3.0747380e+00
   1.2578440e+03   2.5629270e+00
   1.2583260e+03   2.2770080e+00
   1.2588080e+03   2.2643430e+00
   1.2592900e+03   2.4595950e+00
   1.2597720e+03   2.7983700e+00
   1.2602540e+03   3.1264040e+00
   1.2607370e+03   3.3940730e+00
   1.2612190e+03   3.3767400e+00
   1.2617010e+03   2.5193790e+00
   1.2621830e+03   2.0488590e+00
   1.2626650e+03   3.0618900e+00
   1.2631470e+03   4.1780700e+00
   1.2636290e+03   4.1321410e+00
   1.2641110e+03   3.6805730e+00
   1.2645940e+03   3.7652280e+00
   1.2650760e+03   4.7270810e+00
   1.2655580e+03   5.0512700e+00
   1.2660400e+03   4.0913090e+00
   1.2665220e+03   3.3946840e+00
   1.2670040e+03   2.9659120e+00
   1.2674860e+03   2.8498540e+00
   1.2679680e+03   3.1281130e+00
   1.2684500e+03   3.2826230e+00
   1.2689320e+03   2.7973330e+00
   1.2694150e+03   2.5185850e+00
   1.2698970e+03   2.2951050e+00
   1.2703790e+03   2.2534180e+00
   1.2708610e+03   1.6283870e+00
   1.2713430e+03   1.8834530e+00
   1.2718250e+03   8.8446000e-01
   1.2723070e+03   1.7254030e+00
   1.2727890e+03   1.9439700e+00
   1.2732710e+03   1.4669190e+00
   1.2737540e+03   1.0256350e+00
   1.2742360e+03   8.9770500e-01
   1.2747180e+03   9.3383800e-01
   1.2752000e+03   9.6633900e-01
   1.2756820e+03   1.2349550e+00
   1.2761640e+03   2.2311100e+00
   1.2766460e+03   3.0546570e+00
   1.2771280e+03   2.8140260e+00
   1.2776110e+03   2.2639770e+00
   1.2780930e+03   2.3935850e+00
   1.2785750e+03   2.9464720e+00
   1.2790570e+03   2.9459530e+00
   1.2795390e+03   2.3696290e+00
   1.2800210e+03   1.5939330e+00
   1.2805030e+03   7.5745001e-02
   1.2809850e+03   1.5982100e-01
   1.2814680e+03   1.7144470e+00
   1.2819500e+03   3.0063780e+00
   1.2824320e+03   2.6163330e+00
   1.2829140e+03   1.9099730e+00
   1.2833960e+03   1.8568120e+00
   1.2838780e+03   2.2614750e+00
   1.2843600e+03   1.7416990e+00
   1.2848420e+03   6.5319800e-01
   1.2853240e+03   0.0000000e+00
   1.5000000e+03   0.0000000e+00
