   1.0000000e+02   0.0000000e+00
   1.8678480e+02   0.0000000e+00
   1.8726690e+02   1.3244140e+01
   1.8774910e+02   1.7167970e+00
   1.8823120e+02   4.8007810e+00
   1.8871330e+02   3.1503910e+00
   1.8919540e+02   1.3214840e+01
   1.8967750e+02   2.3517580e+01
   1.9015960e+02   3.2789060e+01
   1.9064180e+02   4.0373050e+01
   1.9112390e+02   4.5494140e+01
   1.9160600e+02   4.9708980e+01
   1.9208810e+02   5.2724610e+01
   1.9257020e+02   5.4533200e+01
   1.9305240e+02   5.3126950e+01
   1.9353450e+02   4.3466800e+01
   1.9401660e+02   4.2623050e+01
   1.9449870e+02   8.6433590e+01
   1.9498080e+02   1.7827340e+02
   1.9546290e+02   2.6204490e+02
   1.9594510e+02   3.0278520e+02
   1.9642720e+02   3.0249800e+02
   1.9690930e+02   3.1574610e+02
   1.9739140e+02   3.4364260e+02
   1.9787350e+02   3.8580470e+02
   1.9835560e+02   4.5197070e+02
   1.9883780e+02   5.4831640e+02
   1.9931990e+02   6.2772460e+02
   1.9980200e+02   6.5123240e+02
   2.0028410e+02   6.1268550e+02
   2.0076620e+02   6.0715430e+02
   2.0124830e+02   6.5161720e+02
   2.0173050e+02   7.2134380e+02
   2.0221260e+02   7.5346480e+02
   2.0269470e+02   7.4095700e+02
   2.0317680e+02   7.1690430e+02
   2.0365890e+02   7.0058200e+02
   2.0414100e+02   6.9324220e+02
   2.0462320e+02   6.8406450e+02
   2.0510530e+02   6.7307230e+02
   2.0558740e+02   6.5916800e+02
   2.0606950e+02   6.3798630e+02
   2.0655160e+02   6.0809770e+02
   2.0703370e+02   5.7465430e+02
   2.0751590e+02   5.3929880e+02
   2.0799800e+02   5.0036130e+02
   2.0848010e+02   4.6698830e+02
   2.0896220e+02   4.3712110e+02
   2.0944430e+02   4.1373830e+02
   2.0992640e+02   4.1422070e+02
   2.1040860e+02   4.4492380e+02
   2.1089070e+02   4.8680660e+02
   2.1137280e+02   5.2203320e+02
   2.1185490e+02   5.4355470e+02
   2.1233700e+02   5.8454690e+02
   2.1281910e+02   6.5430080e+02
   2.1330130e+02   7.4856450e+02
   2.1378340e+02   8.3834380e+02
   2.1426550e+02   9.1536330e+02
   2.1474760e+02   1.0016560e+03
   2.1522970e+02   1.1139900e+03
   2.1571180e+02   1.2554080e+03
   2.1619400e+02   1.4191450e+03
   2.1667610e+02   1.6067910e+03
   2.1715820e+02   1.8183380e+03
   2.1764030e+02   2.0369530e+03
   2.1812240e+02   2.2660140e+03
   2.1860450e+02   2.4938710e+03
   2.1908670e+02   2.7039690e+03
   2.1956880e+02   2.8754410e+03
   2.2005090e+02   3.0751860e+03
   2.2053300e+02   3.3151880e+03
   2.2101510e+02   3.5995330e+03
   2.2149720e+02   3.8914730e+03
   2.2197940e+02   4.1903830e+03
   2.2246150e+02   4.5005880e+03
   2.2294360e+02   4.8322600e+03
   2.2342570e+02   5.1929340e+03
   2.2390780e+02   5.5646000e+03
   2.2438990e+02   5.9366600e+03
   2.2487210e+02   6.3132250e+03
   2.2535420e+02   6.7037190e+03
   2.2583630e+02   7.1071580e+03
   2.2631840e+02   7.5287440e+03
   2.2680050e+02   7.9901880e+03
   2.2728270e+02   8.5217930e+03
   2.2776480e+02   9.0291760e+03
   2.2824690e+02   9.4860780e+03
   2.2872900e+02   9.8851250e+03
   2.2921110e+02   1.0283430e+04
   2.2969320e+02   1.0709590e+04
   2.3017540e+02   1.1106850e+04
   2.3065750e+02   1.1409730e+04
   2.3113960e+02   1.1619840e+04
   2.3162170e+02   1.1727930e+04
   2.3210380e+02   1.1735850e+04
   2.3258590e+02   1.1658470e+04
   2.3306810e+02   1.1450020e+04
   2.3355020e+02   1.1075040e+04
   2.3403230e+02   1.0591810e+04
   2.3451440e+02   1.0077190e+04
   2.3499650e+02   9.5366410e+03
   2.3547860e+02   8.9760860e+03
   2.3596080e+02   8.3797230e+03
   2.3644290e+02   7.7449900e+03
   2.3692500e+02   7.1309340e+03
   2.3740710e+02   6.5208300e+03
   2.3788920e+02   5.9323420e+03
   2.3837130e+02   5.3851290e+03
   2.3885350e+02   4.8803830e+03
   2.3933560e+02   4.4218220e+03
   2.3981770e+02   4.0062110e+03
   2.4029980e+02   3.6345230e+03
   2.4078190e+02   3.2790470e+03
   2.4126400e+02   2.9335120e+03
   2.4174620e+02   2.6025860e+03
   2.4222830e+02   2.2873830e+03
   2.4271040e+02   1.9665800e+03
   2.4319250e+02   1.6971250e+03
   2.4367460e+02   1.5063870e+03
   2.4415670e+02   1.4196170e+03
   2.4463890e+02   1.3228650e+03
   2.4512100e+02   1.2134410e+03
   2.4560310e+02   1.0983050e+03
   2.4608520e+02   9.8878710e+02
   2.4656730e+02   8.8005860e+02
   2.4704940e+02   7.8501560e+02
   2.4753160e+02   7.0927730e+02
   2.4801370e+02   6.5666210e+02
   2.4849580e+02   6.1046880e+02
   2.4897790e+02   5.7051560e+02
   2.4946000e+02   5.3719140e+02
   2.4994210e+02   5.1338670e+02
   2.5042430e+02   5.0758590e+02
   2.5090640e+02   4.9595900e+02
   2.5138850e+02   4.6500980e+02
   2.5187060e+02   4.0067580e+02
   2.5235270e+02   3.6601560e+02
   2.5283480e+02   3.7215040e+02
   2.5331700e+02   4.0093360e+02
   2.5379910e+02   4.1917970e+02
   2.5428120e+02   4.2538870e+02
   2.5476330e+02   4.2292580e+02
   2.5524540e+02   4.0988670e+02
   2.5572750e+02   3.7977540e+02
   2.5620970e+02   3.6309380e+02
   2.5669180e+02   3.6291990e+02
   2.5717390e+02   3.7388280e+02
   2.5765600e+02   3.8644920e+02
   2.5813810e+02   3.9943750e+02
   2.5862020e+02   4.1686330e+02
   2.5910240e+02   4.4621090e+02
   2.5958450e+02   4.9705270e+02
   2.6006660e+02   5.1473630e+02
   2.6054870e+02   4.8488670e+02
   2.6103080e+02   4.3267190e+02
   2.6151290e+02   4.0190230e+02
   2.6199510e+02   3.9254880e+02
   2.6247720e+02   4.0526370e+02
   2.6295930e+02   4.4984570e+02
   2.6344140e+02   5.4183980e+02
   2.6392350e+02   5.9259770e+02
   2.6440560e+02   5.9393550e+02
   2.6488780e+02   5.6235940e+02
   2.6536990e+02   5.2466990e+02
   2.6585200e+02   4.7796880e+02
   2.6633410e+02   4.3308790e+02
   2.6681620e+02   3.9340430e+02
   2.6729830e+02   3.5886520e+02
   2.6778050e+02   3.3091990e+02
   2.6826260e+02   3.1099410e+02
   2.6874470e+02   2.9608790e+02
   2.6922680e+02   2.8075390e+02
   2.6970890e+02   2.6397850e+02
   2.7019100e+02   2.5024410e+02
   2.7067320e+02   2.4155080e+02
   2.7115530e+02   2.3805860e+02
   2.7163740e+02   2.3914060e+02
   2.7211950e+02   2.4830080e+02
   2.7260160e+02   2.5695510e+02
   2.7308370e+02   2.4700390e+02
   2.7356590e+02   2.1437700e+02
   2.7404800e+02   1.8460160e+02
   2.7453010e+02   1.7058010e+02
   2.7501220e+02   1.7522070e+02
   2.7549430e+02   1.7134380e+02
   2.7597640e+02   1.5732420e+02
   2.7645860e+02   1.3274020e+02
   2.7694070e+02   8.5261720e+01
   2.7742280e+02   1.0791020e+01
   2.7790490e+02   4.8947270e+01
   2.7838700e+02   7.4093750e+01
   2.7886910e+02   6.5970700e+01
   2.7935130e+02   5.8050780e+01
   2.7983340e+02   5.0361330e+01
   2.8031550e+02   4.2787110e+01
   2.8079760e+02   3.2568360e+01
   2.8127980e+02   1.9576170e+01
   2.8176190e+02   1.4537110e+01
   2.8224400e+02   2.4990230e+01
   2.8272610e+02   4.8482420e+01
   2.8320820e+02   6.8339840e+01
   2.8369030e+02   8.5886720e+01
   2.8417250e+02   9.4912110e+01
   2.8465460e+02   7.7917970e+01
   2.8513670e+02   3.6781250e+01
   2.8561880e+02   1.2525390e+01
   2.8610090e+02   2.9917970e+01
   2.8658300e+02   7.6960940e+01
   2.8706520e+02   1.0038090e+02
   2.8754730e+02   9.7910160e+01
   2.8802940e+02   8.5687500e+01
   2.8851150e+02   9.0173830e+01
   2.8899360e+02   1.0641990e+02
   2.8947570e+02   9.2972660e+01
   2.8995790e+02   5.1699220e+00
   2.9044000e+02   1.1489060e+02
   2.9092210e+02   1.3576560e+02
   2.9140420e+02   5.0441410e+01
   2.9188630e+02   4.6484380e+01
   2.9236840e+02   4.8287110e+01
   2.9285060e+02   2.4183590e+01
   2.9333270e+02   8.0287110e+01
   2.9381480e+02   8.4572270e+01
   2.9429690e+02   5.9513670e+01
   2.9477900e+02   4.5162110e+01
   2.9526110e+02   4.1667970e+01
   2.9574330e+02   4.9087890e+01
   2.9622540e+02   8.0289060e+01
   2.9670750e+02   1.2465620e+02
   2.9718960e+02   1.4783590e+02
   2.9767170e+02   1.2315230e+02
   2.9815380e+02   8.8175780e+01
   2.9863600e+02   1.1148050e+02
   2.9911810e+02   1.8831450e+02
   2.9960020e+02   2.5656640e+02
   3.0008230e+02   2.5644340e+02
   3.0056440e+02   2.1609570e+02
   3.0104650e+02   1.8785350e+02
   3.0152870e+02   1.8199800e+02
   3.0201080e+02   1.9796090e+02
   3.0249290e+02   2.4895700e+02
   3.0297500e+02   3.2876950e+02
   3.0345710e+02   3.9700980e+02
   3.0393920e+02   4.2661330e+02
   3.0442140e+02   4.2901950e+02
   3.0490350e+02   4.1850200e+02
   3.0538560e+02   3.9057230e+02
   3.0586770e+02   3.6251950e+02
   3.0634980e+02   3.4463480e+02
   3.0683190e+02   3.3776760e+02
   3.0731410e+02   3.4559770e+02
   3.0779620e+02   3.9179300e+02
   3.0827830e+02   4.4324410e+02
   3.0876040e+02   4.6753910e+02
   3.0924250e+02   4.5229490e+02
   3.0972460e+02   4.1946290e+02
   3.1020680e+02   3.6822460e+02
   3.1068890e+02   3.0846290e+02
   3.1117100e+02   2.6540430e+02
   3.1165310e+02   2.5686130e+02
   3.1213520e+02   2.6622460e+02
   3.1261730e+02   2.8452930e+02
   3.1309950e+02   3.1481050e+02
   3.1358160e+02   3.3927150e+02
   3.1406370e+02   3.4869920e+02
   3.1454580e+02   3.4680270e+02
   3.1502790e+02   3.4093160e+02
   3.1551000e+02   3.0515040e+02
   3.1599220e+02   2.8780470e+02
   3.1647430e+02   3.2895510e+02
   3.1695640e+02   4.5469730e+02
   3.1743850e+02   5.4934570e+02
   3.1792060e+02   5.4301560e+02
   3.1840270e+02   4.8993160e+02
   3.1888490e+02   4.6590040e+02
   3.1936700e+02   5.3029490e+02
   3.1984910e+02   5.9282420e+02
   3.2033120e+02   6.1814840e+02
   3.2081330e+02   5.9848240e+02
   3.2129540e+02   5.7372460e+02
   3.2177760e+02   5.4819140e+02
   3.2225970e+02   5.2277340e+02
   3.2274180e+02   4.9838670e+02
   3.2322390e+02   4.7830660e+02
   3.2370600e+02   4.5615230e+02
   3.2418810e+02   4.3465230e+02
   3.2467030e+02   4.1527730e+02
   3.2515240e+02   3.7763670e+02
   3.2563450e+02   2.9440230e+02
   3.2611660e+02   2.0618360e+02
   3.2659870e+02   1.4519530e+02
   3.2708080e+02   1.2807230e+02
   3.2756300e+02   1.1903520e+02
   3.2804510e+02   1.2067580e+02
   3.2852720e+02   1.3186520e+02
   3.2900930e+02   1.2702930e+02
   3.2949140e+02   9.1429690e+01
   3.2997350e+02   5.2693360e+01
   3.3045570e+02   2.9779300e+01
   3.3093780e+02   3.7703120e+01
   3.3141990e+02   3.4013670e+01
   3.3190200e+02   3.5761720e+00
   3.3238410e+02   4.2921880e+01
   3.3286620e+02   4.7802730e+01
   3.3334840e+02   1.8367190e+01
   3.3383050e+02   8.1191410e+01
   3.3431260e+02   9.2560550e+01
   3.3479470e+02   2.2902340e+01
   3.3527680e+02   6.7460940e+00
   3.3575890e+02   1.7343750e+01
   3.3624110e+02   7.7816410e+01
   3.3672320e+02   1.3138280e+02
   3.3720530e+02   1.7601760e+02
   3.3768740e+02   2.1770120e+02
   3.3816950e+02   2.5966990e+02
   3.3865160e+02   3.0148050e+02
   3.3913380e+02   3.4400200e+02
   3.3961590e+02   3.8679300e+02
   3.4009800e+02   4.2790230e+02
   3.4058010e+02   4.5861330e+02
   3.4106220e+02   4.7773240e+02
   3.4154430e+02   5.0770310e+02
   3.4202650e+02   5.6323440e+02
   3.4250860e+02   6.4245900e+02
   3.4299070e+02   7.2742580e+02
   3.4347280e+02   8.1915230e+02
   3.4395490e+02   9.0140230e+02
   3.4443700e+02   9.4118160e+02
   3.4491920e+02   9.4509380e+02
   3.4540130e+02   9.7018360e+02
   3.4588340e+02   1.0499390e+03
   3.4636550e+02   1.1598690e+03
   3.4684760e+02   1.2273070e+03
   3.4732970e+02   1.2523380e+03
   3.4781190e+02   1.2787130e+03
   3.4829400e+02   1.3485210e+03
   3.4877610e+02   1.4450620e+03
   3.4925820e+02   1.5219710e+03
   3.4974030e+02   1.5657700e+03
   3.5022250e+02   1.5827830e+03
   3.5070460e+02   1.5857890e+03
   3.5118670e+02   1.5694260e+03
   3.5166880e+02   1.5173930e+03
   3.5215090e+02   1.3909470e+03
   3.5263310e+02   1.2284900e+03
   3.5311520e+02   1.0919820e+03
   3.5359730e+02   1.0113650e+03
   3.5407940e+02   9.2935550e+02
   3.5456150e+02   7.7187500e+02
   3.5504360e+02   5.6599610e+02
   3.5552580e+02   3.9406640e+02
   3.5600790e+02   3.1942580e+02
   3.5649000e+02   2.8853910e+02
   3.5697210e+02   2.5432230e+02
   3.5745420e+02   2.0497460e+02
   3.5793630e+02   1.6790040e+02
   3.5841850e+02   1.6007230e+02
   3.5890060e+02   1.7475590e+02
   3.5938270e+02   2.0029100e+02
   3.5986480e+02   2.2281450e+02
   3.6034690e+02   2.6242190e+02
   3.6082900e+02   3.3999800e+02
   3.6131120e+02   4.6514450e+02
   3.6179330e+02   5.7203320e+02
   3.6227540e+02   6.2273240e+02
   3.6275750e+02   6.5185550e+02
   3.6323960e+02   6.9736520e+02
   3.6372170e+02   7.6921880e+02
   3.6420390e+02   8.5588670e+02
   3.6468600e+02   9.6082230e+02
   3.6516810e+02   1.0845780e+03
   3.6565020e+02   1.2003730e+03
   3.6613230e+02   1.2761720e+03
   3.6661440e+02   1.3615140e+03
   3.6709660e+02   1.4912360e+03
   3.6757870e+02   1.6772500e+03
   3.6806080e+02   1.8927750e+03
   3.6854290e+02   2.1503830e+03
   3.6902500e+02   2.4419960e+03
   3.6950710e+02   2.7191370e+03
   3.6998930e+02   2.9761020e+03
   3.7047140e+02   3.2239240e+03
   3.7095350e+02   3.4633110e+03
   3.7143560e+02   3.6680430e+03
   3.7191770e+02   3.9190330e+03
   3.7239980e+02   4.2277070e+03
   3.7288200e+02   4.5794140e+03
   3.7336410e+02   4.9412810e+03
   3.7384620e+02   5.3180550e+03
   3.7432830e+02   5.6895180e+03
   3.7481040e+02   6.0301370e+03
   3.7529250e+02   6.3353690e+03
   3.7577470e+02   6.7065430e+03
   3.7625680e+02   7.1590270e+03
   3.7673890e+02   7.6535860e+03
   3.7722100e+02   8.1245880e+03
   3.7770310e+02   8.5675620e+03
   3.7818520e+02   9.0518090e+03
   3.7866740e+02   9.6219220e+03
   3.7914950e+02   1.0249730e+04
   3.7963160e+02   1.0838610e+04
   3.8011370e+02   1.1380360e+04
   3.8059580e+02   1.1910720e+04
   3.8107790e+02   1.2477160e+04
   3.8156010e+02   1.3068100e+04
   3.8204220e+02   1.3582920e+04
   3.8252430e+02   1.4009910e+04
   3.8300640e+02   1.4353510e+04
   3.8348850e+02   1.4636580e+04
   3.8397060e+02   1.4855980e+04
   3.8445280e+02   1.4971300e+04
   3.8493490e+02   1.4969010e+04
   3.8541700e+02   1.4837960e+04
   3.8589910e+02   1.4555630e+04
   3.8638120e+02   1.4100930e+04
   3.8686330e+02   1.3540300e+04
   3.8734550e+02   1.2894540e+04
   3.8782760e+02   1.2193010e+04
   3.8830970e+02   1.1485500e+04
   3.8879180e+02   1.0780740e+04
   3.8927390e+02   1.0094780e+04
   3.8975600e+02   9.4475000e+03
   3.9023820e+02   8.8401660e+03
   3.9072030e+02   8.2384200e+03
   3.9120240e+02   7.5987030e+03
   3.9168450e+02   6.9682400e+03
   3.9216660e+02   6.3962580e+03
   3.9264870e+02   5.9685330e+03
   3.9313090e+02   5.5416740e+03
   3.9361300e+02   5.0399590e+03
   3.9409510e+02   4.4715760e+03
   3.9457720e+02   3.9647970e+03
   3.9505930e+02   3.5963120e+03
   3.9554140e+02   3.2710430e+03
   3.9602360e+02   2.9328670e+03
   3.9650570e+02   2.5092030e+03
   3.9698780e+02   2.1478790e+03
   3.9746990e+02   1.8861640e+03
   3.9795200e+02   1.7014770e+03
   3.9843410e+02   1.5240000e+03
   3.9891630e+02   1.3380740e+03
   3.9939840e+02   1.1760200e+03
   3.9988050e+02   1.0554800e+03
   4.0036260e+02   9.9868750e+02
   4.0084470e+02   9.1398050e+02
   4.0132680e+02   7.7435550e+02
   4.0180900e+02   6.2685940e+02
   4.0229110e+02   5.4346090e+02
   4.0277320e+02   5.5358980e+02
   4.0325530e+02   5.5170310e+02
   4.0373740e+02   5.0403910e+02
   4.0421950e+02   4.1406640e+02
   4.0470170e+02   3.4274610e+02
   4.0518380e+02   2.8880080e+02
   4.0566590e+02   2.5703520e+02
   4.0614800e+02   2.6435160e+02
   4.0663010e+02   3.1182810e+02
   4.0711220e+02   3.3164840e+02
   4.0759440e+02   3.0091410e+02
   4.0807650e+02   2.4676560e+02
   4.0855860e+02   2.3634380e+02
   4.0904070e+02   2.6895700e+02
   4.0952280e+02   3.1041020e+02
   4.1000490e+02   3.4658590e+02
   4.1048710e+02   3.7377340e+02
   4.1096920e+02   3.8045700e+02
   4.1145130e+02   3.6354690e+02
   4.1193340e+02   3.3380860e+02
   4.1241550e+02   2.9491410e+02
   4.1289760e+02   2.5187110e+02
   4.1337980e+02   2.1937500e+02
   4.1386190e+02   2.0592970e+02
   4.1434400e+02   2.0503520e+02
   4.1482610e+02   2.1760550e+02
   4.1530820e+02   2.4339450e+02
   4.1579030e+02   2.5707420e+02
   4.1627250e+02   2.2516410e+02
   4.1675460e+02   1.7865620e+02
   4.1723670e+02   1.5291020e+02
   4.1771880e+02   1.7564060e+02
   4.1820090e+02   2.0310550e+02
   4.1868300e+02   2.1528120e+02
   4.1916520e+02   2.1573830e+02
   4.1964730e+02   2.1625000e+02
   4.2012940e+02   2.1588670e+02
   4.2061150e+02   2.2043750e+02
   4.2109370e+02   2.3412110e+02
   4.2157580e+02   2.6025390e+02
   4.2205790e+02   2.8803910e+02
   4.2254000e+02   3.2124610e+02
   4.2302210e+02   3.5429300e+02
   4.2350420e+02   3.7886720e+02
   4.2398640e+02   3.7297660e+02
   4.2446850e+02   3.8333590e+02
   4.2495060e+02   4.4049610e+02
   4.2543270e+02   5.5310550e+02
   4.2591480e+02   5.7868360e+02
   4.2639690e+02   4.5973830e+02
   4.2687910e+02   3.1928910e+02
   4.2736120e+02   2.7378910e+02
   4.2784330e+02   3.6373830e+02
   4.2832540e+02   4.1919530e+02
   4.2880750e+02   4.0582810e+02
   4.2928960e+02   3.4605080e+02
   4.2977180e+02   3.1915230e+02
   4.3025390e+02   3.3139840e+02
   4.3073600e+02   3.4294920e+02
   4.3121810e+02   3.2082030e+02
   4.3170020e+02   2.6904300e+02
   4.3218230e+02   2.5301170e+02
   4.3266450e+02   2.8373050e+02
   4.3314660e+02   3.2450780e+02
   4.3362870e+02   3.1798440e+02
   4.3411080e+02   2.7350000e+02
   4.3459290e+02   2.3794530e+02
   4.3507500e+02   2.4466410e+02
   4.3555720e+02   2.6631640e+02
   4.3603930e+02   2.5186720e+02
   4.3652140e+02   2.0260550e+02
   4.3700350e+02   1.4599220e+02
   4.3748560e+02   9.4562500e+01
   4.3796770e+02   5.1984380e+01
   4.3844990e+02   2.3976560e+01
   4.3893200e+02   1.3894530e+01
   4.3941410e+02   1.5457030e+01
   4.3989620e+02   4.2519530e+01
   4.4037830e+02   7.9347660e+01
   4.4086040e+02   8.6835940e+01
   4.4134260e+02   1.4792970e+01
   4.4182470e+02   6.7000000e+01
   4.4230680e+02   1.1930470e+02
   4.4278890e+02   1.3387890e+02
   4.4327100e+02   1.3797270e+02
   4.4375310e+02   1.2727340e+02
   4.4423530e+02   1.1434770e+02
   4.4471740e+02   1.1257810e+02
   4.4519950e+02   1.4765620e+02
   4.4568160e+02   1.6827730e+02
   4.4616370e+02   1.6324220e+02
   4.4664580e+02   1.3460160e+02
   4.4712800e+02   9.9375000e+01
   4.4761010e+02   4.8867190e+01
   4.4809220e+02   1.0937500e+00
   4.4857430e+02   3.0351560e+01
   4.4905640e+02   3.2101560e+01
   4.4953850e+02   5.8554690e+01
   4.5002070e+02   1.2621090e+02
   4.5050280e+02   2.0517970e+02
   4.5098490e+02   2.2905860e+02
   4.5146700e+02   1.8382030e+02
   4.5194910e+02   1.5325000e+02
   4.5243120e+02   1.8014450e+02
   4.5291340e+02   2.5395700e+02
   4.5339550e+02   2.8626560e+02
   4.5387760e+02   2.7126170e+02
   4.5435970e+02   2.5489060e+02
   4.5484180e+02   2.9541020e+02
   4.5532390e+02   3.7676170e+02
   4.5580610e+02   4.2701560e+02
   4.5628820e+02   4.2103910e+02
   4.5677030e+02   3.9214450e+02
   4.5725240e+02   3.7882420e+02
   4.5773450e+02   3.8133980e+02
   4.5821660e+02   4.0162110e+02
   4.5869880e+02   4.5708200e+02
   4.5918090e+02   5.2250780e+02
   4.5966300e+02   5.6524610e+02
   4.6014510e+02   5.7897270e+02
   4.6062720e+02   5.9752340e+02
   4.6110930e+02   6.6198440e+02
   4.6159150e+02   7.3756250e+02
   4.6207360e+02   7.7913670e+02
   4.6255570e+02   7.1537890e+02
   4.6303780e+02   6.7051170e+02
   4.6351990e+02   7.1514450e+02
   4.6400200e+02   8.3366800e+02
   4.6448420e+02   9.0835940e+02
   4.6496630e+02   8.4098830e+02
   4.6544840e+02   7.7735160e+02
   4.6593050e+02   8.0203120e+02
   4.6641260e+02   1.0289530e+03
   4.6689470e+02   1.1467420e+03
   4.6737690e+02   1.0849610e+03
   4.6785900e+02   9.4489060e+02
   4.6834110e+02   8.9438670e+02
   4.6882320e+02   9.7453120e+02
   4.6930530e+02   1.0647110e+03
   4.6978740e+02   1.1392890e+03
   4.7026960e+02   1.1981450e+03
   4.7075170e+02   1.2421330e+03
   4.7123380e+02   1.2752150e+03
   4.7171590e+02   1.2811720e+03
   4.7219800e+02   1.2275430e+03
   4.7268010e+02   1.1163090e+03
   4.7316230e+02   1.0418670e+03
   4.7364440e+02   1.0226560e+03
   4.7412650e+02   1.0348360e+03
   4.7460860e+02   1.0553670e+03
   4.7509070e+02   1.0788440e+03
   4.7557280e+02   1.0702700e+03
   4.7605500e+02   9.7447270e+02
   4.7653710e+02   8.4737890e+02
   4.7701920e+02   7.8898440e+02
   4.7750130e+02   8.0312110e+02
   4.7798340e+02   8.2498050e+02
   4.7846550e+02   8.0062890e+02
   4.7894770e+02   7.5523050e+02
   4.7942980e+02   7.2335940e+02
   4.7991190e+02   7.3885940e+02
   4.8039400e+02   7.4030470e+02
   4.8087610e+02   6.7954690e+02
   4.8135820e+02   5.7719530e+02
   4.8184040e+02   4.9292580e+02
   4.8232250e+02   4.6202730e+02
   4.8280460e+02   4.4058590e+02
   4.8328670e+02   4.0478520e+02
   4.8376880e+02   3.4196880e+02
   4.8425090e+02   3.0185940e+02
   4.8473310e+02   3.0548830e+02
   4.8521520e+02   3.2508200e+02
   4.8569730e+02   3.3471090e+02
   4.8617940e+02   3.2085550e+02
   4.8666150e+02   3.2246090e+02
   4.8714360e+02   3.6032030e+02
   4.8762580e+02   4.1872270e+02
   4.8810790e+02   4.1185550e+02
   4.8859000e+02   3.1273050e+02
   4.8907210e+02   2.2277340e+02
   4.8955420e+02   2.0669920e+02
   4.9003630e+02   2.6517970e+02
   4.9051850e+02   3.0728520e+02
   4.9100060e+02   3.2978910e+02
   4.9148270e+02   3.3719920e+02
   4.9196480e+02   3.2838670e+02
   4.9244700e+02   3.0650780e+02
   4.9292910e+02   2.8756250e+02
   4.9341120e+02   2.7208590e+02
   4.9389330e+02   2.6664450e+02
   4.9437540e+02   2.8887110e+02
   4.9485750e+02   3.3478520e+02
   4.9533970e+02   3.7667580e+02
   4.9582180e+02   3.9735940e+02
   4.9630390e+02   4.0489060e+02
   4.9678600e+02   4.1017580e+02
   4.9726810e+02   4.1910550e+02
   4.9775020e+02   4.1091410e+02
   4.9823240e+02   3.5147660e+02
   4.9871450e+02   2.7490230e+02
   4.9919660e+02   2.2710160e+02
   4.9967870e+02   2.3382810e+02
   5.0016080e+02   2.5411720e+02
   5.0064290e+02   3.0027340e+02
   5.0112510e+02   3.6521090e+02
   5.0160720e+02   3.6741020e+02
   5.0208930e+02   2.1329690e+02
   5.0257140e+02   7.4617190e+01
   5.0305350e+02   3.7578120e+01
   5.0353560e+02   1.6885160e+02
   5.0401780e+02   2.4929690e+02
   5.0449990e+02   2.5665230e+02
   5.0498200e+02   2.2254690e+02
   5.0546410e+02   2.2148440e+02
   5.0594620e+02   2.6602730e+02
   5.0642830e+02   2.7819920e+02
   5.0691050e+02   2.1583590e+02
   5.0739260e+02   1.0865230e+02
   5.0787470e+02   9.0804690e+01
   5.0835680e+02   1.6737110e+02
   5.0883890e+02   2.4063670e+02
   5.0932100e+02   2.1405860e+02
   5.0980320e+02   1.3263280e+02
   5.1028530e+02   1.2323050e+02
   5.1076740e+02   2.1069140e+02
   5.1124950e+02   3.0625390e+02
   5.1173160e+02   3.1448440e+02
   5.1221370e+02   2.7066020e+02
   5.1269590e+02   2.4121880e+02
   5.1317800e+02   2.5318750e+02
   5.1366010e+02   2.8816020e+02
   5.1414220e+02   3.4753120e+02
   5.1462430e+02   4.2285160e+02
   5.1510640e+02   4.7499220e+02
   5.1558860e+02   4.6650780e+02
   5.1607070e+02   4.4667190e+02
   5.1655280e+02   4.4798830e+02
   5.1703490e+02   4.9191410e+02
   5.1751700e+02   5.2220700e+02
   5.1799910e+02   5.2363280e+02
   5.1848130e+02   5.1225780e+02
   5.1896340e+02   5.0725000e+02
   5.1944550e+02   5.0798830e+02
   5.1992760e+02   5.1854300e+02
   5.2040970e+02   5.4526950e+02
   5.2089180e+02   5.8543360e+02
   5.2137400e+02   6.1420700e+02
   5.2185610e+02   6.2501560e+02
   5.2233820e+02   6.3180860e+02
   5.2282030e+02   6.5092190e+02
   5.2330240e+02   6.8037110e+02
   5.2378450e+02   6.7996880e+02
   5.2426670e+02   6.4231250e+02
   5.2474880e+02   6.0278520e+02
   5.2523090e+02   6.0207420e+02
   5.2571300e+02   6.3025780e+02
   5.2619510e+02   6.5582810e+02
   5.2667720e+02   6.6607030e+02
   5.2715940e+02   6.6423050e+02
   5.2764150e+02   6.5646090e+02
   5.2812360e+02   6.4054690e+02
   5.2860570e+02   6.0880860e+02
   5.2908780e+02   5.2410940e+02
   5.2956990e+02   4.3705860e+02
   5.3005210e+02   3.9597660e+02
   5.3053420e+02   4.1873440e+02
   5.3101630e+02   4.3258980e+02
   5.3149840e+02   4.1044140e+02
   5.3198050e+02   3.6949220e+02
   5.3246260e+02   3.2811330e+02
   5.3294480e+02   2.6592970e+02
   5.3342690e+02   2.3154690e+02
   5.3390900e+02   2.4239450e+02
   5.3439110e+02   2.8629300e+02
   5.3487320e+02   3.1244920e+02
   5.3535530e+02   3.0785160e+02
   5.3583750e+02   3.1157810e+02
   5.3631960e+02   3.5194140e+02
   5.3680170e+02   4.3407030e+02
   5.3728380e+02   4.5212890e+02
   5.3776590e+02   3.9257810e+02
   5.3824800e+02   3.1476560e+02
   5.3873020e+02   2.8152340e+02
   5.3921230e+02   2.8785940e+02
   5.3969440e+02   3.0262110e+02
   5.4017650e+02   3.2473050e+02
   5.4065860e+02   3.4195310e+02
   5.4114070e+02   3.3135160e+02
   5.4162290e+02   3.0010940e+02
   5.4210500e+02   2.7429690e+02
   5.4258710e+02   2.6669140e+02
   5.4306920e+02   2.7153520e+02
   5.4355130e+02   2.9308980e+02
   5.4403340e+02   3.3070310e+02
   5.4451560e+02   3.4918360e+02
   5.4499770e+02   2.9892190e+02
   5.4547980e+02   2.4179690e+02
   5.4596190e+02   2.2918360e+02
   5.4644400e+02   3.1897270e+02
   5.4692610e+02   3.8168750e+02
   5.4740830e+02   3.7757420e+02
   5.4789040e+02   3.3986330e+02
   5.4837250e+02   3.2941800e+02
   5.4885460e+02   3.6984380e+02
   5.4933670e+02   3.9820310e+02
   5.4981880e+02   3.9298440e+02
   5.5030100e+02   3.5852340e+02
   5.5078310e+02   3.4915230e+02
   5.5126520e+02   3.7188670e+02
   5.5174730e+02   3.9636330e+02
   5.5222940e+02   4.0605470e+02
   5.5271150e+02   4.0039840e+02
   5.5319370e+02   3.6383980e+02
   5.5367580e+02   2.8828520e+02
   5.5415790e+02   2.1049610e+02
   5.5464000e+02   1.8411330e+02
   5.5512210e+02   1.9336720e+02
   5.5560420e+02   1.9283200e+02
   5.5608640e+02   1.6008590e+02
   5.5656850e+02   1.1712110e+02
   5.5705060e+02   7.2828120e+01
   5.5753270e+02   3.2937500e+01
   5.5801480e+02   1.9503910e+01
   5.5849690e+02   6.5089840e+01
   5.5897910e+02   1.2426170e+02
   5.5946120e+02   1.8012500e+02
   5.5994330e+02   2.4013280e+02
   5.6042540e+02   2.4692970e+02
   5.6090750e+02   1.1532810e+02
   5.6138960e+02   3.1738280e+01
   5.6187180e+02   8.5261720e+01
   5.6235390e+02   2.7101560e+01
   5.6283600e+02   1.1076950e+02
   5.6331810e+02   1.4655860e+02
   5.6380020e+02   1.4657420e+02
   5.6428230e+02   1.3713670e+02
   5.6476450e+02   1.1607420e+02
   5.6524660e+02   9.5101560e+01
   5.6572870e+02   8.3187500e+01
   5.6621080e+02   7.5484380e+01
   5.6669290e+02   3.6816410e+01
   5.6717500e+02   3.4703120e+01
   5.6765720e+02   9.1792970e+01
   5.6813930e+02   7.4031250e+01
   5.6862140e+02   1.6378910e+01
   5.6910350e+02   7.7343750e+00
   5.6958560e+02   1.7820310e+01
   5.7006770e+02   5.6593750e+01
   5.7054990e+02   9.2851560e+01
   5.7103200e+02   1.1932030e+02
   5.7151410e+02   1.2472660e+02
   5.7199620e+02   8.9667970e+01
   5.7247830e+02   4.7992190e+01
   5.7296040e+02   8.6679690e+00
   5.7344260e+02   2.6824220e+01
   5.7392470e+02   5.3910160e+01
   5.7440680e+02   7.1832030e+01
   5.7488890e+02   8.0382810e+01
   5.7537100e+02   7.8843750e+01
   5.7585310e+02   6.6261720e+01
   5.7633530e+02   4.7601560e+01
   5.7681740e+02   2.3039060e+01
   5.7729950e+02   7.9609380e+00
   5.7778160e+02   5.4917970e+01
   5.7826370e+02   1.2228120e+02
   5.7874580e+02   1.5339450e+02
   5.7922800e+02   1.3421090e+02
   5.7971010e+02   8.6011720e+01
   5.8019220e+02   2.9957030e+01
   5.8067430e+02   2.8000000e+01
   5.8115640e+02   5.4050780e+01
   5.8163850e+02   6.3515630e+00
   5.8212070e+02   6.8027340e+01
   5.8260280e+02   1.1903520e+02
   5.8308490e+02   1.4507810e+02
   5.8356700e+02   1.3597660e+02
   5.8404910e+02   3.4761720e+01
   5.8453130e+02   7.1609380e+01
   5.8501340e+02   1.0660160e+02
   5.8549550e+02   3.1910160e+01
   5.8597760e+02   2.6167970e+01
   5.8645970e+02   2.6500000e+01
   5.8694180e+02   2.4960940e+00
   5.8742400e+02   2.8035160e+01
   5.8790610e+02   3.3023440e+01
   5.8838820e+02   6.0910160e+01
   5.8887030e+02   1.3173830e+02
   5.8935240e+02   2.2425780e+02
   5.8983450e+02   2.7355080e+02
   5.9031670e+02   2.7189840e+02
   5.9079880e+02   2.5639840e+02
   5.9128090e+02   2.3943360e+02
   5.9176300e+02   2.2129300e+02
   5.9224510e+02   1.9692190e+02
   5.9272720e+02   1.6534770e+02
   5.9320940e+02   1.5096090e+02
   5.9369150e+02   1.8899220e+02
   5.9417360e+02   2.5566410e+02
   5.9465570e+02   3.0984380e+02
   5.9513780e+02   3.4609380e+02
   5.9561990e+02   3.5793750e+02
   5.9610210e+02   3.1838280e+02
   5.9658420e+02   2.5673440e+02
   5.9706630e+02   2.1478520e+02
   5.9754850e+02   2.0957810e+02
   5.9803060e+02   2.2323050e+02
   5.9851270e+02   2.6558980e+02
   5.9899480e+02   3.2637500e+02
   5.9947690e+02   3.6169140e+02
   5.9995900e+02   3.3867970e+02
   6.0044120e+02   3.2766800e+02
   6.0092330e+02   3.5493360e+02
   6.0140540e+02   4.2370700e+02
   6.0188750e+02   4.8162890e+02
   6.0236960e+02   5.2376950e+02
   6.0285170e+02   5.6585550e+02
   6.0333390e+02   6.3444140e+02
   6.0381600e+02   7.2487110e+02
   6.0429810e+02   7.4637500e+02
   6.0478020e+02   6.7027730e+02
   6.0526230e+02   5.8820700e+02
   6.0574440e+02   6.4082030e+02
   6.0622660e+02   7.8474610e+02
   6.0670870e+02   8.9871480e+02
   6.0719080e+02   9.0997660e+02
   6.0767290e+02   9.0638280e+02
   6.0815500e+02   9.6369140e+02
   6.0863710e+02   1.0653010e+03
   6.0911930e+02   1.1600660e+03
   6.0960140e+02   1.2242190e+03
   6.1008350e+02   1.2787930e+03
   6.1056560e+02   1.3248280e+03
   6.1104770e+02   1.3582460e+03
   6.1152980e+02   1.4204730e+03
   6.1201200e+02   1.5361170e+03
   6.1249410e+02   1.6564410e+03
   6.1297620e+02   1.7444570e+03
   6.1345830e+02   1.7852230e+03
   6.1394040e+02   1.8505160e+03
   6.1442250e+02   1.9533050e+03
   6.1490470e+02   2.0615040e+03
   6.1538680e+02   2.1286840e+03
   6.1586890e+02   2.1584450e+03
   6.1635100e+02   2.1807660e+03
   6.1683310e+02   2.1965230e+03
   6.1731520e+02   2.2162540e+03
   6.1779740e+02   2.2659770e+03
   6.1827950e+02   2.3372580e+03
   6.1876160e+02   2.4009220e+03
   6.1924370e+02   2.4334730e+03
   6.1972580e+02   2.4508440e+03
   6.2020790e+02   2.4775390e+03
   6.2069010e+02   2.5089690e+03
   6.2117220e+02   2.5218870e+03
   6.2165430e+02   2.5071480e+03
   6.2213640e+02   2.4723950e+03
   6.2261850e+02   2.4220310e+03
   6.2310060e+02   2.3567300e+03
   6.2358280e+02   2.2722110e+03
   6.2406490e+02   2.1458050e+03
   6.2454700e+02   2.0203950e+03
   6.2502910e+02   1.9540270e+03
   6.2551120e+02   1.9620310e+03
   6.2599330e+02   1.9540200e+03
   6.2647550e+02   1.9159220e+03
   6.2695760e+02   1.8522380e+03
   6.2743970e+02   1.7663200e+03
   6.2792180e+02   1.6596910e+03
   6.2840390e+02   1.5499530e+03
   6.2888600e+02   1.4238440e+03
   6.2936820e+02   1.3129450e+03
   6.2985030e+02   1.2807150e+03
   6.3033240e+02   1.3167660e+03
   6.3081450e+02   1.3409220e+03
   6.3129660e+02   1.2923200e+03
   6.3177870e+02   1.2224800e+03
   6.3226090e+02   1.1693360e+03
   6.3274300e+02   1.1439800e+03
   6.3322510e+02   1.1100740e+03
   6.3370720e+02   1.0522380e+03
   6.3418930e+02   9.8813280e+02
   6.3467140e+02   9.3111330e+02
   6.3515360e+02   8.7907420e+02
   6.3563570e+02   8.3464840e+02
   6.3611780e+02   7.9812890e+02
   6.3659990e+02   7.6911330e+02
   6.3708200e+02   7.5113280e+02
   6.3756410e+02   7.4666020e+02
   6.3804630e+02   7.3064840e+02
   6.3852840e+02   6.8036330e+02
   6.3901050e+02   6.2257030e+02
   6.3949260e+02   6.2917190e+02
   6.3997470e+02   6.8499220e+02
   6.4045680e+02   7.2293750e+02
   6.4093900e+02   6.8354300e+02
   6.4142110e+02   6.2405080e+02
   6.4190320e+02   6.1596480e+02
   6.4238530e+02   6.6048050e+02
   6.4286740e+02   6.6263280e+02
   6.4334950e+02   5.2210160e+02
   6.4383170e+02   3.6682030e+02
   6.4431380e+02   2.9023830e+02
   6.4479590e+02   3.5180860e+02
   6.4527800e+02   4.0458200e+02
   6.4576010e+02   4.5289060e+02
   6.4624220e+02   4.8817580e+02
   6.4672440e+02   4.9298830e+02
   6.4720650e+02   4.5628520e+02
   6.4768860e+02   4.5167970e+02
   6.4817070e+02   5.0885550e+02
   6.4865280e+02   5.8034770e+02
   6.4913490e+02   5.5357810e+02
   6.4961710e+02   4.4296090e+02
   6.5009920e+02   3.5060940e+02
   6.5058130e+02   3.3223050e+02
   6.5106340e+02   3.5309770e+02
   6.5154550e+02   3.8625780e+02
   6.5202760e+02   4.2686330e+02
   6.5250980e+02   4.4586330e+02
   6.5299190e+02   3.9224220e+02
   6.5347400e+02   3.3991410e+02
   6.5395610e+02   3.3545700e+02
   6.5443820e+02   3.8848830e+02
   6.5492030e+02   4.5975390e+02
   6.5540250e+02   5.9411720e+02
   6.5588460e+02   7.0498050e+02
   6.5636670e+02   7.2275780e+02
   6.5684880e+02   6.0030860e+02
   6.5733090e+02   5.2841020e+02
   6.5781300e+02   5.2182030e+02
   6.5829520e+02   5.5149610e+02
   6.5877730e+02   5.8701950e+02
   6.5925940e+02   6.2716020e+02
   6.5974150e+02   6.4928910e+02
   6.6022360e+02   6.4082810e+02
   6.6070570e+02   6.2303120e+02
   6.6118790e+02   6.2048830e+02
   6.6167000e+02   6.3278910e+02
   6.6215210e+02   6.5878120e+02
   6.6263420e+02   7.1112110e+02
   6.6311630e+02   7.6556640e+02
   6.6359840e+02   7.9379690e+02
   6.6408060e+02   8.0269530e+02
   6.6456270e+02   8.4938280e+02
   6.6504480e+02   9.8878910e+02
   6.6552690e+02   1.1308480e+03
   6.6600900e+02   1.2344260e+03
   6.6649110e+02   1.2913050e+03
   6.6697330e+02   1.3603550e+03
   6.6745540e+02   1.4377700e+03
   6.6793750e+02   1.5349100e+03
   6.6841960e+02   1.6745660e+03
   6.6890170e+02   1.8550820e+03
   6.6938390e+02   1.9948710e+03
   6.6986600e+02   2.0781950e+03
   6.7034810e+02   2.1579180e+03
   6.7083020e+02   2.3002730e+03
   6.7131230e+02   2.4845620e+03
   6.7179440e+02   2.6626680e+03
   6.7227660e+02   2.7920660e+03
   6.7275870e+02   2.9533790e+03
   6.7324080e+02   3.2311910e+03
   6.7372290e+02   3.5754650e+03
   6.7420500e+02   3.8939260e+03
   6.7468710e+02   4.1185120e+03
   6.7516930e+02   4.3600820e+03
   6.7565140e+02   4.6506560e+03
   6.7613350e+02   4.9861090e+03
   6.7661560e+02   5.3418010e+03
   6.7709770e+02   5.7215200e+03
   6.7757980e+02   6.1109300e+03
   6.7806200e+02   6.4979770e+03
   6.7854410e+02   6.8872850e+03
   6.7902620e+02   7.2899650e+03
   6.7950830e+02   7.7100390e+03
   6.7999040e+02   8.1356990e+03
   6.8047250e+02   8.5749840e+03
   6.8095470e+02   9.0082300e+03
   6.8143680e+02   9.3934100e+03
   6.8191890e+02   9.7174220e+03
   6.8240100e+02   1.0058840e+04
   6.8288310e+02   1.0525780e+04
   6.8336520e+02   1.1020410e+04
   6.8384740e+02   1.1441970e+04
   6.8432950e+02   1.1731800e+04
   6.8481160e+02   1.1983900e+04
   6.8529370e+02   1.2214350e+04
   6.8577580e+02   1.2408040e+04
   6.8625790e+02   1.2555440e+04
   6.8674010e+02   1.2635730e+04
   6.8722220e+02   1.2694680e+04
   6.8770430e+02   1.2750930e+04
   6.8818640e+02   1.2778490e+04
   6.8866850e+02   1.2714140e+04
   6.8915060e+02   1.2557770e+04
   6.8963280e+02   1.2329950e+04
   6.9011490e+02   1.2017100e+04
   6.9059700e+02   1.1650020e+04
   6.9107910e+02   1.1278710e+04
   6.9156120e+02   1.0892540e+04
   6.9204330e+02   1.0467650e+04
   6.9252550e+02   9.9367460e+03
   6.9300760e+02   9.3976290e+03
   6.9348970e+02   8.9133320e+03
   6.9397180e+02   8.4948440e+03
   6.9445390e+02   8.0783280e+03
   6.9493600e+02   7.6527190e+03
   6.9541820e+02   7.2343520e+03
   6.9590030e+02   6.8239530e+03
   6.9638240e+02   6.4230470e+03
   6.9686450e+02   6.0466330e+03
   6.9734660e+02   5.6940700e+03
   6.9782870e+02   5.3677340e+03
   6.9831090e+02   5.0679530e+03
   6.9879300e+02   4.7959690e+03
   6.9927510e+02   4.5616480e+03
   6.9975720e+02   4.3741950e+03
   7.0023930e+02   4.2049800e+03
   7.0072140e+02   4.0269380e+03
   7.0120360e+02   3.8468950e+03
   7.0168570e+02   3.6761130e+03
   7.0216780e+02   3.5107500e+03
   7.0264990e+02   3.3644340e+03
   7.0313200e+02   3.2491410e+03
   7.0361410e+02   3.1565550e+03
   7.0409630e+02   3.0657620e+03
   7.0457840e+02   2.9777930e+03
   7.0506050e+02   2.8869260e+03
   7.0554260e+02   2.7946450e+03
   7.0602470e+02   2.6979450e+03
   7.0650680e+02   2.5780120e+03
   7.0698900e+02   2.4295160e+03
   7.0747110e+02   2.2976020e+03
   7.0795320e+02   2.2119410e+03
   7.0843530e+02   2.1590820e+03
   7.0891740e+02   2.1010470e+03
   7.0939950e+02   2.0404060e+03
   7.0988170e+02   2.0053520e+03
   7.1036380e+02   2.0755200e+03
   7.1084590e+02   2.1408520e+03
   7.1132800e+02   2.0817340e+03
   7.1181010e+02   1.8683550e+03
   7.1229220e+02   1.6909490e+03
   7.1277440e+02   1.6296050e+03
   7.1325650e+02   1.6022810e+03
   7.1373860e+02   1.5516330e+03
   7.1422070e+02   1.4640390e+03
   7.1470280e+02   1.3867730e+03
   7.1518490e+02   1.3172810e+03
   7.1566710e+02   1.2615040e+03
   7.1614920e+02   1.2424410e+03
   7.1663130e+02   1.2535980e+03
   7.1711340e+02   1.2047580e+03
   7.1759550e+02   1.0650590e+03
   7.1807760e+02   9.1266410e+02
   7.1855980e+02   8.4946880e+02
   7.1904190e+02   8.4369920e+02
   7.1952400e+02   8.3428910e+02
   7.2000610e+02   8.0398050e+02
   7.2048820e+02   7.5955860e+02
   7.2097030e+02   7.0440230e+02
   7.2145250e+02   6.3719530e+02
   7.2193460e+02   5.5370700e+02
   7.2241670e+02   3.8589060e+02
   7.2289880e+02   2.9314060e+02
   7.2338090e+02   3.4165230e+02
   7.2386300e+02   4.8380080e+02
   7.2434520e+02   5.1097270e+02
   7.2482730e+02   4.0421880e+02
   7.2530940e+02   3.2127340e+02
   7.2579150e+02   3.7210550e+02
   7.2627360e+02   4.8618360e+02
   7.2675570e+02   4.6303910e+02
   7.2723790e+02   3.1938670e+02
   7.2772000e+02   1.8607030e+02
   7.2820210e+02   1.3608200e+02
   7.2868420e+02   1.4079300e+02
   7.2916630e+02   2.0042580e+02
   7.2964840e+02   3.1687500e+02
   7.3013060e+02   3.9059380e+02
   7.3061270e+02   3.8213670e+02
   7.3109480e+02   3.3017970e+02
   7.3157690e+02   2.4915230e+02
   7.3205900e+02   1.2189450e+02
   7.3254110e+02   4.1656250e+01
   7.3302330e+02   1.5593750e+01
   7.3350540e+02   1.2500000e+01
   7.3398750e+02   8.7578130e+00
   7.3446960e+02   4.7812500e+00
   7.3495170e+02   5.1953130e+00
   7.3543380e+02   1.1949220e+01
   7.3591600e+02   1.8789060e+01
   7.3639810e+02   1.5523440e+01
   7.3688020e+02   2.2500000e+00
   7.3736230e+02   1.5062500e+01
   7.3784440e+02   3.6882810e+01
   7.3832660e+02   5.6843750e+01
   7.3880870e+02   9.8804690e+01
   7.3929080e+02   1.9829300e+02
   7.3977290e+02   7.4140620e+01
   7.4025510e+02   2.3828130e+00
   7.4073720e+02   1.9785160e+01
   7.4121930e+02   1.5617580e+02
   7.4170140e+02   7.6265620e+01
   7.4218350e+02   9.8917970e+01
   7.4266560e+02   1.2565620e+02
   7.4314780e+02   8.4453130e+00
   7.4362990e+02   1.5327340e+02
   7.4411200e+02   3.7328120e+01
   7.4459410e+02   2.6417970e+01
   7.4507620e+02   3.0789060e+01
   7.4555830e+02   1.5156250e+01
   7.4604050e+02   2.9203120e+01
   7.4652260e+02   5.9964840e+01
   7.4700470e+02   9.2015620e+01
   7.4748680e+02   3.4269530e+01
   7.4796890e+02   9.4640620e+01
   7.4845100e+02   5.5964840e+01
   7.4893320e+02   2.1410160e+01
   7.4941530e+02   9.3023440e+01
   7.4989740e+02   4.0546880e+01
   7.5037950e+02   1.0287500e+02
   7.5086160e+02   1.2262890e+02
   7.5134380e+02   5.1136720e+01
   7.5182590e+02   1.2301170e+02
   7.5230800e+02   1.4500780e+02
   7.5279010e+02   6.5351560e+01
   7.5327220e+02   1.2650780e+02
   7.5375430e+02   1.7014450e+02
   7.5423650e+02   1.3578120e+02
   7.5471860e+02   9.4851560e+01
   7.5520070e+02   1.1995310e+02
   7.5568280e+02   2.3954300e+02
   7.5616490e+02   3.0195310e+02
   7.5664700e+02   2.3848830e+02
   7.5712920e+02   1.4979690e+02
   7.5761130e+02   8.8820310e+01
   7.5809340e+02   5.2796880e+01
   7.5857550e+02   6.6281250e+01
   7.5905760e+02   1.4233200e+02
   7.5953970e+02   2.2498440e+02
   7.6002190e+02   2.4661330e+02
   7.6050400e+02   2.2680080e+02
   7.6098610e+02   2.2903520e+02
   7.6146820e+02   2.6659380e+02
   7.6195030e+02   3.0672270e+02
   7.6243240e+02   3.2841800e+02
   7.6291460e+02   3.3614060e+02
   7.6339670e+02   3.3355860e+02
   7.6387880e+02   2.9858980e+02
   7.6436090e+02   2.9098440e+02
   7.6484300e+02   3.4564840e+02
   7.6532510e+02   4.1819530e+02
   7.6580730e+02   4.5898050e+02
   7.6628940e+02   4.6075390e+02
   7.6677150e+02   4.6182030e+02
   7.6725360e+02   4.7091410e+02
   7.6773570e+02   4.7075000e+02
   7.6821780e+02   4.2708200e+02
   7.6870000e+02   3.4828910e+02
   7.6918210e+02   2.6478520e+02
   7.6966420e+02   1.6903520e+02
   7.7014630e+02   9.4628910e+01
   7.7062840e+02   7.4210940e+01
   7.7111050e+02   9.6292970e+01
   7.7159270e+02   1.3851950e+02
   7.7207480e+02   2.4783200e+02
   7.7255690e+02   3.1363670e+02
   7.7303900e+02   2.8814060e+02
   7.7352110e+02   2.0553910e+02
   7.7400320e+02   1.4637110e+02
   7.7448540e+02   1.1033200e+02
   7.7496750e+02   1.0021090e+02
   7.7544960e+02   1.2170310e+02
   7.7593170e+02   1.6510550e+02
   7.7641380e+02   2.2637500e+02
   7.7689590e+02   2.9501560e+02
   7.7737810e+02   3.1768750e+02
   7.7786020e+02   2.0716800e+02
   7.7834230e+02   8.5867190e+01
   7.7882440e+02   7.4574220e+01
   7.7930650e+02   1.4734380e+02
   7.7978860e+02   1.8905470e+02
   7.8027080e+02   1.2849610e+02
   7.8075290e+02   7.1707030e+01
   7.8123500e+02   5.5839840e+01
   7.8171710e+02   7.4777340e+01
   7.8219920e+02   6.6421880e+01
   7.8268130e+02   2.2121090e+01
   7.8316350e+02   1.5289060e+01
   7.8364560e+02   2.1519530e+01
   7.8412770e+02   4.4453130e+00
   7.8460980e+02   1.1812500e+01
   7.8509190e+02   2.7476560e+01
   7.8557400e+02   4.5460940e+01
   7.8605620e+02   6.6914060e+01
   7.8653830e+02   9.2417970e+01
   7.8702040e+02   1.3213670e+02
   7.8750250e+02   1.8625390e+02
   7.8798460e+02   2.0813670e+02
   7.8846670e+02   1.5750780e+02
   7.8894890e+02   9.9890620e+01
   7.8943100e+02   5.3027340e+01
   7.8991310e+02   1.5132810e+01
   7.9039520e+02   3.4121090e+01
   7.9087730e+02   1.2341410e+02
   7.9135940e+02   2.0657810e+02
   7.9184160e+02   2.3112890e+02
   7.9232370e+02   2.0432810e+02
   7.9280580e+02   1.2303520e+02
   7.9328790e+02   9.0976560e+00
   7.9377000e+02   1.0908980e+02
   7.9425210e+02   1.0302340e+02
   7.9473430e+02   4.6585940e+01
   7.9521640e+02   2.1972660e+01
   7.9569850e+02   1.0817190e+02
   7.9618060e+02   1.5896880e+02
   7.9666270e+02   1.4705860e+02
   7.9714480e+02   1.1659380e+02
   7.9762700e+02   1.0904300e+02
   7.9810910e+02   1.2578120e+02
   7.9859120e+02   1.3357030e+02
   7.9907330e+02   1.2667190e+02
   7.9955540e+02   1.1303910e+02
   8.0003750e+02   7.5304690e+01
   8.0051970e+02   2.8324220e+01
   8.0100180e+02   6.1601560e+00
   8.0148390e+02   3.0859380e+00
   8.0196600e+02   2.2257810e+01
   8.0244810e+02   7.9242190e+01
   8.0293020e+02   1.3867190e+02
   8.0341240e+02   1.6334380e+02
   8.0389450e+02   1.2911330e+02
   8.0437660e+02   1.1262890e+02
   8.0485870e+02   1.2022270e+02
   8.0534080e+02   1.3526560e+02
   8.0582290e+02   1.4490230e+02
   8.0630510e+02   1.4716410e+02
   8.0678720e+02   1.4449610e+02
   8.0726930e+02   1.3796090e+02
   8.0775140e+02   1.1547270e+02
   8.0823350e+02   3.5558590e+01
   8.0871560e+02   5.7902340e+01
   8.0919780e+02   9.7105470e+01
   8.0967990e+02   5.2777340e+01
   8.1016200e+02   1.1449220e+01
   8.1064410e+02   8.9695310e+01
   8.1112620e+02   1.6506640e+02
   8.1160830e+02   2.2191020e+02
   8.1209050e+02   2.6460940e+02
   8.1257260e+02   2.7945310e+02
   8.1305470e+02   2.6024220e+02
   8.1353680e+02   2.2489060e+02
   8.1401890e+02   1.7755470e+02
   8.1450100e+02   1.2621880e+02
   8.1498320e+02   1.3054300e+02
   8.1546530e+02   2.1370310e+02
   8.1594740e+02   2.8912110e+02
   8.1642950e+02   2.5931640e+02
   8.1691160e+02   1.8269140e+02
   8.1739370e+02   1.3208980e+02
   8.1787590e+02   1.3715620e+02
   8.1835800e+02   1.4589450e+02
   8.1884010e+02   1.4170310e+02
   8.1932220e+02   1.4064840e+02
   8.1980430e+02   1.6456640e+02
   8.2028640e+02   2.2487110e+02
   8.2076860e+02   2.5418360e+02
   8.2125070e+02   2.4231640e+02
   8.2173280e+02   2.1873440e+02
   8.2221490e+02   2.2505470e+02
   8.2269700e+02   2.4578120e+02
   8.2317910e+02   2.2727340e+02
   8.2366130e+02   1.4142580e+02
   8.2414340e+02   6.9207030e+01
   8.2462550e+02   8.9781250e+01
   8.2510760e+02   1.4141800e+02
   8.2558970e+02   1.5868360e+02
   8.2607180e+02   7.9367190e+01
   8.2655400e+02   4.4480470e+01
   8.2703610e+02   7.2683590e+01
   8.2751820e+02   1.2404300e+02
   8.2800030e+02   1.5535550e+02
   8.2848240e+02   1.6635940e+02
   8.2896450e+02   1.5877730e+02
   8.2944670e+02   1.2691800e+02
   8.2992880e+02   9.9406250e+01
   8.3041090e+02   1.2385940e+02
   8.3089300e+02   1.7067190e+02
   8.3137510e+02   1.9097660e+02
   8.3185720e+02   1.5325780e+02
   8.3233940e+02   1.3104300e+02
   8.3282150e+02   1.7875390e+02
   8.3330360e+02   2.3923050e+02
   8.3378570e+02   2.4589060e+02
   8.3426780e+02   1.7076950e+02
   8.3474990e+02   1.2331250e+02
   8.3523210e+02   1.1323050e+02
   8.3571420e+02   1.2507420e+02
   8.3619630e+02   1.5650390e+02
   8.3667840e+02   1.9575390e+02
   8.3716050e+02   1.8620310e+02
   8.3764260e+02   1.0287110e+02
   8.3812480e+02   3.5367190e+01
   8.3860690e+02   7.7906250e+01
   8.3908900e+02   1.6262110e+02
   8.3957110e+02   2.1384380e+02
   8.4005320e+02   1.9290620e+02
   8.4053530e+02   1.7917190e+02
   8.4101750e+02   1.8388280e+02
   8.4149960e+02   1.9183590e+02
   8.4198170e+02   1.8277340e+02
   8.4246380e+02   1.5505860e+02
   8.4294590e+02   1.4928120e+02
   8.4342800e+02   1.7108200e+02
   8.4391020e+02   2.0576950e+02
   8.4439230e+02   2.6218360e+02
   8.4487440e+02   3.1180080e+02
   8.4535650e+02   2.9643750e+02
   8.4583860e+02   1.8108590e+02
   8.4632070e+02   9.1300780e+01
   8.4680290e+02   1.0141020e+02
   8.4728500e+02   1.4387500e+02
   8.4776710e+02   1.5843750e+02
   8.4824920e+02   1.3477730e+02
   8.4873130e+02   1.1959770e+02
   8.4921340e+02   1.1639450e+02
   8.4969560e+02   1.0837500e+02
   8.5017770e+02   4.9808590e+01
   8.5065980e+02   2.9542970e+01
   8.5114190e+02   1.0117190e+00
   8.5162400e+02   1.6277730e+02
   8.5210610e+02   2.9541410e+02
   8.5258830e+02   2.3232030e+02
   8.5307040e+02   1.0247660e+02
   8.5355250e+02   1.9765620e+01
   8.5403460e+02   2.0859380e+00
   8.5451670e+02   3.0332030e+01
   8.5499880e+02   1.3656640e+02
   8.5548100e+02   2.4262890e+02
   8.5596310e+02   2.9189060e+02
   8.5644520e+02   2.8364840e+02
   8.5692730e+02   2.6993360e+02
   8.5740940e+02   2.5208980e+02
   8.5789150e+02   2.2748050e+02
   8.5837370e+02   1.9017970e+02
   8.5885580e+02   1.4533200e+02
   8.5933790e+02   8.7343750e+01
   8.5982000e+02   1.2863280e+01
   8.6030210e+02   1.1152340e+01
   8.6078420e+02   7.7390620e+01
   8.6126640e+02   1.9117970e+02
   8.6174850e+02   2.9210550e+02
   8.6223060e+02   3.8710160e+02
   8.6271270e+02   3.9370700e+02
   8.6319480e+02   2.9499610e+02
   8.6367690e+02   1.8319530e+02
   8.6415910e+02   1.1776560e+02
   8.6464120e+02   8.9031250e+01
   8.6512330e+02   7.7507810e+01
   8.6560540e+02   8.1390620e+01
   8.6608750e+02   8.6878910e+01
   8.6656960e+02   8.3253910e+01
   8.6705180e+02   7.7046880e+01
   8.6753390e+02   8.1839840e+01
   8.6801600e+02   9.9855470e+01
   8.6849810e+02   8.7558590e+01
   8.6898020e+02   1.8156250e+01
   8.6946230e+02   3.0554690e+01
   8.6994450e+02   9.4140630e+00
   8.7042660e+02   6.1726560e+01
   8.7090870e+02   8.2468750e+01
   8.7139080e+02   5.8628910e+01
   8.7187290e+02   4.6781250e+01
   8.7235500e+02   9.9230470e+01
   8.7283720e+02   1.6405470e+02
   8.7331930e+02   2.0116410e+02
   8.7380140e+02   2.1222270e+02
   8.7428350e+02   2.1161330e+02
   8.7476560e+02   2.0200000e+02
   8.7524770e+02   1.7869140e+02
   8.7572990e+02   1.2293360e+02
   8.7621200e+02   5.6218750e+01
   8.7669410e+02   9.1953120e+01
   8.7717620e+02   2.2966410e+02
   8.7765830e+02   2.9801560e+02
   8.7814040e+02   1.6779690e+02
   8.7862260e+02   1.4898440e+01
   8.7910470e+02   5.1519530e+01
   8.7958690e+02   1.5875000e+01
   8.8006900e+02   7.8328120e+01
   8.8055110e+02   1.0942580e+02
   8.8103320e+02   1.1201170e+02
   8.8151530e+02   5.0785160e+01
   8.8199740e+02   2.7695310e+01
   8.8247960e+02   8.8554690e+00
   8.8296170e+02   1.3397660e+02
   8.8344380e+02   2.1856640e+02
   8.8392590e+02   1.8685940e+02
   8.8440800e+02   1.0514450e+02
   8.8489010e+02   7.3519530e+01
   8.8537230e+02   7.6617190e+01
   8.8585440e+02   7.6070310e+01
   8.8633650e+02   3.8523440e+01
   8.8681860e+02   2.7878910e+01
   8.8730070e+02   1.1306640e+02
   8.8778280e+02   2.2419530e+02
   8.8826500e+02   2.6243360e+02
   8.8874710e+02   1.9790230e+02
   8.8922920e+02   1.3259770e+02
   8.8971130e+02   6.8292970e+01
   8.9019340e+02   1.9609380e+01
   8.9067550e+02   7.2031250e+00
   8.9115770e+02   2.5929690e+01
   8.9163980e+02   6.9570310e+01
   8.9212190e+02   1.4544530e+02
   8.9260400e+02   1.9862110e+02
   8.9308610e+02   1.6652730e+02
   8.9356820e+02   1.0760160e+02
   8.9405040e+02   7.7445310e+01
   8.9453250e+02   9.7269530e+01
   8.9501460e+02   1.1327730e+02
   8.9549670e+02   1.3100000e+02
   8.9597880e+02   1.3199610e+02
   8.9646090e+02   8.9535160e+01
   8.9694310e+02   1.4914060e+01
   8.9742520e+02   1.8527340e+01
   8.9790730e+02   6.5195310e+00
   8.9838940e+02   2.3058590e+01
   8.9887150e+02   7.2894530e+01
   8.9935360e+02   1.1461720e+02
   8.9983580e+02   1.1954690e+02
   9.0031790e+02   8.1656250e+01
   9.0080000e+02   4.8839840e+01
   9.0128210e+02   2.1449220e+01
   9.0176420e+02   6.8945310e+00
   9.0224630e+02   1.2785160e+01
   9.0272850e+02   3.5406250e+01
   9.0321060e+02   4.6433590e+01
   9.0369270e+02   4.6472660e+01
   9.0417480e+02   5.3167970e+01
   9.0465690e+02   9.5125000e+01
   9.0513900e+02   1.3809770e+02
   9.0562120e+02   1.3548050e+02
   9.0610330e+02   9.9320310e+01
   9.0658540e+02   8.5519530e+01
   9.0706750e+02   1.4849220e+02
   9.0754960e+02   1.9340230e+02
   9.0803170e+02   1.8919920e+02
   9.0851390e+02   1.4721480e+02
   9.0899600e+02   8.5796880e+01
   9.0947810e+02   6.3125000e+00
   9.0996020e+02   1.9339840e+01
   9.1044230e+02   6.2988280e+01
   9.1092440e+02   1.6622660e+02
   9.1140660e+02   1.7022270e+02
   9.1188870e+02   1.2042580e+02
   9.1237080e+02   1.0110550e+02
   9.1285290e+02   1.7205470e+02
   9.1333500e+02   2.3532030e+02
   9.1381710e+02   2.8333200e+02
   9.1429930e+02   3.1477730e+02
   9.1478140e+02   3.0559380e+02
   9.1526350e+02   2.4948050e+02
   9.1574560e+02   1.8868750e+02
   9.1622770e+02   1.2634770e+02
   9.1670980e+02   8.3292970e+01
   9.1719200e+02   8.0699220e+01
   9.1767410e+02   1.1283200e+02
   9.1815620e+02   1.8560160e+02
   9.1863830e+02   3.2553910e+02
   9.1912040e+02   4.2429690e+02
   9.1960250e+02   4.2120700e+02
   9.2008470e+02   3.8748440e+02
   9.2056680e+02   3.6921090e+02
   9.2104890e+02   3.6996880e+02
   9.2153100e+02   3.5570700e+02
   9.2201310e+02   3.2332810e+02
   9.2249520e+02   3.0102730e+02
   9.2297740e+02   3.2752730e+02
   9.2345950e+02   3.7135550e+02
   9.2394160e+02   3.8170700e+02
   9.2442370e+02   3.5769530e+02
   9.2490580e+02   3.3675780e+02
   9.2538790e+02   3.3720310e+02
   9.2587010e+02   3.4055470e+02
   9.2635220e+02   3.3730080e+02
   9.2683430e+02   3.2841020e+02
   9.2731640e+02   3.2789060e+02
   9.2779850e+02   3.4059380e+02
   9.2828060e+02   3.5537500e+02
   9.2876280e+02   3.6222660e+02
   9.2924490e+02   3.6893750e+02
   9.2972700e+02   3.8757420e+02
   9.3020910e+02   4.1734380e+02
   9.3069120e+02   4.5523440e+02
   9.3117330e+02   5.3805080e+02
   9.3165550e+02   5.8326560e+02
   9.3213760e+02   5.3270310e+02
   9.3261970e+02   4.4326950e+02
   9.3310180e+02   4.1267190e+02
   9.3358390e+02   4.4978120e+02
   9.3406600e+02   4.7577730e+02
   9.3454820e+02   4.7317580e+02
   9.3503030e+02   4.6848440e+02
   9.3551240e+02   5.1221480e+02
   9.3599450e+02   5.7425780e+02
   9.3647660e+02   5.9787890e+02
   9.3695870e+02   5.6132030e+02
   9.3744090e+02   5.1794920e+02
   9.3792300e+02   4.5854300e+02
   9.3840510e+02   4.1153120e+02
   9.3888720e+02   4.0302730e+02
   9.3936930e+02   4.4196480e+02
   9.3985140e+02   4.6841020e+02
   9.4033360e+02   4.8710160e+02
   9.4081570e+02   4.8595310e+02
   9.4129780e+02   4.2264840e+02
   9.4177990e+02   3.4673830e+02
   9.4226200e+02   3.5057030e+02
   9.4274410e+02   4.3245310e+02
   9.4322630e+02   4.7445700e+02
   9.4370840e+02   3.6878120e+02
   9.4419050e+02   2.7901170e+02
   9.4467260e+02   2.8321090e+02
   9.4515470e+02   3.6086720e+02
   9.4563680e+02   3.9192190e+02
   9.4611900e+02   3.7509380e+02
   9.4660110e+02   3.4643360e+02
   9.4708320e+02   3.2335160e+02
   9.4756530e+02   2.9560160e+02
   9.4804740e+02   2.2253910e+02
   9.4852950e+02   1.3682810e+02
   9.4901170e+02   1.0778910e+02
   9.4949380e+02   2.3368360e+02
   9.4997590e+02   3.2791020e+02
   9.5045800e+02   3.4592970e+02
   9.5094010e+02   3.2290620e+02
   9.5142220e+02   3.1238670e+02
   9.5190440e+02   3.1499220e+02
   9.5238650e+02   2.8933590e+02
   9.5286860e+02   2.2028520e+02
   9.5335070e+02   1.6357420e+02
   9.5383280e+02   2.1228120e+02
   9.5431490e+02   2.9017580e+02
   9.5479710e+02   3.1309380e+02
   9.5527920e+02   2.4385940e+02
   9.5576130e+02   2.0247660e+02
   9.5624340e+02   2.2499220e+02
   9.5672550e+02   2.5830080e+02
   9.5720760e+02   2.8382810e+02
   9.5768980e+02   3.0158590e+02
   9.5817190e+02   3.0956640e+02
   9.5865400e+02   3.0779300e+02
   9.5913610e+02   2.9373830e+02
   9.5961820e+02   2.6156640e+02
   9.6010030e+02   2.2005860e+02
   9.6058250e+02   1.6469920e+02
   9.6106460e+02   1.0483200e+02
   9.6154670e+02   7.8460940e+01
   9.6202880e+02   1.3196880e+02
   9.6251090e+02   1.6710160e+02
   9.6299300e+02   1.5972660e+02
   9.6347520e+02   1.2000390e+02
   9.6395730e+02   4.8976560e+01
   9.6443940e+02   4.0921880e+01
   9.6492150e+02   7.0269530e+01
   9.6540360e+02   1.1882810e+01
   9.6588570e+02   1.1310940e+02
   9.6636790e+02   1.7857030e+02
   9.6685000e+02   2.1016800e+02
   9.6733210e+02   2.0791800e+02
   9.6781420e+02   1.2924610e+02
   9.6829630e+02   1.0023830e+02
   9.6877840e+02   1.3744920e+02
   9.6926060e+02   1.8860550e+02
   9.6974270e+02   2.1319920e+02
   9.7022480e+02   2.0751950e+02
   9.7070690e+02   1.3514060e+02
   9.7118900e+02   5.1289060e+00
   9.7167110e+02   1.0989060e+02
   9.7215330e+02   9.8925780e+01
   9.7263540e+02   3.8863280e+01
   9.7311750e+02   3.8710940e+01
   9.7359960e+02   1.3038280e+02
   9.7408170e+02   2.0819920e+02
   9.7456380e+02   2.7534770e+02
   9.7504600e+02   3.1535160e+02
   9.7552810e+02   3.1117190e+02
   9.7601020e+02   2.8566410e+02
   9.7649230e+02   3.0710940e+02
   9.7697440e+02   3.5004300e+02
   9.7745650e+02   3.3979690e+02
   9.7793870e+02   1.5782810e+02
   9.7842080e+02   1.7679690e+01
   9.7890290e+02   2.0144530e+01
   9.7938500e+02   9.5628910e+01
   9.7986710e+02   1.5778910e+02
   9.8034920e+02   2.0646090e+02
   9.8083140e+02   2.3951560e+02
   9.8131350e+02   2.5617580e+02
   9.8179560e+02   2.5998050e+02
   9.8227770e+02   2.5720700e+02
   9.8275980e+02   2.4346090e+02
   9.8324190e+02   2.0208590e+02
   9.8372410e+02   1.2366020e+02
   9.8420620e+02   7.8406250e+01
   9.8468830e+02   1.2038670e+02
   9.8517040e+02   1.6765620e+02
   9.8565250e+02   1.8737500e+02
   9.8613460e+02   1.8074220e+02
   9.8661680e+02   1.4851950e+02
   9.8709890e+02   9.2265620e+01
   9.8758100e+02   6.1296880e+01
   9.8806310e+02   1.1142190e+02
   9.8854520e+02   1.7683980e+02
   9.8902730e+02   2.0223440e+02
   9.8950950e+02   1.9307420e+02
   9.8999160e+02   1.6158590e+02
   9.9047370e+02   6.5035160e+01
   9.9095580e+02   1.9242190e+01
   9.9143790e+02   4.6488280e+01
   9.9192000e+02   1.1753910e+02
   9.9240220e+02   2.1107810e+02
   9.9288430e+02   3.1240230e+02
   9.9336640e+02   3.5419140e+02
   9.9384850e+02   3.1601560e+02
   9.9433060e+02   2.6549220e+02
   9.9481270e+02   2.6230080e+02
   9.9529490e+02   2.5819920e+02
   9.9577700e+02   1.9387890e+02
   9.9625910e+02   4.7980470e+01
   9.9674120e+02   3.0859380e+00
   9.9722330e+02   6.2593750e+01
   9.9770540e+02   1.4410160e+02
   9.9818760e+02   1.7941020e+02
   9.9866970e+02   1.8782420e+02
   9.9915180e+02   2.2920700e+02
   9.9963390e+02   2.8704300e+02
   1.0001160e+03   2.9684380e+02
   1.0005980e+03   1.7742580e+02
   1.0010800e+03   6.5253910e+01
   1.0015620e+03   3.3945310e+00
   1.0020440e+03   3.0949220e+01
   1.0025270e+03   1.0171880e+01
   1.0030090e+03   6.2613280e+01
   1.0034910e+03   1.3378910e+02
   1.0039730e+03   1.9990230e+02
   1.0044550e+03   2.2977730e+02
   1.0049370e+03   1.4387890e+02
   1.0054190e+03   2.1714840e+01
   1.0059010e+03   3.5226560e+01
   1.0063840e+03   8.7109400e-01
   1.0068660e+03   6.6363280e+01
   1.0073480e+03   2.0242970e+02
   1.0078300e+03   2.8812110e+02
   1.0083120e+03   2.2133200e+02
   1.0087940e+03   4.0902340e+01
   1.0092760e+03   2.7344000e-02
   1.0097580e+03   8.0871090e+01
   1.0102400e+03   1.3387890e+02
   1.0107230e+03   2.3437500e+00
   1.0112050e+03   1.2086330e+02
   1.0116870e+03   3.3269530e+01
   1.0121690e+03   1.6723440e+02
   1.0126510e+03   2.1176950e+02
   1.0131330e+03   8.6718750e+00
   1.0136150e+03   8.2035160e+01
   1.0140970e+03   2.0769530e+01
   1.0145800e+03   1.7865620e+02
   1.0150620e+03   1.8466020e+02
   1.0155440e+03   1.0963280e+02
   1.0160260e+03   1.0541410e+02
   1.0165080e+03   2.2099220e+02
   1.0169900e+03   2.7922270e+02
   1.0174720e+03   1.3361720e+02
   1.0179540e+03   2.0230470e+01
   1.0184360e+03   6.8867190e+01
   1.0189190e+03   1.6863280e+01
   1.0194010e+03   3.6281250e+01
   1.0198830e+03   9.0597660e+01
   1.0203650e+03   1.3928520e+02
   1.0208470e+03   1.7968360e+02
   1.0213290e+03   2.1158980e+02
   1.0218110e+03   2.4825780e+02
   1.0222930e+03   2.7279690e+02
   1.0227760e+03   2.4851950e+02
   1.0232580e+03   1.0232030e+02
   1.0237400e+03   3.4933590e+01
   1.0242220e+03   9.1187500e+01
   1.0247040e+03   1.9119920e+02
   1.0251860e+03   2.3450780e+02
   1.0256680e+03   2.2912890e+02
   1.0261500e+03   1.9017580e+02
   1.0266320e+03   1.1654690e+02
   1.0271150e+03   5.6265620e+01
   1.0275970e+03   4.2082030e+01
   1.0280790e+03   4.8347660e+01
   1.0285610e+03   5.3878910e+01
   1.0290430e+03   5.8687500e+01
   1.0295250e+03   1.0608590e+02
   1.0300070e+03   2.1215230e+02
   1.0304890e+03   2.8649220e+02
   1.0309720e+03   2.7411330e+02
   1.0314540e+03   2.1360550e+02
   1.0319360e+03   1.3116800e+02
   1.0324180e+03   4.8558590e+01
   1.0329000e+03   1.2976560e+01
   1.0333820e+03   9.6757810e+01
   1.0338640e+03   1.4388280e+02
   1.0343460e+03   1.1166020e+02
   1.0348280e+03   7.3835940e+01
   1.0353110e+03   1.4126950e+02
   1.0357930e+03   2.8848830e+02
   1.0362750e+03   3.1653520e+02
   1.0367570e+03   2.0914060e+02
   1.0372390e+03   1.2814060e+02
   1.0377210e+03   2.3466800e+02
   1.0382030e+03   3.6868750e+02
   1.0386850e+03   4.1671090e+02
   1.0391670e+03   3.8174610e+02
   1.0396500e+03   3.4787110e+02
   1.0401320e+03   3.1709770e+02
   1.0406140e+03   2.7641020e+02
   1.0410960e+03   2.1282420e+02
   1.0415780e+03   1.5282030e+02
   1.0420600e+03   1.4354690e+02
   1.0425420e+03   1.6861330e+02
   1.0430240e+03   1.9961720e+02
   1.0435070e+03   2.4010940e+02
   1.0439890e+03   2.6028910e+02
   1.0444710e+03   2.4248050e+02
   1.0449530e+03   2.1825000e+02
   1.0454350e+03   2.1461330e+02
   1.0459170e+03   2.2923830e+02
   1.0463990e+03   2.2991410e+02
   1.0468810e+03   2.1658980e+02
   1.0473640e+03   2.0212500e+02
   1.0478460e+03   1.7846090e+02
   1.0483280e+03   1.7208590e+02
   1.0488100e+03   2.1524220e+02
   1.0492920e+03   2.9392970e+02
   1.0497740e+03   3.4555470e+02
   1.0502560e+03   3.6566020e+02
   1.0507380e+03   3.6808200e+02
   1.0512200e+03   3.4701950e+02
   1.0517030e+03   3.3246090e+02
   1.0521850e+03   3.9317190e+02
   1.0526670e+03   4.8124220e+02
   1.0531490e+03   5.0423050e+02
   1.0536310e+03   4.2357030e+02
   1.0541130e+03   3.7644530e+02
   1.0545950e+03   4.1520700e+02
   1.0550770e+03   4.8002340e+02
   1.0555590e+03   5.6213280e+02
   1.0560420e+03   6.4752730e+02
   1.0565240e+03   6.1520310e+02
   1.0570060e+03   4.8151950e+02
   1.0574880e+03   3.8025390e+02
   1.0579700e+03   4.1104690e+02
   1.0584520e+03   4.6958980e+02
   1.0589340e+03   4.9904300e+02
   1.0594160e+03   5.0893360e+02
   1.0598990e+03   5.1613670e+02
   1.0603810e+03   5.2036330e+02
   1.0608630e+03   5.3458200e+02
   1.0613450e+03   5.6031250e+02
   1.0618270e+03   5.9290230e+02
   1.0623090e+03   6.3840230e+02
   1.0627910e+03   6.8312890e+02
   1.0632730e+03   7.0086330e+02
   1.0637550e+03   6.8907420e+02
   1.0642380e+03   6.8630080e+02
   1.0647200e+03   7.1399610e+02
   1.0652020e+03   7.3357420e+02
   1.0656840e+03   7.3179300e+02
   1.0661660e+03   7.1544140e+02
   1.0666480e+03   6.9661330e+02
   1.0671300e+03   6.8067580e+02
   1.0676120e+03   6.8398050e+02
   1.0680940e+03   7.1773830e+02
   1.0685770e+03   7.5361720e+02
   1.0690590e+03   7.6942970e+02
   1.0695410e+03   7.8701170e+02
   1.0700230e+03   8.1057810e+02
   1.0705050e+03   8.3752340e+02
   1.0709870e+03   8.4494140e+02
   1.0714690e+03   8.2704300e+02
   1.0719510e+03   8.4722660e+02
   1.0724340e+03   1.0135200e+03
   1.0729160e+03   1.1808050e+03
   1.0733980e+03   1.1415510e+03
   1.0738800e+03   9.5157810e+02
   1.0743620e+03   8.1444140e+02
   1.0748440e+03   7.7577340e+02
   1.0753260e+03   7.9033590e+02
   1.0758080e+03   8.6839840e+02
   1.0762910e+03   9.7162890e+02
   1.0767730e+03   1.0553790e+03
   1.0772550e+03   1.1202300e+03
   1.0777370e+03   1.1821800e+03
   1.0782190e+03   1.2465000e+03
   1.0787010e+03   1.2871990e+03
   1.0791830e+03   1.2541520e+03
   1.0796650e+03   1.2324490e+03
   1.0801470e+03   1.2834380e+03
   1.0806300e+03   1.3806450e+03
   1.0811120e+03   1.3755590e+03
   1.0815940e+03   1.2723980e+03
   1.0820760e+03   1.1902660e+03
   1.0825580e+03   1.1757300e+03
   1.0830400e+03   1.1955040e+03
   1.0835220e+03   1.2393200e+03
   1.0840040e+03   1.2906600e+03
   1.0844860e+03   1.3275620e+03
   1.0849690e+03   1.3508160e+03
   1.0854510e+03   1.3452930e+03
   1.0859330e+03   1.2970080e+03
   1.0864150e+03   1.2722110e+03
   1.0868970e+03   1.3601050e+03
   1.0873790e+03   1.4860510e+03
   1.0878610e+03   1.5101480e+03
   1.0883430e+03   1.4502380e+03
   1.0888260e+03   1.3937150e+03
   1.0893080e+03   1.3704800e+03
   1.0897900e+03   1.3567460e+03
   1.0902720e+03   1.3502890e+03
   1.0907540e+03   1.3480620e+03
   1.0912360e+03   1.3446250e+03
   1.0917180e+03   1.3411130e+03
   1.0922000e+03   1.3403240e+03
   1.0926820e+03   1.3415470e+03
   1.0931650e+03   1.3577540e+03
   1.0936470e+03   1.4336800e+03
   1.0941290e+03   1.4945620e+03
   1.0946110e+03   1.4685430e+03
   1.0950930e+03   1.3748160e+03
   1.0955750e+03   1.3773160e+03
   1.0960570e+03   1.4832660e+03
   1.0965390e+03   1.5338520e+03
   1.0970220e+03   1.4516330e+03
   1.0975040e+03   1.3321910e+03
   1.0979860e+03   1.2688910e+03
   1.0984680e+03   1.2310160e+03
   1.0989500e+03   1.1787730e+03
   1.0994320e+03   1.0938790e+03
   1.0999140e+03   1.0230900e+03
   1.1003960e+03   9.6756250e+02
   1.1008790e+03   9.3765230e+02
   1.1013610e+03   9.8066410e+02
   1.1018430e+03   1.0503010e+03
   1.1023250e+03   1.0418550e+03
   1.1028070e+03   9.7753520e+02
   1.1032890e+03   9.4234380e+02
   1.1037710e+03   1.0229020e+03
   1.1042530e+03   1.0606640e+03
   1.1047350e+03   1.0261910e+03
   1.1052180e+03   9.4826950e+02
   1.1057000e+03   8.2715620e+02
   1.1061820e+03   6.8391410e+02
   1.1066640e+03   6.2219530e+02
   1.1071460e+03   6.5407420e+02
   1.1076280e+03   6.7206640e+02
   1.1081100e+03   5.8321090e+02
   1.1085920e+03   4.8825390e+02
   1.1090740e+03   4.4536330e+02
   1.1095570e+03   4.4351170e+02
   1.1100390e+03   4.4858590e+02
   1.1105210e+03   4.6115230e+02
   1.1110030e+03   4.3877340e+02
   1.1114850e+03   3.5586720e+02
   1.1119670e+03   2.7540620e+02
   1.1124490e+03   2.6841020e+02
   1.1129310e+03   2.8964450e+02
   1.1134140e+03   2.9201560e+02
   1.1138960e+03   2.6928120e+02
   1.1143780e+03   2.2653520e+02
   1.1148600e+03   1.5324220e+02
   1.1153420e+03   1.0589840e+02
   1.1158240e+03   1.3835940e+02
   1.1163060e+03   1.9709380e+02
   1.1167880e+03   1.8975780e+02
   1.1172710e+03   1.4254690e+02
   1.1177530e+03   1.1402730e+02
   1.1182350e+03   1.5088280e+02
   1.1187170e+03   1.6150390e+02
   1.1191990e+03   1.2640620e+02
   1.1196810e+03   9.0457030e+01
   1.1201630e+03   9.9050780e+01
   1.1206450e+03   1.4234770e+02
   1.1211270e+03   2.0584770e+02
   1.1216090e+03   2.8359380e+02
   1.1220920e+03   3.2885550e+02
   1.1225740e+03   3.1573050e+02
   1.1230560e+03   2.6388280e+02
   1.1235380e+03   1.6173050e+02
   1.1240200e+03   4.3128910e+01
   1.1245020e+03   2.4234380e+01
   1.1249840e+03   4.4535160e+01
   1.1254660e+03   4.8660160e+01
   1.1259490e+03   4.0078120e+01
   1.1264310e+03   3.4632810e+01
   1.1269130e+03   6.1949220e+01
   1.1273950e+03   8.0378910e+01
   1.1278770e+03   4.7621090e+01
   1.1283590e+03   2.6730470e+01
   1.1288410e+03   6.4195310e+01
   1.1293230e+03   6.3265620e+01
   1.1298060e+03   5.3144530e+01
   1.1302880e+03   3.8882810e+01
   1.1307700e+03   3.1773440e+01
   1.1312520e+03   6.0246090e+01
   1.1317340e+03   9.4812500e+01
   1.1322160e+03   9.2968750e+01
   1.1326980e+03   3.7417970e+01
   1.1331800e+03   9.9453130e+00
   1.1336620e+03   5.2242190e+01
   1.1341450e+03   7.1929690e+01
   1.1346270e+03   4.5277340e+01
   1.1351090e+03   2.6250000e+00
   1.1355910e+03   4.3910160e+01
   1.1360730e+03   7.3515620e+01
   1.1365550e+03   7.7000000e+01
   1.1370370e+03   3.0039060e+00
   1.1375190e+03   2.3507810e+01
   1.1380010e+03   1.2574220e+01
   1.1384840e+03   8.0214840e+01
   1.1389660e+03   1.7435160e+02
   1.1394480e+03   2.6756250e+02
   1.1399300e+03   2.6930860e+02
   1.1404120e+03   1.8746090e+02
   1.1408940e+03   1.3197660e+02
   1.1413760e+03   1.8398830e+02
   1.1418580e+03   2.2444920e+02
   1.1423410e+03   2.1853520e+02
   1.1428230e+03   1.8715620e+02
   1.1433050e+03   1.5712890e+02
   1.1437870e+03   1.3166410e+02
   1.1442690e+03   1.2919140e+02
   1.1447510e+03   1.5504690e+02
   1.1452330e+03   1.7792970e+02
   1.1457150e+03   1.8901950e+02
   1.1461980e+03   1.8148830e+02
   1.1466800e+03   1.4131640e+02
   1.1471620e+03   8.2027340e+01
   1.1476440e+03   7.9128910e+01
   1.1481260e+03   1.2735550e+02
   1.1486080e+03   1.5013670e+02
   1.1490900e+03   1.1176560e+02
   1.1495720e+03   7.4050780e+01
   1.1500540e+03   1.0723050e+02
   1.1505360e+03   1.4594920e+02
   1.1510190e+03   1.0956640e+02
   1.1515010e+03   1.5597660e+01
   1.1519830e+03   5.0898440e+00
   1.1524650e+03   1.4858200e+02
   1.1529470e+03   2.5421090e+02
   1.1534290e+03   1.3398440e+00
   1.1539110e+03   1.5798440e+02
   1.1543930e+03   2.4257420e+02
   1.1548760e+03   2.6048050e+02
   1.1553580e+03   1.2480470e+01
   1.1558400e+03   1.0778520e+02
   1.1563220e+03   6.5488280e+01
   1.1568040e+03   1.7550780e+01
   1.1572860e+03   1.6115230e+02
   1.1577680e+03   4.8230470e+01
   1.1582500e+03   9.2269530e+01
   1.1587330e+03   9.3097660e+01
   1.1592150e+03   1.5782810e+02
   1.1596970e+03   8.4109380e+01
   1.1601790e+03   5.3144530e+01
   1.1606610e+03   1.6065620e+02
   1.1611430e+03   1.9147270e+02
   1.1616250e+03   1.0179300e+02
   1.1621070e+03   1.7054300e+02
   1.1625890e+03   4.3800780e+01
   1.1630720e+03   5.6621090e+01
   1.1635540e+03   2.3004300e+02
   1.1640360e+03   3.1372660e+02
   1.1645180e+03   1.7805080e+02
   1.1650000e+03   7.3750000e+01
   1.1654820e+03   6.4703120e+01
   1.1659640e+03   1.0787500e+02
   1.1664460e+03   1.3328520e+02
   1.1669280e+03   1.4818750e+02
   1.1674110e+03   1.7855860e+02
   1.1678930e+03   2.3733590e+02
   1.1683750e+03   2.4920700e+02
   1.1688570e+03   1.2928910e+02
   1.1693390e+03   3.5933590e+01
   1.1698210e+03   4.3019530e+01
   1.1703030e+03   1.0919530e+02
   1.1707850e+03   1.0454690e+02
   1.1712680e+03   5.4375000e+01
   1.1717500e+03   4.6792970e+01
   1.1722320e+03   1.2953120e+02
   1.1727140e+03   2.0498830e+02
   1.1731960e+03   2.3644920e+02
   1.1736780e+03   2.4442580e+02
   1.1741600e+03   2.3373050e+02
   1.1746420e+03   2.0825000e+02
   1.1751250e+03   1.9543360e+02
   1.1756070e+03   1.9236330e+02
   1.1760890e+03   1.8225390e+02
   1.1765710e+03   1.3659770e+02
   1.1770530e+03   1.0967190e+02
   1.1775350e+03   1.5840620e+02
   1.1780170e+03   2.1189450e+02
   1.1784990e+03   1.9128910e+02
   1.1789810e+03   9.8093750e+01
   1.1794640e+03   7.3253910e+01
   1.1799460e+03   1.1471480e+02
   1.1804280e+03   1.6098050e+02
   1.1809100e+03   1.8279300e+02
   1.1813920e+03   1.8875000e+02
   1.1818740e+03   1.7413280e+02
   1.1823560e+03   1.4935940e+02
   1.1828380e+03   1.3357420e+02
   1.1833200e+03   1.2810160e+02
   1.1838030e+03   1.2577730e+02
   1.1842850e+03   1.2583590e+02
   1.1847670e+03   1.2626170e+02
   1.1852490e+03   1.3457420e+02
   1.1857310e+03   1.4069530e+02
   1.1862130e+03   1.3320310e+02
   1.1866950e+03   1.1438670e+02
   1.1871770e+03   9.6144530e+01
   1.1876600e+03   7.6761720e+01
   1.1881420e+03   8.2265620e+01
   1.1886240e+03   1.1834380e+02
   1.1891060e+03   1.6667190e+02
   1.1895880e+03   2.4331640e+02
   1.1900700e+03   2.9836330e+02
   1.1905520e+03   2.6102730e+02
   1.1910340e+03   1.5162110e+02
   1.1915160e+03   1.4717580e+02
   1.1919990e+03   2.6414840e+02
   1.1924810e+03   3.0678520e+02
   1.1929630e+03   2.1412890e+02
   1.1934450e+03   1.0371880e+02
   1.1939270e+03   1.0098830e+02
   1.1944090e+03   1.3607810e+02
   1.1948910e+03   1.3363670e+02
   1.1953730e+03   8.6523440e+01
   1.1958550e+03   7.7355470e+01
   1.1963380e+03   1.1026170e+02
   1.1968200e+03   1.2889840e+02
   1.1973020e+03   1.0865230e+02
   1.1977840e+03   7.0691410e+01
   1.1982660e+03   1.2906250e+01
   1.1987480e+03   3.5652340e+01
   1.1992300e+03   3.4382810e+01
   1.1997120e+03   2.4402340e+01
   1.2001950e+03   1.1017970e+02
   1.2006770e+03   2.3158980e+02
   1.2011590e+03   3.1916020e+02
   1.2016410e+03   3.2574610e+02
   1.2021230e+03   2.9122270e+02
   1.2026050e+03   2.2450780e+02
   1.2030870e+03   1.6097270e+02
   1.2035690e+03   1.6989450e+02
   1.2040520e+03   3.1898440e+02
   1.2045340e+03   3.3042970e+02
   1.2050160e+03   1.7759380e+02
   1.2054980e+03   4.7960940e+01
   1.2059800e+03   1.2016800e+02
   1.2064620e+03   2.4502730e+02
   1.2069440e+03   2.4851170e+02
   1.2074260e+03   1.7112500e+02
   1.2079080e+03   1.0188280e+02
   1.2083910e+03   3.0878910e+01
   1.2088730e+03   3.9441410e+01
   1.2093550e+03   1.4932030e+02
   1.2098370e+03   2.3016800e+02
   1.2103190e+03   1.0923440e+02
   1.2108010e+03   5.6667970e+01
   1.2112830e+03   7.4183590e+01
   1.2117650e+03   2.3175780e+01
   1.2122470e+03   8.7902340e+01
   1.2127300e+03   9.5402340e+01
   1.2132120e+03   1.0830860e+02
   1.2136940e+03   1.3528520e+02
   1.2141760e+03   1.6459380e+02
   1.2146580e+03   1.9602340e+02
   1.2151400e+03   2.1819920e+02
   1.2156220e+03   2.0783590e+02
   1.2161040e+03   1.7713670e+02
   1.2165870e+03   1.4345310e+02
   1.2170690e+03   9.9031250e+01
   1.2175510e+03   8.8589840e+01
   1.2180330e+03   1.2625000e+02
   1.2185150e+03   1.6991410e+02
   1.2189970e+03   1.7035550e+02
   1.2194790e+03   1.5176560e+02
   1.2199610e+03   1.3631250e+02
   1.2204430e+03   1.2314450e+02
   1.2209260e+03   1.3274220e+02
   1.2214080e+03   1.7239060e+02
   1.2218900e+03   1.8086720e+02
   1.2223720e+03   1.3459380e+02
   1.2228540e+03   8.5535160e+01
   1.2233360e+03   1.1619530e+02
   1.2238180e+03   1.6650000e+02
   1.2243000e+03   1.5681640e+02
   1.2247820e+03   7.5707030e+01
   1.2252650e+03   3.8359380e+01
   1.2257470e+03   5.0726560e+01
   1.2262290e+03   8.4910160e+01
   1.2267110e+03   1.4187500e+02
   1.2271930e+03   1.9071880e+02
   1.2276750e+03   1.8233590e+02
   1.2281570e+03   1.5257030e+02
   1.2286390e+03   1.3544530e+02
   1.2291220e+03   1.3354690e+02
   1.2296040e+03   1.9886720e+02
   1.2300860e+03   3.5157810e+02
   1.2305680e+03   4.3796880e+02
   1.2310500e+03   3.8028520e+02
   1.2315320e+03   2.7050000e+02
   1.2320140e+03   1.8476950e+02
   1.2324960e+03   1.2561720e+02
   1.2329790e+03   9.9367190e+01
   1.2334610e+03   1.0827730e+02
   1.2339430e+03   1.2448440e+02
   1.2344250e+03   1.4970700e+02
   1.2349070e+03   1.5996480e+02
   1.2353890e+03   1.2664060e+02
   1.2358710e+03   1.0167580e+02
   1.2363530e+03   1.6030470e+02
   1.2368350e+03   2.4594530e+02
   1.2373180e+03   2.7814060e+02
   1.2378000e+03   2.4601950e+02
   1.2382820e+03   2.3528120e+02
   1.2387640e+03   2.4688280e+02
   1.2392460e+03   2.5847660e+02
   1.2397280e+03   2.5451170e+02
   1.2402100e+03   2.4886720e+02
   1.2406920e+03   2.4357030e+02
   1.2411750e+03   2.4914840e+02
   1.2416570e+03   2.8730470e+02
   1.2421390e+03   3.7303910e+02
   1.2426210e+03   3.9009380e+02
   1.2431030e+03   3.3829690e+02
   1.2435850e+03   2.5852340e+02
   1.2440670e+03   1.1239060e+02
   1.2445490e+03   1.4609380e+01
   1.2450310e+03   1.0578120e+02
   1.2455140e+03   2.5785160e+02
   1.2459960e+03   2.7772660e+02
   1.2464780e+03   1.4800780e+02
   1.2469600e+03   1.3587500e+02
   1.2474420e+03   2.3777340e+02
   1.2479240e+03   2.9036720e+02
   1.2484060e+03   1.0819530e+02
   1.2488880e+03   6.3445310e+01
   1.2493700e+03   7.9132810e+01
   1.2498530e+03   3.9921880e+00
   1.2503350e+03   9.1257810e+01
   1.2508170e+03   2.0553910e+02
   1.2512990e+03   2.3473440e+02
   1.2517810e+03   1.8034380e+02
   1.2522630e+03   1.3634380e+02
   1.2527450e+03   1.9078910e+02
   1.2532270e+03   2.3196880e+02
   1.2537100e+03   1.7967190e+02
   1.2541920e+03   1.1239840e+02
   1.2546740e+03   1.5364840e+02
   1.2551560e+03   2.7860160e+02
   1.2556380e+03   2.8583590e+02
   1.2561200e+03   1.7400780e+02
   1.2566020e+03   7.9070310e+01
   1.2570840e+03   1.0658590e+02
   1.2575670e+03   1.3167970e+02
   1.2580490e+03   9.7710940e+01
   1.2585310e+03   5.7117190e+01
   1.2590130e+03   1.0253910e+02
   1.2594950e+03   2.0478910e+02
   1.2599770e+03   2.6036720e+02
   1.2604590e+03   2.6246880e+02
   1.2609410e+03   2.3586720e+02
   1.2614230e+03   1.3033590e+02
   1.2619060e+03   8.6500000e+01
   1.2623880e+03   1.5410160e+02
   1.2628700e+03   2.6328120e+02
   1.2633520e+03   3.0700780e+02
   1.2638340e+03   3.2131250e+02
   1.2643160e+03   3.4985940e+02
   1.2647980e+03   3.9179690e+02
   1.2652800e+03   3.8031250e+02
   1.2657620e+03   2.1043750e+02
   1.2662450e+03   1.3537500e+02
   1.2667270e+03   2.2936720e+02
   1.2672090e+03   3.6560940e+02
   1.2676910e+03   3.7075780e+02
   1.2681730e+03   2.9930470e+02
   1.2686550e+03   2.2018750e+02
   1.2691370e+03   1.4432810e+02
   1.2696190e+03   1.3896090e+02
   1.2701020e+03   2.4123440e+02
   1.2705840e+03   3.2257810e+02
   1.2710660e+03   3.5833590e+02
   1.2715480e+03   3.5721090e+02
   1.2720300e+03   2.9597660e+02
   1.2725120e+03   2.2572660e+02
   1.2729940e+03   2.1882030e+02
   1.2734760e+03   2.7509380e+02
   1.2739580e+03   2.8959380e+02
   1.2744410e+03   2.4489840e+02
   1.2749230e+03   2.3835160e+02
   1.2754050e+03   3.0322660e+02
   1.2758870e+03   3.5562500e+02
   1.2763690e+03   2.7378910e+02
   1.2768510e+03   1.6400780e+02
   1.2773330e+03   1.4196090e+02
   1.2778150e+03   1.9253120e+02
   1.2782970e+03   1.7421090e+02
   1.2787800e+03   8.0906250e+01
   1.2792620e+03   5.9453120e+01
   1.2797440e+03   1.5348440e+02
   1.2802260e+03   2.5967190e+02
   1.2807080e+03   3.0475780e+02
   1.2811900e+03   3.2153120e+02
   1.2816720e+03   3.2029690e+02
   1.2821540e+03   3.0842970e+02
   1.2826370e+03   3.5128120e+02
   1.2831190e+03   4.4894530e+02
   1.2836010e+03   4.8992190e+02
   1.2840830e+03   4.4878910e+02
   1.2845650e+03   3.8177340e+02
   1.2850470e+03   2.9225000e+02
   1.2855290e+03   2.2021880e+02
   1.2860110e+03   1.8344530e+02
   1.2864940e+03   1.7677340e+02
   1.2869760e+03   2.0234380e+02
   1.2874580e+03   2.4560160e+02
   1.2879400e+03   2.4828910e+02
   1.2884220e+03   1.9105470e+02
   1.2889040e+03   1.5727340e+02
   1.2893860e+03   2.0482030e+02
   1.2898680e+03   2.4345310e+02
   1.2903500e+03   2.3504690e+02
   1.2908330e+03   2.1353910e+02
   1.2913150e+03   2.6251560e+02
   1.2917970e+03   3.4421090e+02
   1.2922790e+03   3.7950000e+02
   1.2927610e+03   3.4782810e+02
   1.2932430e+03   3.2834380e+02
   1.2937250e+03   3.4148440e+02
   1.2942070e+03   3.3732810e+02
   1.2946890e+03   2.9409380e+02
   1.2951720e+03   2.3892970e+02
   1.2956540e+03   2.0692190e+02
   1.2961360e+03   1.8985160e+02
   1.2966180e+03   1.8091410e+02
   1.2971000e+03   1.8033590e+02
   1.2975820e+03   1.6251560e+02
   1.2980640e+03   1.2373440e+02
   1.2985460e+03   9.0039060e+01
   1.2990290e+03   6.7281250e+01
   1.2995110e+03   6.1000000e+01
   1.2999930e+03   9.7250000e+01
   1.3004750e+03   1.3779690e+02
   1.3009570e+03   1.3260160e+02
   1.3014390e+03   9.1906250e+01
   1.3019210e+03   1.0495310e+02
   1.3024030e+03   1.6870310e+02
   1.3028850e+03   1.8607030e+02
   1.3033680e+03   1.1978120e+02
   1.3038500e+03   4.9507810e+01
   1.3043320e+03   1.3164060e+01
   1.3048140e+03   1.4117190e+01
   1.3052960e+03   7.2039060e+01
   1.3057780e+03   1.5446090e+02
   1.3062600e+03   1.1749220e+02
   1.3067420e+03   8.5937999e-02
   1.3072240e+03   3.1585940e+01
   1.3077070e+03   7.9796880e+01
   1.3081890e+03   1.8153120e+02
   1.3086710e+03   2.0128120e+02
   1.3091530e+03   2.1281250e+02
   1.3096350e+03   2.4753120e+02
   1.3101170e+03   2.7031250e+02
   1.3105990e+03   2.1160160e+02
   1.3110810e+03   9.8460940e+01
   1.3115640e+03   2.7187500e+00
   1.3120460e+03   2.9718750e+01
   1.3125280e+03   4.4984380e+01
   1.3130100e+03   2.5179690e+01
   1.3134920e+03   1.6015620e+01
   1.3139740e+03   9.1890620e+01
   1.3144560e+03   1.3055470e+02
   1.3149380e+03   0.0000000e+00
   1.5000000e+03   0.0000000e+00
