   1.0000000e+02   0.0000000e+00
   1.4050160e+02   0.0000000e+00
   1.4098370e+02   9.4550780e+01
   1.4146580e+02   2.1991060e+02
   1.4194800e+02   3.3597950e+02
   1.4243010e+02   4.2435250e+02
   1.4291220e+02   4.8314650e+02
   1.4339430e+02   4.9158790e+02
   1.4387640e+02   4.4275540e+02
   1.4435850e+02   3.5413090e+02
   1.4484070e+02   2.5574370e+02
   1.4532280e+02   1.7773190e+02
   1.4580490e+02   1.1741500e+02
   1.4628700e+02   6.6205570e+01
   1.4676910e+02   2.0039060e+01
   1.4725120e+02   1.2028810e+01
   1.4773340e+02   2.9691890e+01
   1.4821550e+02   3.4192380e+01
   1.4869760e+02   1.8265620e+01
   1.4917970e+02   2.1568360e+01
   1.4966180e+02   8.0985840e+01
   1.5014390e+02   1.5341990e+02
   1.5062610e+02   2.4963530e+02
   1.5110820e+02   3.4795750e+02
   1.5159030e+02   4.4036570e+02
   1.5207240e+02   5.1799220e+02
   1.5255450e+02   6.0853220e+02
   1.5303660e+02   7.1740620e+02
   1.5351880e+02   8.3983890e+02
   1.5400090e+02   9.6582030e+02
   1.5448300e+02   1.0983640e+03
   1.5496510e+02   1.2323530e+03
   1.5544720e+02   1.3695010e+03
   1.5592930e+02   1.5327050e+03
   1.5641150e+02   1.6645450e+03
   1.5689360e+02   1.7760010e+03
   1.5737570e+02   1.8532910e+03
   1.5785780e+02   1.8523750e+03
   1.5833990e+02   1.7163490e+03
   1.5882210e+02   1.5233400e+03
   1.5930420e+02   1.3230290e+03
   1.5978630e+02   1.0957960e+03
   1.6026840e+02   8.9378860e+02
   1.6075050e+02   7.2678470e+02
   1.6123260e+02   5.9500240e+02
   1.6171480e+02   5.1168360e+02
   1.6219690e+02   5.1817380e+02
   1.6267900e+02   5.6196630e+02
   1.6316110e+02   5.9194680e+02
   1.6364320e+02   5.7625590e+02
   1.6412530e+02   5.5485840e+02
   1.6460750e+02   5.4987990e+02
   1.6508960e+02   5.6214650e+02
   1.6557170e+02   5.7483500e+02
   1.6605380e+02   5.7578910e+02
   1.6653590e+02   5.7174800e+02
   1.6701800e+02   5.7238570e+02
   1.6750020e+02   5.8750680e+02
   1.6798230e+02   6.0533060e+02
   1.6846440e+02   6.1323930e+02
   1.6894650e+02   6.0783010e+02
   1.6942860e+02   6.0975200e+02
   1.6991070e+02   6.4694530e+02
   1.7039290e+02   7.0294340e+02
   1.7087500e+02   7.4444430e+02
   1.7135710e+02   7.4646580e+02
   1.7183920e+02   7.2814360e+02
   1.7232130e+02   7.0661430e+02
   1.7280340e+02   6.8141210e+02
   1.7328560e+02   6.6172750e+02
   1.7376770e+02   6.5814010e+02
   1.7424980e+02   6.6805370e+02
   1.7473190e+02   6.8214790e+02
   1.7521400e+02   7.0232570e+02
   1.7569610e+02   7.2149660e+02
   1.7617830e+02   7.2481590e+02
   1.7666040e+02   7.0045460e+02
   1.7714250e+02   6.7553370e+02
   1.7762460e+02   6.8916460e+02
   1.7810670e+02   7.3620650e+02
   1.7858880e+02   7.8531450e+02
   1.7907100e+02   8.1668510e+02
   1.7955310e+02   8.3267870e+02
   1.8003520e+02   8.3455760e+02
   1.8051730e+02   8.1263090e+02
   1.8099940e+02   7.8683890e+02
   1.8148150e+02   7.9219820e+02
   1.8196370e+02   8.2821970e+02
   1.8244580e+02   8.7366210e+02
   1.8292790e+02   9.1429000e+02
   1.8341000e+02   9.5052250e+02
   1.8389210e+02   9.8429590e+02
   1.8437420e+02   1.0117290e+03
   1.8485640e+02   1.0391070e+03
   1.8533850e+02   1.0803190e+03
   1.8582060e+02   1.1363580e+03
   1.8630270e+02   1.2008460e+03
   1.8678480e+02   1.2729820e+03
   1.8726690e+02   1.3510150e+03
   1.8774910e+02   1.4241590e+03
   1.8823120e+02   1.4831390e+03
   1.8871330e+02   1.5337110e+03
   1.8919540e+02   1.6018500e+03
   1.8967750e+02   1.6898510e+03
   1.9015960e+02   1.7830510e+03
   1.9064180e+02   1.8590080e+03
   1.9112390e+02   1.9181820e+03
   1.9160600e+02   1.9922310e+03
   1.9208810e+02   2.1006270e+03
   1.9257020e+02   2.2391090e+03
   1.9305240e+02   2.3815550e+03
   1.9353450e+02   2.5388960e+03
   1.9401660e+02   2.6712710e+03
   1.9449870e+02   2.7109490e+03
   1.9498080e+02   2.6548680e+03
   1.9546290e+02   2.5522630e+03
   1.9594510e+02   2.4146750e+03
   1.9642720e+02   2.2413310e+03
   1.9690930e+02   2.0711280e+03
   1.9739140e+02   1.9025690e+03
   1.9787350e+02   1.7414160e+03
   1.9835560e+02   1.5889700e+03
   1.9883780e+02   1.4455930e+03
   1.9931990e+02   1.3355590e+03
   1.9980200e+02   1.2822610e+03
   2.0028410e+02   1.2898040e+03
   2.0076620e+02   1.2965770e+03
   2.0124830e+02   1.2984610e+03
   2.0173050e+02   1.2982530e+03
   2.0221260e+02   1.3029790e+03
   2.0269470e+02   1.3134310e+03
   2.0317680e+02   1.3265260e+03
   2.0365890e+02   1.3450070e+03
   2.0414100e+02   1.3718680e+03
   2.0462320e+02   1.3805450e+03
   2.0510530e+02   1.3667990e+03
   2.0558740e+02   1.3335240e+03
   2.0606950e+02   1.2930190e+03
   2.0655160e+02   1.2503720e+03
   2.0703370e+02   1.1889440e+03
   2.0751590e+02   1.0877400e+03
   2.0799800e+02   9.3644340e+02
   2.0848010e+02   8.0257910e+02
   2.0896220e+02   6.9345020e+02
   2.0944430e+02   6.0824220e+02
   2.0992640e+02   5.4532910e+02
   2.1040860e+02   5.0962400e+02
   2.1089070e+02   4.8502730e+02
   2.1137280e+02   4.6032910e+02
   2.1185490e+02   4.3500880e+02
   2.1233700e+02   4.1268550e+02
   2.1281910e+02   3.9316500e+02
   2.1330130e+02   3.7633400e+02
   2.1378340e+02   3.6494920e+02
   2.1426550e+02   3.6226370e+02
   2.1474760e+02   3.6098540e+02
   2.1522970e+02   3.5375390e+02
   2.1571180e+02   3.3661910e+02
   2.1619400e+02   3.2390040e+02
   2.1667610e+02   3.1868460e+02
   2.1715820e+02   3.2084080e+02
   2.1764030e+02   3.2544630e+02
   2.1812240e+02   3.3361040e+02
   2.1860450e+02   3.4244730e+02
   2.1908670e+02   3.4820310e+02
   2.1956880e+02   3.4713870e+02
   2.2005090e+02   3.5213870e+02
   2.2053300e+02   3.6942190e+02
   2.2101510e+02   3.9997360e+02
   2.2149720e+02   4.1162300e+02
   2.2197940e+02   3.8916310e+02
   2.2246150e+02   3.6500390e+02
   2.2294360e+02   3.7881640e+02
   2.2342570e+02   4.5697560e+02
   2.2390780e+02   5.1849320e+02
   2.2438990e+02   5.3505760e+02
   2.2487210e+02   5.0057710e+02
   2.2535420e+02   5.0490920e+02
   2.2583630e+02   5.6409180e+02
   2.2631840e+02   6.4764650e+02
   2.2680050e+02   7.2071000e+02
   2.2728270e+02   7.7554000e+02
   2.2776480e+02   8.3282710e+02
   2.2824690e+02   8.9549220e+02
   2.2872900e+02   9.6103520e+02
   2.2921110e+02   1.0383630e+03
   2.2969320e+02   1.1359220e+03
   2.3017540e+02   1.2410250e+03
   2.3065750e+02   1.3369140e+03
   2.3113960e+02   1.4114590e+03
   2.3162170e+02   1.4903910e+03
   2.3210380e+02   1.5839520e+03
   2.3258590e+02   1.6978270e+03
   2.3306810e+02   1.8005810e+03
   2.3355020e+02   1.8868510e+03
   2.3403230e+02   1.9648960e+03
   2.3451440e+02   2.0483730e+03
   2.3499650e+02   2.1398890e+03
   2.3547860e+02   2.2341890e+03
   2.3596080e+02   2.3275670e+03
   2.3644290e+02   2.4138180e+03
   2.3692500e+02   2.5041640e+03
   2.3740710e+02   2.5850270e+03
   2.3788920e+02   2.6842070e+03
   2.3837130e+02   2.8454460e+03
   2.3885350e+02   3.0918770e+03
   2.3933560e+02   3.3546120e+03
   2.3981770e+02   3.6072400e+03
   2.4029980e+02   3.8382830e+03
   2.4078190e+02   4.1094380e+03
   2.4126400e+02   4.4490960e+03
   2.4174620e+02   4.8168670e+03
   2.4222830e+02   5.1563710e+03
   2.4271040e+02   5.5083550e+03
   2.4319250e+02   5.7652900e+03
   2.4367460e+02   5.8947580e+03
   2.4415670e+02   5.8948860e+03
   2.4463890e+02   5.7662810e+03
   2.4512100e+02   5.4824060e+03
   2.4560310e+02   5.0870910e+03
   2.4608520e+02   4.6513050e+03
   2.4656730e+02   4.1543960e+03
   2.4704940e+02   3.6515320e+03
   2.4753160e+02   3.1511570e+03
   2.4801370e+02   2.6313870e+03
   2.4849580e+02   2.1922980e+03
   2.4897790e+02   1.8492520e+03
   2.4946000e+02   1.5753150e+03
   2.4994210e+02   1.3349650e+03
   2.5042430e+02   1.1344390e+03
   2.5090640e+02   9.5927250e+02
   2.5138850e+02   8.0139940e+02
   2.5187060e+02   6.5312210e+02
   2.5235270e+02   5.4442770e+02
   2.5283480e+02   4.9351950e+02
   2.5331700e+02   4.7427830e+02
   2.5379910e+02   4.3256050e+02
   2.5428120e+02   3.4970120e+02
   2.5476330e+02   2.7140230e+02
   2.5524540e+02   2.1641210e+02
   2.5572750e+02   1.9137700e+02
   2.5620970e+02   1.7485550e+02
   2.5669180e+02   1.6871090e+02
   2.5717390e+02   1.6808590e+02
   2.5765600e+02   1.6608110e+02
   2.5813810e+02   1.6363960e+02
   2.5862020e+02   1.5850780e+02
   2.5910240e+02   1.4937790e+02
   2.5958450e+02   1.3508790e+02
   2.6006660e+02   1.2163960e+02
   2.6054870e+02   1.0989060e+02
   2.6103080e+02   9.8300780e+01
   2.6151290e+02   8.3522460e+01
   2.6199510e+02   6.3872070e+01
   2.6247720e+02   4.5059570e+01
   2.6295930e+02   2.8188480e+01
   2.6344140e+02   1.1885740e+01
   2.6392350e+02   5.1425780e+00
   2.6440560e+02   1.2062500e+01
   2.6488780e+02   2.4802730e+01
   2.6536990e+02   2.9986330e+01
   2.6585200e+02   2.6223630e+01
   2.6633410e+02   1.9283200e+01
   2.6681620e+02   9.6054690e+00
   2.6729830e+02   4.4658200e+00
   2.6778050e+02   9.9716800e+00
   2.6826260e+02   4.0693360e+00
   2.6874470e+02   7.1953130e+00
   2.6922680e+02   1.1788090e+01
   2.6970890e+02   6.3183590e+00
   2.7019100e+02   6.3847660e+00
   2.7067320e+02   2.3097660e+01
   2.7115530e+02   5.9839840e+01
   2.7163740e+02   7.5416020e+01
   2.7211950e+02   6.2717770e+01
   2.7260160e+02   3.9291990e+01
   2.7308370e+02   3.4137700e+01
   2.7356590e+02   5.0205080e+01
   2.7404800e+02   6.9363280e+01
   2.7453010e+02   8.5155270e+01
   2.7501220e+02   9.7301760e+01
   2.7549430e+02   1.1306150e+02
   2.7597640e+02   1.3640430e+02
   2.7645860e+02   1.5589060e+02
   2.7694070e+02   1.4822070e+02
   2.7742280e+02   1.0929590e+02
   2.7790490e+02   7.8433590e+01
   2.7838700e+02   7.5982420e+01
   2.7886910e+02   1.0023730e+02
   2.7935130e+02   1.1178320e+02
   2.7983340e+02   1.0944430e+02
   2.8031550e+02   9.7367190e+01
   2.8079760e+02   7.6994140e+01
   2.8127980e+02   4.7773440e+01
   2.8176190e+02   2.4373050e+01
   2.8224400e+02   1.5209960e+01
   2.8272610e+02   1.7971680e+01
   2.8320820e+02   1.4247070e+01
   2.8369030e+02   2.8164060e+00
   2.8417250e+02   1.0592770e+01
   2.8465460e+02   2.1892580e+01
   2.8513670e+02   3.0834960e+01
   2.8561880e+02   2.9584960e+01
   2.8610090e+02   5.2919920e+00
   2.8658300e+02   3.2425780e+01
   2.8706520e+02   3.5860350e+01
   2.8754730e+02   2.4414100e-01
   2.8802940e+02   4.2053710e+01
   2.8851150e+02   5.2635740e+01
   2.8899360e+02   3.5106450e+01
   2.8947570e+02   1.9586910e+01
   2.8995790e+02   1.7019530e+01
   2.9044000e+02   2.3353520e+01
   2.9092210e+02   2.6379880e+01
   2.9140420e+02   2.5712890e+01
   2.9188630e+02   2.6510740e+01
   2.9236840e+02   4.2293950e+01
   2.9285060e+02   6.6778320e+01
   2.9333270e+02   7.1388670e+01
   2.9381480e+02   3.3545900e+01
   2.9429690e+02   2.1900390e+01
   2.9477900e+02   2.9704100e+01
   2.9526110e+02   1.0073240e+01
   2.9574330e+02   2.3125980e+01
   2.9622540e+02   9.7288090e+01
   2.9670750e+02   3.0172850e+02
   2.9718960e+02   4.4560160e+02
   2.9767170e+02   4.7611230e+02
   2.9815380e+02   4.3873630e+02
   2.9863600e+02   3.8039840e+02
   2.9911810e+02   3.0382710e+02
   2.9960020e+02   2.4583010e+02
   3.0008230e+02   2.5022950e+02
   3.0056440e+02   2.9113570e+02
   3.0104650e+02   3.2005760e+02
   3.0152870e+02   3.2328710e+02
   3.0201080e+02   3.1066210e+02
   3.0249290e+02   2.9030470e+02
   3.0297500e+02   2.6253320e+02
   3.0345710e+02   2.2955080e+02
   3.0393920e+02   1.9313480e+02
   3.0442140e+02   1.5224510e+02
   3.0490350e+02   1.0163480e+02
   3.0538560e+02   2.8841800e+01
   3.0586770e+02   3.4435550e+01
   3.0634980e+02   4.9785160e+01
   3.0683190e+02   2.8543950e+01
   3.0731410e+02   1.0520510e+01
   3.0779620e+02   2.6125980e+01
   3.0827830e+02   5.3396480e+01
   3.0876040e+02   6.9197270e+01
   3.0924250e+02   6.2864260e+01
   3.0972460e+02   5.7724610e+01
   3.1020680e+02   7.8934570e+01
   3.1068890e+02   1.1421290e+02
   3.1117100e+02   1.3189840e+02
   3.1165310e+02   9.8849610e+01
   3.1213520e+02   5.3208010e+01
   3.1261730e+02   2.4842770e+01
   3.1309950e+02   2.4937500e+01
   3.1358160e+02   2.4912110e+01
   3.1406370e+02   8.6582030e+00
   3.1454580e+02   1.6984380e+01
   3.1502790e+02   3.9314450e+01
   3.1551000e+02   3.8398440e+01
   3.1599220e+02   4.4265620e+01
   3.1647430e+02   7.8223630e+01
   3.1695640e+02   1.5148440e+02
   3.1743850e+02   2.1643850e+02
   3.1792060e+02   2.4126460e+02
   3.1840270e+02   2.5202640e+02
   3.1888490e+02   2.8519040e+02
   3.1936700e+02   3.7620800e+02
   3.1984910e+02   4.6868070e+02
   3.2033120e+02   5.4044140e+02
   3.2081330e+02   5.8669820e+02
   3.2129540e+02   6.3200390e+02
   3.2177760e+02   6.8768550e+02
   3.2225970e+02   7.4324510e+02
   3.2274180e+02   7.8725780e+02
   3.2322390e+02   7.9816210e+02
   3.2370600e+02   8.1680660e+02
   3.2418810e+02   8.5109280e+02
   3.2467030e+02   9.0126660e+02
   3.2515240e+02   9.6612500e+02
   3.2563450e+02   1.0683950e+03
   3.2611660e+02   1.1733610e+03
   3.2659870e+02   1.2532460e+03
   3.2708080e+02   1.2551030e+03
   3.2756300e+02   1.2929470e+03
   3.2804510e+02   1.3862640e+03
   3.2852720e+02   1.5335170e+03
   3.2900930e+02   1.6940300e+03
   3.2949140e+02   1.8593510e+03
   3.2997350e+02   2.0403750e+03
   3.3045570e+02   2.2430830e+03
   3.3093780e+02   2.4709090e+03
   3.3141990e+02   2.7160590e+03
   3.3190200e+02   2.9787850e+03
   3.3238410e+02   3.2592620e+03
   3.3286620e+02   3.5589100e+03
   3.3334840e+02   3.8707390e+03
   3.3383050e+02   4.2077220e+03
   3.3431260e+02   4.5847680e+03
   3.3479470e+02   5.0101850e+03
   3.3527680e+02   5.4367460e+03
   3.3575890e+02   5.8575430e+03
   3.3624110e+02   6.2798380e+03
   3.3672320e+02   6.7405920e+03
   3.3720530e+02   7.2498690e+03
   3.3768740e+02   7.7583400e+03
   3.3816950e+02   8.2504790e+03
   3.3865160e+02   8.7217380e+03
   3.3913380e+02   9.1914500e+03
   3.3961590e+02   9.6792570e+03
   3.4009800e+02   1.0127660e+04
   3.4058010e+02   1.0434080e+04
   3.4106220e+02   1.0598490e+04
   3.4154430e+02   1.0646420e+04
   3.4202650e+02   1.0583630e+04
   3.4250860e+02   1.0412960e+04
   3.4299070e+02   1.0138410e+04
   3.4347280e+02   9.7500180e+03
   3.4395490e+02   9.3093910e+03
   3.4443700e+02   8.8830000e+03
   3.4491920e+02   8.4711230e+03
   3.4540130e+02   8.0685720e+03
   3.4588340e+02   7.6925080e+03
   3.4636550e+02   7.3251090e+03
   3.4684760e+02   6.9316140e+03
   3.4732970e+02   6.5134930e+03
   3.4781190e+02   6.0705000e+03
   3.4829400e+02   5.5835980e+03
   3.4877610e+02   5.0709240e+03
   3.4925820e+02   4.5967500e+03
   3.4974030e+02   4.1699550e+03
   3.5022250e+02   3.7860180e+03
   3.5070460e+02   3.4465700e+03
   3.5118670e+02   3.1471640e+03
   3.5166880e+02   2.8690950e+03
   3.5215090e+02   2.5838550e+03
   3.5263310e+02   2.3108550e+03
   3.5311520e+02   2.0844010e+03
   3.5359730e+02   1.9244790e+03
   3.5407940e+02   1.7968860e+03
   3.5456150e+02   1.6641590e+03
   3.5504360e+02   1.5328250e+03
   3.5552580e+02   1.4227520e+03
   3.5600790e+02   1.3634710e+03
   3.5649000e+02   1.3198910e+03
   3.5697210e+02   1.2563930e+03
   3.5745420e+02   1.1571460e+03
   3.5793630e+02   1.0730940e+03
   3.5841850e+02   1.0388740e+03
   3.5890060e+02   1.0385180e+03
   3.5938270e+02   1.0444430e+03
   3.5986480e+02   1.0472440e+03
   3.6034690e+02   1.0524880e+03
   3.6082900e+02   1.0595270e+03
   3.6131120e+02   1.0664910e+03
   3.6179330e+02   1.0903680e+03
   3.6227540e+02   1.1425220e+03
   3.6275750e+02   1.2122820e+03
   3.6323960e+02   1.2881680e+03
   3.6372170e+02   1.3615670e+03
   3.6420390e+02   1.4424760e+03
   3.6468600e+02   1.5376880e+03
   3.6516810e+02   1.6476000e+03
   3.6565020e+02   1.7558090e+03
   3.6613230e+02   1.8476950e+03
   3.6661440e+02   1.9455820e+03
   3.6709660e+02   2.0666280e+03
   3.6757870e+02   2.2572360e+03
   3.6806080e+02   2.4112540e+03
   3.6854290e+02   2.5206910e+03
   3.6902500e+02   2.5886880e+03
   3.6950710e+02   2.6285820e+03
   3.6998930e+02   2.6574610e+03
   3.7047140e+02   2.6393670e+03
   3.7095350e+02   2.5509420e+03
   3.7143560e+02   2.3666550e+03
   3.7191770e+02   2.1704280e+03
   3.7239980e+02   1.9527710e+03
   3.7288200e+02   1.7276620e+03
   3.7336410e+02   1.5314970e+03
   3.7384620e+02   1.3707700e+03
   3.7432830e+02   1.2232190e+03
   3.7481040e+02   1.0837740e+03
   3.7529250e+02   9.5188770e+02
   3.7577470e+02   8.1937990e+02
   3.7625680e+02   6.8090820e+02
   3.7673890e+02   5.5034570e+02
   3.7722100e+02   4.4387110e+02
   3.7770310e+02   3.6103520e+02
   3.7818520e+02   3.1094820e+02
   3.7866740e+02   3.1050290e+02
   3.7914950e+02   3.4416020e+02
   3.7963160e+02   3.3566890e+02
   3.8011370e+02   2.7970020e+02
   3.8059580e+02   2.2969530e+02
   3.8107790e+02   2.4749120e+02
   3.8156010e+02   3.1953910e+02
   3.8204220e+02   3.7405180e+02
   3.8252430e+02   3.8756840e+02
   3.8300640e+02   3.8720210e+02
   3.8348850e+02   4.2126460e+02
   3.8397060e+02   4.8619140e+02
   3.8445280e+02   5.5339550e+02
   3.8493490e+02   6.0349800e+02
   3.8541700e+02   6.4381640e+02
   3.8589910e+02   6.8988570e+02
   3.8638120e+02   7.4755760e+02
   3.8686330e+02   7.9168650e+02
   3.8734550e+02   8.0296390e+02
   3.8782760e+02   7.8530370e+02
   3.8830970e+02   7.4746000e+02
   3.8879180e+02   6.7900200e+02
   3.8927390e+02   6.0161720e+02
   3.8975600e+02   5.2679000e+02
   3.9023820e+02   4.5392480e+02
   3.9072030e+02   4.0153610e+02
   3.9120240e+02   3.8976170e+02
   3.9168450e+02   4.0052340e+02
   3.9216660e+02   4.1306050e+02
   3.9264870e+02   4.1142480e+02
   3.9313090e+02   4.1894530e+02
   3.9361300e+02   4.4797270e+02
   3.9409510e+02   4.9709770e+02
   3.9457720e+02   5.4739940e+02
   3.9505930e+02   6.0055080e+02
   3.9554140e+02   6.4938090e+02
   3.9602360e+02   6.8877050e+02
   3.9650570e+02   7.1783790e+02
   3.9698780e+02   7.3781640e+02
   3.9746990e+02   7.3408010e+02
   3.9795200e+02   7.1919630e+02
   3.9843410e+02   7.3249710e+02
   3.9891630e+02   7.9181450e+02
   3.9939840e+02   8.6088870e+02
   3.9988050e+02   9.2683590e+02
   4.0036260e+02   9.8627540e+02
   4.0084470e+02   1.0532530e+03
   4.0132680e+02   1.1328480e+03
   4.0180900e+02   1.2161220e+03
   4.0229110e+02   1.2955460e+03
   4.0277320e+02   1.3776610e+03
   4.0325530e+02   1.4380920e+03
   4.0373740e+02   1.4662340e+03
   4.0421950e+02   1.4630620e+03
   4.0470170e+02   1.4572890e+03
   4.0518380e+02   1.4550210e+03
   4.0566590e+02   1.4356700e+03
   4.0614800e+02   1.3673540e+03
   4.0663010e+02   1.2491170e+03
   4.0711220e+02   1.1559600e+03
   4.0759440e+02   1.1073990e+03
   4.0807650e+02   1.0854030e+03
   4.0855860e+02   1.0415700e+03
   4.0904070e+02   9.7560640e+02
   4.0952280e+02   9.2433200e+02
   4.1000490e+02   9.1581740e+02
   4.1048710e+02   9.4112110e+02
   4.1096920e+02   9.7663480e+02
   4.1145130e+02   1.0226790e+03
   4.1193340e+02   1.0770300e+03
   4.1241550e+02   1.1461600e+03
   4.1289760e+02   1.2210760e+03
   4.1337980e+02   1.2803380e+03
   4.1386190e+02   1.2932290e+03
   4.1434400e+02   1.2978630e+03
   4.1482610e+02   1.3482600e+03
   4.1530820e+02   1.4451690e+03
   4.1579030e+02   1.5191500e+03
   4.1627250e+02   1.5083030e+03
   4.1675460e+02   1.4562960e+03
   4.1723670e+02   1.4131240e+03
   4.1771880e+02   1.4270830e+03
   4.1820090e+02   1.4177140e+03
   4.1868300e+02   1.3279470e+03
   4.1916520e+02   1.1786730e+03
   4.1964730e+02   1.0496900e+03
   4.2012940e+02   9.7528120e+02
   4.2061150e+02   9.2154390e+02
   4.2109370e+02   8.6840920e+02
   4.2157580e+02   8.0727250e+02
   4.2205790e+02   7.6203610e+02
   4.2254000e+02   7.3858500e+02
   4.2302210e+02   7.3214550e+02
   4.2350420e+02   7.3472950e+02
   4.2398640e+02   7.4663570e+02
   4.2446850e+02   7.6648440e+02
   4.2495060e+02   7.9174900e+02
   4.2543270e+02   8.2083300e+02
   4.2591480e+02   8.7273540e+02
   4.2639690e+02   9.5830270e+02
   4.2687910e+02   1.0542900e+03
   4.2736120e+02   1.1383280e+03
   4.2784330e+02   1.2033640e+03
   4.2832540e+02   1.2800830e+03
   4.2880750e+02   1.3817150e+03
   4.2928960e+02   1.4941380e+03
   4.2977180e+02   1.5655290e+03
   4.3025390e+02   1.5919950e+03
   4.3073600e+02   1.6002000e+03
   4.3121810e+02   1.6162060e+03
   4.3170020e+02   1.6359930e+03
   4.3218230e+02   1.5927920e+03
   4.3266450e+02   1.4739790e+03
   4.3314660e+02   1.3226690e+03
   4.3362870e+02   1.2015500e+03
   4.3411080e+02   1.1031820e+03
   4.3459290e+02   9.8873830e+02
   4.3507500e+02   8.2889550e+02
   4.3555720e+02   6.4980760e+02
   4.3603930e+02   4.9080080e+02
   4.3652140e+02   3.5212700e+02
   4.3700350e+02   2.3855180e+02
   4.3748560e+02   1.6076660e+02
   4.3796770e+02   1.0937400e+02
   4.3844990e+02   7.2990230e+01
   4.3893200e+02   5.2088870e+01
   4.3941410e+02   3.9763670e+01
   4.3989620e+02   3.9858400e+01
   4.4037830e+02   4.5550780e+01
   4.4086040e+02   3.9321290e+01
   4.4134260e+02   1.6787110e+00
   4.4182470e+02   4.1155270e+01
   4.4230680e+02   8.0372070e+01
   4.4278890e+02   1.2021970e+02
   4.4327100e+02   1.3092190e+02
   4.4375310e+02   8.0185550e+01
   4.4423530e+02   5.7148440e+00
   4.4471740e+02   5.1709960e+01
   4.4519950e+02   7.4273440e+01
   4.4568160e+02   9.1785160e+01
   4.4616370e+02   9.9579100e+01
   4.4664580e+02   1.0061040e+02
   4.4712800e+02   1.3043070e+02
   4.4761010e+02   2.0951170e+02
   4.4809220e+02   2.9512600e+02
   4.4857430e+02   3.6312990e+02
   4.4905640e+02   4.0814650e+02
   4.4953850e+02   4.5120120e+02
   4.5002070e+02   4.9185840e+02
   4.5050280e+02   5.3150490e+02
   4.5098490e+02   5.7561720e+02
   4.5146700e+02   6.2696290e+02
   4.5194910e+02   6.6700780e+02
   4.5243120e+02   6.9108980e+02
   4.5291340e+02   6.9829880e+02
   4.5339550e+02   6.8316500e+02
   4.5387760e+02   6.4561620e+02
   4.5435970e+02   5.8735060e+02
   4.5484180e+02   5.0095310e+02
   4.5532390e+02   3.9263960e+02
   4.5580610e+02   2.8995900e+02
   4.5628820e+02   1.9359380e+02
   4.5677030e+02   1.1229880e+02
   4.5725240e+02   6.2693360e+01
   4.5773450e+02   4.0358400e+01
   4.5821660e+02   2.6502930e+01
   4.5869880e+02   1.6367190e+01
   4.5918090e+02   5.9492190e+00
   4.5966300e+02   1.2149410e+01
   4.6014510e+02   4.0924800e+01
   4.6062720e+02   6.1783200e+01
   4.6110930e+02   5.5963870e+01
   4.6159150e+02   3.7513670e+01
   4.6207360e+02   2.3965820e+01
   4.6255570e+02   3.3379880e+01
   4.6303780e+02   3.6659180e+01
   4.6351990e+02   1.2633790e+01
   4.6400200e+02   3.2872070e+01
   4.6448420e+02   5.6743160e+01
   4.6496630e+02   2.7546880e+01
   4.6544840e+02   9.2343750e+00
   4.6593050e+02   2.9635740e+01
   4.6641260e+02   2.3674800e+01
   4.6689470e+02   1.7108400e+01
   4.6737690e+02   2.9863280e+00
   4.6785900e+02   8.7421880e+00
   4.6834110e+02   3.1054690e+00
   4.6882320e+02   6.3245120e+01
   4.6930530e+02   9.6144530e+01
   4.6978740e+02   7.1965820e+01
   4.7026960e+02   4.9208980e+00
   4.7075170e+02   5.1664060e+01
   4.7123380e+02   6.2666990e+01
   4.7171590e+02   6.0649410e+01
   4.7219800e+02   6.1068360e+01
   4.7268010e+02   6.4056640e+01
   4.7316230e+02   7.6012700e+01
   4.7364440e+02   1.0121580e+02
   4.7412650e+02   1.2923540e+02
   4.7460860e+02   1.3651170e+02
   4.7509070e+02   1.2706540e+02
   4.7557280e+02   1.2681450e+02
   4.7605500e+02   1.6279790e+02
   4.7653710e+02   2.1216800e+02
   4.7701920e+02   2.3249320e+02
   4.7750130e+02   2.2206250e+02
   4.7798340e+02   2.1321480e+02
   4.7846550e+02   2.3803030e+02
   4.7894770e+02   2.7727150e+02
   4.7942980e+02   3.0556350e+02
   4.7991190e+02   3.1414840e+02
   4.8039400e+02   3.1208500e+02
   4.8087610e+02   2.9744430e+02
   4.8135820e+02   2.7492380e+02
   4.8184040e+02   2.5835450e+02
   4.8232250e+02   2.6495610e+02
   4.8280460e+02   2.6800680e+02
   4.8328670e+02   2.5198730e+02
   4.8376880e+02   2.0672660e+02
   4.8425090e+02   1.7318550e+02
   4.8473310e+02   1.6909180e+02
   4.8521520e+02   1.7094340e+02
   4.8569730e+02   1.5469340e+02
   4.8617940e+02   9.7570310e+01
   4.8666150e+02   6.2113280e+01
   4.8714360e+02   6.3579100e+01
   4.8762580e+02   9.3523440e+01
   4.8810790e+02   1.1071000e+02
   4.8859000e+02   1.0984280e+02
   4.8907210e+02   1.1060940e+02
   4.8955420e+02   1.2946880e+02
   4.9003630e+02   1.6682130e+02
   4.9051850e+02   1.8051760e+02
   4.9100060e+02   1.6554790e+02
   4.9148270e+02   1.4042770e+02
   4.9196480e+02   1.2588090e+02
   4.9244700e+02   1.2139750e+02
   4.9292910e+02   1.2570510e+02
   4.9341120e+02   1.4463180e+02
   4.9389330e+02   1.6607520e+02
   4.9437540e+02   1.6929300e+02
   4.9485750e+02   1.5684770e+02
   4.9533970e+02   1.4374800e+02
   4.9582180e+02   1.4114450e+02
   4.9630390e+02   1.4127930e+02
   4.9678600e+02   1.3535640e+02
   4.9726810e+02   1.2000980e+02
   4.9775020e+02   1.0674020e+02
   4.9823240e+02   1.0635840e+02
   4.9871450e+02   1.1035160e+02
   4.9919660e+02   1.0706740e+02
   4.9967870e+02   7.4066410e+01
   5.0016080e+02   5.0368160e+01
   5.0064290e+02   5.7516600e+01
   5.0112510e+02   9.4605470e+01
   5.0160720e+02   1.1644140e+02
   5.0208930e+02   1.0296970e+02
   5.0257140e+02   8.5139650e+01
   5.0305350e+02   7.7626950e+01
   5.0353560e+02   8.1288090e+01
   5.0401780e+02   8.9739260e+01
   5.0449990e+02   1.1046290e+02
   5.0498200e+02   1.3132230e+02
   5.0546410e+02   1.2616600e+02
   5.0594620e+02   8.6921880e+01
   5.0642830e+02   7.6147460e+01
   5.0691050e+02   1.2185060e+02
   5.0739260e+02   2.0333790e+02
   5.0787470e+02   2.4165620e+02
   5.0835680e+02   2.3637600e+02
   5.0883890e+02   2.3010640e+02
   5.0932100e+02   2.5211130e+02
   5.0980320e+02   2.9483690e+02
   5.1028530e+02   3.4110250e+02
   5.1076740e+02   3.8877250e+02
   5.1124950e+02   4.3208590e+02
   5.1173160e+02   4.5927930e+02
   5.1221370e+02   4.8019530e+02
   5.1269590e+02   5.1366310e+02
   5.1317800e+02   5.9035940e+02
   5.1366010e+02   6.6713770e+02
   5.1414220e+02   7.0654100e+02
   5.1462430e+02   7.0966110e+02
   5.1510640e+02   7.1774510e+02
   5.1558860e+02   7.6272360e+02
   5.1607070e+02   8.0829490e+02
   5.1655280e+02   8.2960840e+02
   5.1703490e+02   8.0612400e+02
   5.1751700e+02   7.9488480e+02
   5.1799910e+02   8.0933790e+02
   5.1848130e+02   8.3526760e+02
   5.1896340e+02   8.5534770e+02
   5.1944550e+02   8.6270410e+02
   5.1992760e+02   8.7832130e+02
   5.2040970e+02   9.1568460e+02
   5.2089180e+02   9.6641700e+02
   5.2137400e+02   9.6825980e+02
   5.2185610e+02   9.0320610e+02
   5.2233820e+02   8.4705080e+02
   5.2282030e+02   8.7089260e+02
   5.2330240e+02   9.6639840e+02
   5.2378450e+02   9.8968460e+02
   5.2426670e+02   9.2355960e+02
   5.2474880e+02   8.2398730e+02
   5.2523090e+02   7.4595210e+02
   5.2571300e+02   6.8838870e+02
   5.2619510e+02   6.5061230e+02
   5.2667720e+02   6.4386040e+02
   5.2715940e+02   6.4237790e+02
   5.2764150e+02   6.1666110e+02
   5.2812360e+02   5.7253030e+02
   5.2860570e+02   5.2503120e+02
   5.2908780e+02   4.8137700e+02
   5.2956990e+02   4.4041800e+02
   5.3005210e+02   3.9978420e+02
   5.3053420e+02   3.5601370e+02
   5.3101630e+02   3.2505660e+02
   5.3149840e+02   3.2759380e+02
   5.3198050e+02   3.3849610e+02
   5.3246260e+02   3.3099900e+02
   5.3294480e+02   2.7367480e+02
   5.3342690e+02   2.3159470e+02
   5.3390900e+02   2.2028520e+02
   5.3439110e+02   2.3039940e+02
   5.3487320e+02   2.2422360e+02
   5.3535530e+02   1.8946970e+02
   5.3583750e+02   1.6079790e+02
   5.3631960e+02   1.4704690e+02
   5.3680170e+02   1.4004490e+02
   5.3728380e+02   1.5680470e+02
   5.3776590e+02   1.6675490e+02
   5.3824800e+02   1.7027440e+02
   5.3873020e+02   1.4813280e+02
   5.3921230e+02   1.5907230e+02
   5.3969440e+02   1.5672950e+02
   5.4017650e+02   1.5381640e+02
   5.4065860e+02   1.6936040e+02
   5.4114070e+02   1.8884470e+02
   5.4162290e+02   2.3083590e+02
   5.4210500e+02   2.6385640e+02
   5.4258710e+02   2.7050390e+02
   5.4306920e+02   2.6937890e+02
   5.4355130e+02   2.8247170e+02
   5.4403340e+02   3.1052050e+02
   5.4451560e+02   3.2262700e+02
   5.4499770e+02   2.9156930e+02
   5.4547980e+02   2.4591990e+02
   5.4596190e+02   2.0843360e+02
   5.4644400e+02   1.8883500e+02
   5.4692610e+02   1.6944530e+02
   5.4740830e+02   1.4502830e+02
   5.4789040e+02   1.1986620e+02
   5.4837250e+02   1.0203030e+02
   5.4885460e+02   9.3858400e+01
   5.4933670e+02   8.8715820e+01
   5.4981880e+02   8.4015620e+01
   5.5030100e+02   8.0352540e+01
   5.5078310e+02   8.8056640e+01
   5.5126520e+02   1.1158200e+02
   5.5174730e+02   1.3160840e+02
   5.5222940e+02   1.2658790e+02
   5.5271150e+02   1.0067090e+02
   5.5319370e+02   9.9758790e+01
   5.5367580e+02   1.3179980e+02
   5.5415790e+02   1.7059380e+02
   5.5464000e+02   1.8167970e+02
   5.5512210e+02   1.7297660e+02
   5.5560420e+02   1.6737890e+02
   5.5608640e+02   1.8062500e+02
   5.5656850e+02   1.9288480e+02
   5.5705060e+02   1.8759670e+02
   5.5753270e+02   1.6629880e+02
   5.5801480e+02   1.3200290e+02
   5.5849690e+02   6.6029300e+01
   5.5897910e+02   2.5234380e+00
   5.5946120e+02   3.7687500e+01
   5.5994330e+02   4.9833010e+01
   5.6042540e+02   4.9453120e+01
   5.6090750e+02   2.6599610e+01
   5.6138960e+02   6.8359002e-02
   5.6187180e+02   1.5107420e+01
   5.6235390e+02   1.9128910e+01
   5.6283600e+02   8.9189450e+00
   5.6331810e+02   2.4681640e+01
   5.6380020e+02   6.8286130e+01
   5.6428230e+02   8.6023440e+01
   5.6476450e+02   7.0817380e+01
   5.6524660e+02   6.1495120e+01
   5.6572870e+02   7.8365230e+01
   5.6621080e+02   1.1407420e+02
   5.6669290e+02   1.3378520e+02
   5.6717500e+02   1.3727340e+02
   5.6765720e+02   1.2619430e+02
   5.6813930e+02   9.2381840e+01
   5.6862140e+02   4.6566410e+01
   5.6910350e+02   9.8154300e+00
   5.6958560e+02   1.5941410e+01
   5.7006770e+02   2.8458010e+01
   5.7054990e+02   3.2568360e+00
   5.7103200e+02   3.1511720e+01
   5.7151410e+02   3.1565430e+01
   5.7199620e+02   5.8635740e+01
   5.7247830e+02   1.4746880e+02
   5.7296040e+02   1.9677930e+02
   5.7344260e+02   2.1183010e+02
   5.7392470e+02   2.2374020e+02
   5.7440680e+02   2.2901270e+02
   5.7488890e+02   2.3952540e+02
   5.7537100e+02   2.5879980e+02
   5.7585310e+02   2.8587210e+02
   5.7633530e+02   3.2729300e+02
   5.7681740e+02   3.9192480e+02
   5.7729950e+02   4.5713090e+02
   5.7778160e+02   4.9978220e+02
   5.7826370e+02   5.1736910e+02
   5.7874580e+02   5.3711230e+02
   5.7922800e+02   5.6410840e+02
   5.7971010e+02   5.9280660e+02
   5.8019220e+02   6.1197460e+02
   5.8067430e+02   6.2322560e+02
   5.8115640e+02   6.3553910e+02
   5.8163850e+02   6.5706640e+02
   5.8212070e+02   6.7996090e+02
   5.8260280e+02   6.9339940e+02
   5.8308490e+02   6.9794140e+02
   5.8356700e+02   6.9905470e+02
   5.8404910e+02   7.1066210e+02
   5.8453130e+02   7.1323050e+02
   5.8501340e+02   6.8873540e+02
   5.8549550e+02   6.2693360e+02
   5.8597760e+02   5.6327440e+02
   5.8645970e+02   4.9810840e+02
   5.8694180e+02   4.3955470e+02
   5.8742400e+02   3.9773140e+02
   5.8790610e+02   3.7803030e+02
   5.8838820e+02   3.6594240e+02
   5.8887030e+02   3.6055760e+02
   5.8935240e+02   3.6163380e+02
   5.8983450e+02   3.7299320e+02
   5.9031670e+02   4.0116500e+02
   5.9079880e+02   4.1327930e+02
   5.9128090e+02   3.7940620e+02
   5.9176300e+02   3.1533690e+02
   5.9224510e+02   3.1566020e+02
   5.9272720e+02   3.8286620e+02
   5.9320940e+02   4.5373630e+02
   5.9369150e+02   4.7503810e+02
   5.9417360e+02   4.6273440e+02
   5.9465570e+02   4.4370410e+02
   5.9513780e+02   4.1978710e+02
   5.9561990e+02   4.0128420e+02
   5.9610210e+02   4.0441500e+02
   5.9658420e+02   4.1571000e+02
   5.9706630e+02   4.1598930e+02
   5.9754850e+02   3.8338180e+02
   5.9803060e+02   3.5506050e+02
   5.9851270e+02   3.4750200e+02
   5.9899480e+02   3.5532910e+02
   5.9947690e+02   3.5462010e+02
   5.9995900e+02   3.4230570e+02
   6.0044120e+02   3.2322750e+02
   6.0092330e+02   2.9591500e+02
   6.0140540e+02   2.5895610e+02
   6.0188750e+02   2.3572170e+02
   6.0236960e+02   2.3076460e+02
   6.0285170e+02   2.2873240e+02
   6.0333390e+02   2.0982130e+02
   6.0381600e+02   1.7676660e+02
   6.0429810e+02   1.7502540e+02
   6.0478020e+02   2.1696880e+02
   6.0526230e+02   2.6511130e+02
   6.0574440e+02   2.6529300e+02
   6.0622660e+02   2.3192190e+02
   6.0670870e+02   2.0393850e+02
   6.0719080e+02   1.9520210e+02
   6.0767290e+02   1.9750390e+02
   6.0815500e+02   2.1479300e+02
   6.0863710e+02   2.3976460e+02
   6.0911930e+02   2.4880370e+02
   6.0960140e+02   2.1154790e+02
   6.1008350e+02   1.7327440e+02
   6.1056560e+02   1.5822950e+02
   6.1104770e+02   1.7202440e+02
   6.1152980e+02   1.7889060e+02
   6.1201200e+02   1.6855960e+02
   6.1249410e+02   1.5925780e+02
   6.1297620e+02   1.6783400e+02
   6.1345830e+02   2.0779100e+02
   6.1394040e+02   2.1081050e+02
   6.1442250e+02   1.5894240e+02
   6.1490470e+02   9.6292970e+01
   6.1538680e+02   9.8372070e+01
   6.1586890e+02   1.5867580e+02
   6.1635100e+02   1.8953610e+02
   6.1683310e+02   1.4968260e+02
   6.1731520e+02   8.5079100e+01
   6.1779740e+02   7.1128910e+01
   6.1827950e+02   9.7843750e+01
   6.1876160e+02   1.2430960e+02
   6.1924370e+02   1.1987700e+02
   6.1972580e+02   1.1134280e+02
   6.2020790e+02   1.2323340e+02
   6.2069010e+02   1.5574320e+02
   6.2117220e+02   1.7617380e+02
   6.2165430e+02   1.6426460e+02
   6.2213640e+02   1.4396290e+02
   6.2261850e+02   1.3247950e+02
   6.2310060e+02   1.3844630e+02
   6.2358280e+02   1.3226370e+02
   6.2406490e+02   1.0381150e+02
   6.2454700e+02   7.1208010e+01
   6.2502910e+02   5.8226560e+01
   6.2551120e+02   7.0269530e+01
   6.2599330e+02   7.9675780e+01
   6.2647550e+02   7.9976560e+01
   6.2695760e+02   7.7416990e+01
   6.2743970e+02   8.7396480e+01
   6.2792180e+02   1.0714160e+02
   6.2840390e+02   1.2125980e+02
   6.2888600e+02   1.1206150e+02
   6.2936820e+02   9.9752930e+01
   6.2985030e+02   1.2015330e+02
   6.3033240e+02   1.6629880e+02
   6.3081450e+02   2.0265040e+02
   6.3129660e+02   1.9127540e+02
   6.3177870e+02   1.7471780e+02
   6.3226090e+02   1.8903520e+02
   6.3274300e+02   2.5209080e+02
   6.3322510e+02   2.9324220e+02
   6.3370720e+02   2.7408980e+02
   6.3418930e+02   2.4231540e+02
   6.3467140e+02   2.3751950e+02
   6.3515360e+02   2.7095900e+02
   6.3563570e+02   3.0733690e+02
   6.3611780e+02   3.4500200e+02
   6.3659990e+02   3.8302440e+02
   6.3708200e+02   4.2156540e+02
   6.3756410e+02   4.6074410e+02
   6.3804630e+02   4.9131150e+02
   6.3852840e+02   5.0771680e+02
   6.3901050e+02   5.1625000e+02
   6.3949260e+02   5.2873340e+02
   6.3997470e+02   5.4497460e+02
   6.4045680e+02   5.6309470e+02
   6.4093900e+02   5.9237400e+02
   6.4142110e+02   6.1655270e+02
   6.4190320e+02   6.1168070e+02
   6.4238530e+02   5.7620800e+02
   6.4286740e+02   5.5777440e+02
   6.4334950e+02   5.8021090e+02
   6.4383170e+02   6.2316700e+02
   6.4431380e+02   6.7442480e+02
   6.4479590e+02   7.4153030e+02
   6.4527800e+02   7.9900780e+02
   6.4576010e+02   8.4140530e+02
   6.4624220e+02   8.7876170e+02
   6.4672440e+02   9.2067090e+02
   6.4720650e+02   9.6429000e+02
   6.4768860e+02   1.0259710e+03
   6.4817070e+02   1.1104410e+03
   6.4865280e+02   1.2106720e+03
   6.4913490e+02   1.3213390e+03
   6.4961710e+02   1.4394840e+03
   6.5009920e+02   1.5475320e+03
   6.5058130e+02   1.6145730e+03
   6.5106340e+02   1.6811340e+03
   6.5154550e+02   1.7968650e+03
   6.5202760e+02   1.9582090e+03
   6.5250980e+02   2.1404950e+03
   6.5299190e+02   2.3504360e+03
   6.5347400e+02   2.5621170e+03
   6.5395610e+02   2.7565540e+03
   6.5443820e+02   2.9275700e+03
   6.5492030e+02   3.1075850e+03
   6.5540250e+02   3.2881350e+03
   6.5588460e+02   3.4893080e+03
   6.5636670e+02   3.7250430e+03
   6.5684880e+02   4.0059720e+03
   6.5733090e+02   4.2925350e+03
   6.5781300e+02   4.5851660e+03
   6.5829520e+02   4.8831770e+03
   6.5877730e+02   5.1854360e+03
   6.5925940e+02   5.4941090e+03
   6.5974150e+02   5.8041740e+03
   6.6022360e+02   6.1149910e+03
   6.6070570e+02   6.4283130e+03
   6.6118790e+02   6.7496720e+03
   6.6167000e+02   7.0724270e+03
   6.6215210e+02   7.3772480e+03
   6.6263420e+02   7.6774590e+03
   6.6311630e+02   7.9383350e+03
   6.6359840e+02   8.1394380e+03
   6.6408060e+02   8.2801910e+03
   6.6456270e+02   8.3629430e+03
   6.6504480e+02   8.4034570e+03
   6.6552690e+02   8.3694240e+03
   6.6600900e+02   8.2319120e+03
   6.6649110e+02   7.9757140e+03
   6.6697330e+02   7.7299480e+03
   6.6745540e+02   7.5057300e+03
   6.6793750e+02   7.2698550e+03
   6.6841960e+02   6.9891640e+03
   6.6890170e+02   6.6640080e+03
   6.6938390e+02   6.3347870e+03
   6.6986600e+02   6.0006590e+03
   6.7034810e+02   5.6888930e+03
   6.7083020e+02   5.4258970e+03
   6.7131230e+02   5.2120490e+03
   6.7179440e+02   5.0466040e+03
   6.7227660e+02   4.9459360e+03
   6.7275870e+02   4.8703120e+03
   6.7324080e+02   4.7932320e+03
   6.7372290e+02   4.7249980e+03
   6.7420500e+02   4.6788120e+03
   6.7468710e+02   4.6470460e+03
   6.7516930e+02   4.6453930e+03
   6.7565140e+02   4.6771830e+03
   6.7613350e+02   4.7433670e+03
   6.7661560e+02   4.8498490e+03
   6.7709770e+02   5.0033510e+03
   6.7757980e+02   5.1779750e+03
   6.7806200e+02   5.3592660e+03
   6.7854410e+02   5.5533030e+03
   6.7902620e+02   5.7930090e+03
   6.7950830e+02   6.0824930e+03
   6.7999040e+02   6.3845720e+03
   6.8047250e+02   6.6694800e+03
   6.8095470e+02   6.9459920e+03
   6.8143680e+02   7.2317950e+03
   6.8191890e+02   7.5260250e+03
   6.8240100e+02   7.8367380e+03
   6.8288310e+02   8.1688380e+03
   6.8336520e+02   8.5112010e+03
   6.8384740e+02   8.8514970e+03
   6.8432950e+02   9.2157040e+03
   6.8481160e+02   9.5331740e+03
   6.8529370e+02   9.7632940e+03
   6.8577580e+02   9.9556240e+03
   6.8625790e+02   1.0184810e+04
   6.8674010e+02   1.0508850e+04
   6.8722220e+02   1.0706140e+04
   6.8770430e+02   1.0720310e+04
   6.8818640e+02   1.0598570e+04
   6.8866850e+02   1.0458770e+04
   6.8915060e+02   1.0296990e+04
   6.8963280e+02   1.0050850e+04
   6.9011490e+02   9.6653600e+03
   6.9059700e+02   9.1937030e+03
   6.9107910e+02   8.6981860e+03
   6.9156120e+02   8.1794220e+03
   6.9204330e+02   7.6571480e+03
   6.9252550e+02   7.1275310e+03
   6.9300760e+02   6.5964610e+03
   6.9348970e+02   6.0526780e+03
   6.9397180e+02   5.4903810e+03
   6.9445390e+02   4.9857710e+03
   6.9493600e+02   4.5806800e+03
   6.9541820e+02   4.2072840e+03
   6.9590030e+02   3.8186140e+03
   6.9638240e+02   3.4007050e+03
   6.9686450e+02   3.0546990e+03
   6.9734660e+02   2.7912510e+03
   6.9782870e+02   2.5717910e+03
   6.9831090e+02   2.3566970e+03
   6.9879300e+02   2.1493000e+03
   6.9927510e+02   1.9707900e+03
   6.9975720e+02   1.8316490e+03
   7.0023930e+02   1.7031920e+03
   7.0072140e+02   1.5423040e+03
   7.0120360e+02   1.3749530e+03
   7.0168570e+02   1.2451470e+03
   7.0216780e+02   1.2074080e+03
   7.0264990e+02   1.1644980e+03
   7.0313200e+02   1.0679430e+03
   7.0361410e+02   9.3985550e+02
   7.0409630e+02   8.3545410e+02
   7.0457840e+02   7.6256250e+02
   7.0506050e+02   7.0438380e+02
   7.0554260e+02   6.6005370e+02
   7.0602470e+02   6.2741310e+02
   7.0650680e+02   5.9691500e+02
   7.0698900e+02   5.6770800e+02
   7.0747110e+02   5.4658500e+02
   7.0795320e+02   5.5283010e+02
   7.0843530e+02   5.6636230e+02
   7.0891740e+02   5.2366310e+02
   7.0939950e+02   4.3026370e+02
   7.0988170e+02   3.4325780e+02
   7.1036380e+02   3.2112790e+02
   7.1084590e+02   3.1723540e+02
   7.1132800e+02   2.8602930e+02
   7.1181010e+02   2.1762010e+02
   7.1229220e+02   1.6721580e+02
   7.1277440e+02   1.6270900e+02
   7.1325650e+02   1.7103120e+02
   7.1373860e+02   1.6982910e+02
   7.1422070e+02   1.5528610e+02
   7.1470280e+02   1.4061910e+02
   7.1518490e+02   1.2493850e+02
   7.1566710e+02   1.1048440e+02
   7.1614920e+02   1.0537890e+02
   7.1663130e+02   1.0812990e+02
   7.1711340e+02   8.7724610e+01
   7.1759550e+02   3.2440430e+01
   7.1807760e+02   2.9109380e+01
   7.1855980e+02   6.1032230e+01
   7.1904190e+02   7.2104490e+01
   7.1952400e+02   8.1159180e+01
   7.2000610e+02   1.1045510e+02
   7.2048820e+02   1.2047660e+02
   7.2097030e+02   6.5918950e+01
   7.2145250e+02   1.9716800e+01
   7.2193460e+02   5.8605470e+01
   7.2241670e+02   1.2266600e+01
   7.2289880e+02   5.9476560e+01
   7.2338090e+02   4.8746090e+01
   7.2386300e+02   3.0390630e+00
   7.2434520e+02   2.3926760e+01
   7.2482730e+02   8.1162110e+00
   7.2530940e+02   1.5888670e+00
   7.2579150e+02   3.9315430e+01
   7.2627360e+02   9.7299800e+01
   7.2675570e+02   1.1027830e+02
   7.2723790e+02   8.2382810e+01
   7.2772000e+02   4.5971680e+01
   7.2820210e+02   4.5673830e+00
   7.2868420e+02   2.4031250e+01
   7.2916630e+02   1.2945310e+01
   7.2964840e+02   4.1560550e+01
   7.3013060e+02   6.9812500e+01
   7.3061270e+02   1.8942380e+01
   7.3109480e+02   3.6279300e+01
   7.3157690e+02   5.2183590e+01
   7.3205900e+02   1.5346680e+01
   7.3254110e+02   3.6787110e+00
   7.3302330e+02   1.1806640e+00
   7.3350540e+02   1.0801760e+01
   7.3398750e+02   3.6123050e+01
   7.3446960e+02   6.7487300e+01
   7.3495170e+02   3.3470700e+01
   7.3543380e+02   8.6914060e+01
   7.3591600e+02   1.9462300e+02
   7.3639810e+02   1.5687400e+02
   7.3688020e+02   5.1611330e+01
   7.3736230e+02   1.0869140e+00
   7.3784440e+02   6.8314450e+01
   7.3832660e+02   1.2093070e+02
   7.3880870e+02   8.0108400e+01
   7.3929080e+02   1.0009770e+00
   7.3977290e+02   4.4088870e+01
   7.4025510e+02   2.7608400e+01
   7.4073720e+02   7.7402340e+00
   7.4121930e+02   8.3945310e+00
   7.4170140e+02   2.5210940e+01
   7.4218350e+02   5.7948240e+01
   7.4266560e+02   1.0676860e+02
   7.4314780e+02   1.3827930e+02
   7.4362990e+02   1.3423140e+02
   7.4411200e+02   1.1698340e+02
   7.4459410e+02   1.2156540e+02
   7.4507620e+02   1.4274020e+02
   7.4555830e+02   1.6454390e+02
   7.4604050e+02   1.7535940e+02
   7.4652260e+02   1.8792580e+02
   7.4700470e+02   2.1428030e+02
   7.4748680e+02   2.5061720e+02
   7.4796890e+02   2.7312400e+02
   7.4845100e+02   2.5832130e+02
   7.4893320e+02   2.5628810e+02
   7.4941530e+02   2.8943460e+02
   7.4989740e+02   3.5302340e+02
   7.5037950e+02   3.8603910e+02
   7.5086160e+02   3.8320900e+02
   7.5134380e+02   3.8962500e+02
   7.5182590e+02   4.5539360e+02
   7.5230800e+02   5.4672070e+02
   7.5279010e+02   5.7535840e+02
   7.5327220e+02   5.4218550e+02
   7.5375430e+02   5.0796290e+02
   7.5423650e+02   5.3012890e+02
   7.5471860e+02   5.5633500e+02
   7.5520070e+02   5.3725200e+02
   7.5568280e+02   4.5643850e+02
   7.5616490e+02   3.9644340e+02
   7.5664700e+02   3.9454880e+02
   7.5712920e+02   3.9582520e+02
   7.5761130e+02   3.6410840e+02
   7.5809340e+02   2.8759180e+02
   7.5857550e+02   2.3048540e+02
   7.5905760e+02   1.9287700e+02
   7.5953970e+02   1.7291990e+02
   7.6002190e+02   1.7624020e+02
   7.6050400e+02   1.9575100e+02
   7.6098610e+02   2.1341210e+02
   7.6146820e+02   2.2960840e+02
   7.6195030e+02   2.2512400e+02
   7.6243240e+02   1.6025200e+02
   7.6291460e+02   7.6375000e+01
   7.6339670e+02   2.2620120e+01
   7.6387880e+02   2.7944340e+01
   7.6436090e+02   3.6257810e+01
   7.6484300e+02   4.6364260e+01
   7.6532510e+02   5.0542970e+01
   7.6580730e+02   3.3725590e+01
   7.6628940e+02   1.7445310e+01
   7.6677150e+02   3.2012700e+01
   7.6725360e+02   1.1868160e+01
   7.6773570e+02   7.3636720e+01
   7.6821780e+02   8.0184570e+01
   7.6870000e+02   4.3542970e+01
   7.6918210e+02   1.2725590e+01
   7.6966420e+02   2.1386700e-01
   7.7014630e+02   4.2138670e+00
   7.7062840e+02   4.1516600e+01
   7.7111050e+02   9.3821290e+01
   7.7159270e+02   1.2658200e+02
   7.7207480e+02   1.2279300e+02
   7.7255690e+02   1.0493550e+02
   7.7303900e+02   6.9024410e+01
   7.7352110e+02   2.4802730e+01
   7.7400320e+02   3.0722660e+00
   7.7448540e+02   1.2748050e+01
   7.7496750e+02   1.2528320e+01
   7.7544960e+02   2.9619140e+00
   7.7593170e+02   1.2348630e+01
   7.7641380e+02   3.1475590e+01
   7.7689590e+02   5.2532230e+01
   7.7737810e+02   6.0703120e+01
   7.7786020e+02   3.3127930e+01
   7.7834230e+02   2.4023400e-01
   7.7882440e+02   9.3994140e+00
   7.7930650e+02   8.6132800e-01
   7.7978860e+02   1.3421880e+01
   7.8027080e+02   3.4209960e+01
   7.8075290e+02   4.2104490e+01
   7.8123500e+02   2.6673830e+01
   7.8171710e+02   5.6416020e+00
   7.8219920e+02   6.1181640e+00
   7.8268130e+02   3.4130860e+01
   7.8316350e+02   7.0470700e+01
   7.8364560e+02   7.0346680e+01
   7.8412770e+02   5.0203120e+01
   7.8460980e+02   7.8358400e+01
   7.8509190e+02   1.4811230e+02
   7.8557400e+02   1.9471680e+02
   7.8605620e+02   1.4923540e+02
   7.8653830e+02   8.1928710e+01
   7.8702040e+02   5.7298830e+01
   7.8750250e+02   7.8867190e+01
   7.8798460e+02   9.3786130e+01
   7.8846670e+02   7.4023440e+01
   7.8894890e+02   5.8544920e+01
   7.8943100e+02   6.8681640e+01
   7.8991310e+02   1.0956640e+02
   7.9039520e+02   1.3773440e+02
   7.9087730e+02   1.5171880e+02
   7.9135940e+02   1.5434180e+02
   7.9184160e+02   1.3697070e+02
   7.9232370e+02   1.0963670e+02
   7.9280580e+02   1.1184180e+02
   7.9328790e+02   1.4432030e+02
   7.9377000e+02   1.6767770e+02
   7.9425210e+02   1.4080660e+02
   7.9473430e+02   1.0383400e+02
   7.9521640e+02   8.9269530e+01
   7.9569850e+02   1.0439650e+02
   7.9618060e+02   1.2968950e+02
   7.9666270e+02   1.7527340e+02
   7.9714480e+02   2.1625980e+02
   7.9762700e+02   2.3117580e+02
   7.9810910e+02   2.1912890e+02
   7.9859120e+02   2.2131450e+02
   7.9907330e+02   2.4020310e+02
   7.9955540e+02   2.5763670e+02
   8.0003750e+02   2.5044340e+02
   8.0051970e+02   2.3109570e+02
   8.0100180e+02   2.2821090e+02
   8.0148390e+02   2.4879100e+02
   8.0196600e+02   2.5829300e+02
   8.0244810e+02   2.0761330e+02
   8.0293020e+02   1.5409770e+02
   8.0341240e+02   1.5056640e+02
   8.0389450e+02   2.4306250e+02
   8.0437660e+02   2.9758590e+02
   8.0485870e+02   2.9889060e+02
   8.0534080e+02   2.8229100e+02
   8.0582290e+02   2.7523240e+02
   8.0630510e+02   2.7775200e+02
   8.0678720e+02   3.0017770e+02
   8.0726930e+02   3.4673440e+02
   8.0775140e+02   3.9329690e+02
   8.0823350e+02   4.1316990e+02
   8.0871560e+02   4.1794730e+02
   8.0919780e+02   4.2658790e+02
   8.0967990e+02   4.4698440e+02
   8.1016200e+02   4.5796880e+02
   8.1064410e+02   4.4175000e+02
   8.1112620e+02   4.1693360e+02
   8.1160830e+02   4.0100200e+02
   8.1209050e+02   3.9153910e+02
   8.1257260e+02   4.0134180e+02
   8.1305470e+02   4.4203710e+02
   8.1353680e+02   4.7981840e+02
   8.1401890e+02   4.6180660e+02
   8.1450100e+02   4.0028120e+02
   8.1498320e+02   3.7394530e+02
   8.1546530e+02   4.0305860e+02
   8.1594740e+02   4.3149800e+02
   8.1642950e+02   3.9253520e+02
   8.1691160e+02   3.2870900e+02
   8.1739370e+02   2.9575200e+02
   8.1787590e+02   3.3335350e+02
   8.1835800e+02   3.5124020e+02
   8.1884010e+02   3.0523240e+02
   8.1932220e+02   2.5015230e+02
   8.1980430e+02   2.4063280e+02
   8.2028640e+02   2.9069530e+02
   8.2076860e+02   3.1521680e+02
   8.2125070e+02   3.0326560e+02
   8.2173280e+02   2.7829490e+02
   8.2221490e+02   2.6916020e+02
   8.2269700e+02   2.7172850e+02
   8.2317910e+02   2.7778520e+02
   8.2366130e+02   2.8516600e+02
   8.2414340e+02   2.7982810e+02
   8.2462550e+02   2.4641210e+02
   8.2510760e+02   2.0899220e+02
   8.2558970e+02   1.8702340e+02
   8.2607180e+02   1.8257420e+02
   8.2655400e+02   1.9578710e+02
   8.2703610e+02   2.3393750e+02
   8.2751820e+02   2.7987110e+02
   8.2800030e+02   3.1802340e+02
   8.2848240e+02   3.4745120e+02
   8.2896450e+02   3.5412110e+02
   8.2944670e+02   3.3262700e+02
   8.2992880e+02   3.0106250e+02
   8.3041090e+02   2.7374410e+02
   8.3089300e+02   2.5211910e+02
   8.3137510e+02   2.3804100e+02
   8.3185720e+02   2.3202930e+02
   8.3233940e+02   2.3165820e+02
   8.3282150e+02   2.4303120e+02
   8.3330360e+02   2.5754100e+02
   8.3378570e+02   2.6348050e+02
   8.3426780e+02   2.4944530e+02
   8.3474990e+02   2.5784770e+02
   8.3523210e+02   2.9870900e+02
   8.3571420e+02   3.4655080e+02
   8.3619630e+02   3.6151760e+02
   8.3667840e+02   3.5503120e+02
   8.3716050e+02   3.7476560e+02
   8.3764260e+02   4.3496880e+02
   8.3812480e+02   4.9490620e+02
   8.3860690e+02   5.1618360e+02
   8.3908900e+02   5.2326170e+02
   8.3957110e+02   5.4233010e+02
   8.4005320e+02   5.8554690e+02
   8.4053530e+02   6.2951170e+02
   8.4101750e+02   6.6388090e+02
   8.4149960e+02   7.0696090e+02
   8.4198170e+02   7.8851170e+02
   8.4246380e+02   9.1215230e+02
   8.4294590e+02   9.8479880e+02
   8.4342800e+02   9.8955660e+02
   8.4391020e+02   9.8673440e+02
   8.4439230e+02   1.0503380e+03
   8.4487440e+02   1.1464960e+03
   8.4535650e+02   1.2233630e+03
   8.4583860e+02   1.2708030e+03
   8.4632070e+02   1.3014260e+03
   8.4680290e+02   1.3046840e+03
   8.4728500e+02   1.3034040e+03
   8.4776710e+02   1.3206890e+03
   8.4824920e+02   1.3759710e+03
   8.4873130e+02   1.3975060e+03
   8.4921340e+02   1.3805250e+03
   8.4969560e+02   1.3413090e+03
   8.5017770e+02   1.2901480e+03
   8.5065980e+02   1.2299470e+03
   8.5114190e+02   1.1672480e+03
   8.5162400e+02   1.1011020e+03
   8.5210610e+02   1.0467810e+03
   8.5258830e+02   1.0168630e+03
   8.5307040e+02   1.0032770e+03
   8.5355250e+02   1.0013750e+03
   8.5403460e+02   1.0184280e+03
   8.5451670e+02   1.0215880e+03
   8.5499880e+02   1.0066130e+03
   8.5548100e+02   9.8110160e+02
   8.5596310e+02   9.4816020e+02
   8.5644520e+02   9.0753520e+02
   8.5692730e+02   8.6562110e+02
   8.5740940e+02   8.2191410e+02
   8.5789150e+02   7.8768950e+02
   8.5837370e+02   7.8966410e+02
   8.5885580e+02   7.9898240e+02
   8.5933790e+02   7.7103320e+02
   8.5982000e+02   6.9751370e+02
   8.6030210e+02   6.3920510e+02
   8.6078420e+02   6.3989060e+02
   8.6126640e+02   6.4510350e+02
   8.6174850e+02   6.2117970e+02
   8.6223060e+02   5.6317580e+02
   8.6271270e+02   5.2997660e+02
   8.6319480e+02   5.2854490e+02
   8.6367690e+02   5.2020700e+02
   8.6415910e+02   4.6640430e+02
   8.6464120e+02   3.8764840e+02
   8.6512330e+02   3.3132230e+02
   8.6560540e+02   2.9749610e+02
   8.6608750e+02   2.7122070e+02
   8.6656960e+02   2.4770510e+02
   8.6705180e+02   2.2485160e+02
   8.6753390e+02   1.9860740e+02
   8.6801600e+02   1.6833590e+02
   8.6849810e+02   1.5241210e+02
   8.6898020e+02   1.5842190e+02
   8.6946230e+02   1.6233200e+02
   8.6994450e+02   1.4828120e+02
   8.7042660e+02   1.2317190e+02
   8.7090870e+02   1.2686330e+02
   8.7139080e+02   1.5577540e+02
   8.7187290e+02   1.7136520e+02
   8.7235500e+02   1.2922460e+02
   8.7283720e+02   8.1000000e+01
   8.7331930e+02   7.7882810e+01
   8.7380140e+02   1.1142380e+02
   8.7428350e+02   1.2813670e+02
   8.7476560e+02   1.0720900e+02
   8.7524770e+02   7.6943360e+01
   8.7572990e+02   3.7687500e+01
   8.7621200e+02   4.2421880e+00
   8.7669410e+02   2.4384770e+01
   8.7717620e+02   2.2777340e+01
   8.7765830e+02   9.8125000e+00
   8.7814040e+02   2.0433590e+01
   8.7862260e+02   4.8716800e+01
   8.7910470e+02   4.7931640e+01
   8.7958690e+02   2.4490230e+01
   8.8006900e+02   4.9121090e+00
   8.8055110e+02   6.4611330e+01
   8.8103320e+02   9.3384770e+01
   8.8151530e+02   4.3195310e+01
   8.8199740e+02   3.9656250e+01
   8.8247960e+02   5.3853520e+01
   8.8296170e+02   1.7019530e+01
   8.8344380e+02   6.1300780e+01
   8.8392590e+02   4.5367190e+01
   8.8440800e+02   5.6992190e+00
   8.8489010e+02   6.5625000e-01
   8.8537230e+02   1.7128910e+01
   8.8585440e+02   2.4712890e+01
   8.8633650e+02   1.1832030e+01
   8.8681860e+02   1.0240230e+01
   8.8730070e+02   4.8908200e+01
   8.8778280e+02   8.8492190e+01
   8.8826500e+02   1.0605860e+02
   8.8874710e+02   9.1033200e+01
   8.8922920e+02   8.3044920e+01
   8.8971130e+02   8.8984380e+01
   8.9019340e+02   9.4398440e+01
   8.9067550e+02   6.6267580e+01
   8.9115770e+02   2.1791020e+01
   8.9163980e+02   2.3998050e+01
   8.9212190e+02   9.5615230e+01
   8.9260400e+02   1.5650980e+02
   8.9308610e+02   1.2035550e+02
   8.9356820e+02   6.5367190e+01
   8.9405040e+02   7.3302730e+01
   8.9453250e+02   2.0851760e+02
   8.9501460e+02   2.5238870e+02
   8.9549670e+02   1.6473240e+02
   8.9597880e+02   6.0039060e+01
   8.9646090e+02   4.3558590e+01
   8.9694310e+02   9.9552730e+01
   8.9742520e+02   1.3055080e+02
   8.9790730e+02   1.3081840e+02
   8.9838940e+02   1.2030660e+02
   8.9887150e+02   1.1125590e+02
   8.9935360e+02   9.8771480e+01
   8.9983580e+02   7.4376950e+01
   9.0031790e+02   3.8664060e+01
   9.0080000e+02   1.6250000e+01
   9.0128210e+02   3.4472660e+00
   9.0176420e+02   7.7753910e+00
   9.0224630e+02   4.6330080e+01
   9.0272850e+02   1.0985350e+02
   9.0321060e+02   1.1726370e+02
   9.0369270e+02   7.0664060e+01
   9.0417480e+02   2.7775390e+01
   9.0465690e+02   2.8173830e+01
   9.0513900e+02   4.5503910e+01
   9.0562120e+02   5.5529300e+01
   9.0610330e+02   5.9089840e+01
   9.0658540e+02   6.3683590e+01
   9.0706750e+02   7.9101560e+01
   9.0754960e+02   8.6263670e+01
   9.0803170e+02   7.4789060e+01
   9.0851390e+02   5.3369140e+01
   9.0899600e+02   4.9925780e+01
   9.0947810e+02   6.4535160e+01
   9.0996020e+02   7.8992190e+01
   9.1044230e+02   8.5875000e+01
   9.1092440e+02   9.1029300e+01
   9.1140660e+02   9.8873050e+01
   9.1188870e+02   1.1048240e+02
   9.1237080e+02   1.2806250e+02
   9.1285290e+02   1.5509180e+02
   9.1333500e+02   1.8516800e+02
   9.1381710e+02   2.2498630e+02
   9.1429930e+02   2.6517970e+02
   9.1478140e+02   2.8096090e+02
   9.1526350e+02   2.6793360e+02
   9.1574560e+02   2.7298050e+02
   9.1622770e+02   3.0481250e+02
   9.1670980e+02   3.5178710e+02
   9.1719200e+02   4.2512500e+02
   9.1767410e+02   4.9443160e+02
   9.1815620e+02   5.0405470e+02
   9.1863830e+02   4.1910740e+02
   9.1912040e+02   3.6024800e+02
   9.1960250e+02   3.7129100e+02
   9.2008470e+02   4.1587110e+02
   9.2056680e+02   4.7801950e+02
   9.2104890e+02   5.6471680e+02
   9.2153100e+02   6.1474610e+02
   9.2201310e+02   6.2396090e+02
   9.2249520e+02   6.2964840e+02
   9.2297740e+02   6.6840230e+02
   9.2345950e+02   7.1947850e+02
   9.2394160e+02   7.4478120e+02
   9.2442370e+02   7.4497460e+02
   9.2490580e+02   7.6355860e+02
   9.2538790e+02   8.4728320e+02
   9.2587010e+02   9.2304690e+02
   9.2635220e+02   9.5913870e+02
   9.2683430e+02   9.6021290e+02
   9.2731640e+02   9.6304490e+02
   9.2779850e+02   9.6853910e+02
   9.2828060e+02   9.6823240e+02
   9.2876280e+02   9.5792580e+02
   9.2924490e+02   9.3989840e+02
   9.2972700e+02   9.1447270e+02
   9.3020910e+02   8.8415820e+02
   9.3069120e+02   8.5515230e+02
   9.3117330e+02   8.3469920e+02
   9.3165550e+02   8.1047460e+02
   9.3213760e+02   7.6350200e+02
   9.3261970e+02   7.1722850e+02
   9.3310180e+02   7.1958980e+02
   9.3358390e+02   7.7975780e+02
   9.3406600e+02   8.1654490e+02
   9.3454820e+02   8.1316600e+02
   9.3503030e+02   7.9076950e+02
   9.3551240e+02   7.7023050e+02
   9.3599450e+02   7.5133790e+02
   9.3647660e+02   7.3245700e+02
   9.3695870e+02   7.1333790e+02
   9.3744090e+02   6.9232030e+02
   9.3792300e+02   6.7147850e+02
   9.3840510e+02   6.4210350e+02
   9.3888720e+02   5.9869730e+02
   9.3936930e+02   5.4101170e+02
   9.3985140e+02   5.0960160e+02
   9.4033360e+02   5.0537110e+02
   9.4081570e+02   4.9091990e+02
   9.4129780e+02   4.1318950e+02
   9.4177990e+02   3.2129690e+02
   9.4226200e+02   2.9605470e+02
   9.4274410e+02   3.3507230e+02
   9.4322630e+02   3.4932030e+02
   9.4370840e+02   2.7588280e+02
   9.4419050e+02   2.0308980e+02
   9.4467260e+02   1.6585940e+02
   9.4515470e+02   1.5907230e+02
   9.4563680e+02   1.6108790e+02
   9.4611900e+02   1.7340040e+02
   9.4660110e+02   1.6381840e+02
   9.4708320e+02   9.5380860e+01
   9.4756530e+02   2.2150390e+01
   9.4804740e+02   2.8546880e+01
   9.4852950e+02   8.5763670e+01
   9.4901170e+02   1.2655660e+02
   9.4949380e+02   1.2972850e+02
   9.4997590e+02   1.1078910e+02
   9.5045800e+02   5.3929690e+01
   9.5094010e+02   8.8964840e+00
   9.5142220e+02   2.3578120e+01
   9.5190440e+02   1.0828120e+01
   9.5238650e+02   3.8587890e+01
   9.5286860e+02   5.1917970e+01
   9.5335070e+02   5.1664060e+01
   9.5383280e+02   2.9218750e+01
   9.5431490e+02   1.9492190e+00
   9.5479710e+02   2.6265620e+01
   9.5527920e+02   4.2611330e+01
   9.5576130e+02   4.3462890e+01
   9.5624340e+02   9.4628910e+00
   9.5672550e+02   1.7634770e+01
   9.5720760e+02   4.4316410e+00
   9.5768980e+02   4.7158200e+01
   9.5817190e+02   6.1593750e+01
   9.5865400e+02   3.9626950e+01
   9.5913610e+02   1.0701170e+01
   9.5961820e+02   1.6091800e+01
   9.6010030e+02   3.4529300e+01
   9.6058250e+02   2.9898440e+01
   9.6106460e+02   7.1523440e+00
   9.6154670e+02   1.4082030e+00
   9.6202880e+02   2.5333980e+01
   9.6251090e+02   4.2388670e+01
   9.6299300e+02   3.7085940e+01
   9.6347520e+02   1.7349610e+01
   9.6395730e+02   2.0312500e+00
   9.6443940e+02   1.9396480e+01
   9.6492150e+02   2.4207030e+01
   9.6540360e+02   9.3574220e+00
   9.6588570e+02   1.1679690e+01
   9.6636790e+02   3.4955080e+01
   9.6685000e+02   5.5009770e+01
   9.6733210e+02   6.4585940e+01
   9.6781420e+02   5.8939450e+01
   9.6829630e+02   4.7248050e+01
   9.6877840e+02   2.4257810e+01
   9.6926060e+02   5.9335940e+00
   9.6974270e+02   2.1865230e+01
   9.7022480e+02   5.6568360e+01
   9.7070690e+02   4.2875000e+01
   9.7118900e+02   2.3484380e+01
   9.7167110e+02   7.6875000e+01
   9.7215330e+02   6.6507810e+01
   9.7263540e+02   3.4662110e+01
   9.7311750e+02   1.0210940e+01
   9.7359960e+02   6.1777340e+00
   9.7408170e+02   4.5718750e+01
   9.7456380e+02   1.2006450e+02
   9.7504600e+02   1.7532420e+02
   9.7552810e+02   1.8333200e+02
   9.7601020e+02   1.6406450e+02
   9.7649230e+02   1.6081050e+02
   9.7697440e+02   1.6666020e+02
   9.7745650e+02   1.6134770e+02
   9.7793870e+02   1.1079490e+02
   9.7842080e+02   7.7117190e+01
   9.7890290e+02   9.1093750e+01
   9.7938500e+02   1.3040620e+02
   9.7986710e+02   1.6706050e+02
   9.8034920e+02   2.0021090e+02
   9.8083140e+02   2.3696480e+02
   9.8131350e+02   2.8086720e+02
   9.8179560e+02   3.1626760e+02
   9.8227770e+02   3.2948830e+02
   9.8275980e+02   3.2228320e+02
   9.8324190e+02   2.8608400e+02
   9.8372410e+02   2.1261910e+02
   9.8420620e+02   1.7196090e+02
   9.8468830e+02   2.0659570e+02
   9.8517040e+02   2.5884770e+02
   9.8565250e+02   3.1102340e+02
   9.8613460e+02   3.6103710e+02
   9.8661680e+02   3.7609960e+02
   9.8709890e+02   3.5779490e+02
   9.8758100e+02   3.5634960e+02
   9.8806310e+02   4.2483790e+02
   9.8854520e+02   5.0321480e+02
   9.8902730e+02   5.2563670e+02
   9.8950950e+02   5.1281640e+02
   9.8999160e+02   5.1783200e+02
   9.9047370e+02   5.6048630e+02
   9.9095580e+02   6.0640620e+02
   9.9143790e+02   6.4809570e+02
   9.9192000e+02   6.9575590e+02
   9.9240220e+02   7.7778710e+02
   9.9288430e+02   8.8148630e+02
   9.9336640e+02   9.4842190e+02
   9.9384850e+02   9.6062700e+02
   9.9433060e+02   9.7720120e+02
   9.9481270e+02   1.0531430e+03
   9.9529490e+02   1.1417730e+03
   9.9577700e+02   1.1882520e+03
   9.9625910e+02   1.1734900e+03
   9.9674120e+02   1.2514750e+03
   9.9722330e+02   1.4464360e+03
   9.9770540e+02   1.6427480e+03
   9.9818760e+02   1.7559510e+03
   9.9866970e+02   1.8264510e+03
   9.9915180e+02   1.9364390e+03
   9.9963390e+02   2.0846950e+03
   1.0001160e+03   2.2665390e+03
   1.0005980e+03   2.5092360e+03
   1.0010800e+03   2.7528650e+03
   1.0015620e+03   2.9569840e+03
   1.0020440e+03   3.1595120e+03
   1.0025270e+03   3.4417620e+03
   1.0030090e+03   3.8062230e+03
   1.0034910e+03   4.1822520e+03
   1.0039730e+03   4.5487250e+03
   1.0044550e+03   4.9301520e+03
   1.0049370e+03   5.3566210e+03
   1.0054190e+03   5.8060530e+03
   1.0059010e+03   6.2396330e+03
   1.0063840e+03   6.6369240e+03
   1.0068660e+03   7.0754380e+03
   1.0073480e+03   7.5821410e+03
   1.0078300e+03   8.0972460e+03
   1.0083120e+03   8.5901720e+03
   1.0087940e+03   9.0602210e+03
   1.0092760e+03   9.5412640e+03
   1.0097580e+03   1.0025650e+04
   1.0102400e+03   1.0443820e+04
   1.0107230e+03   1.0751060e+04
   1.0112050e+03   1.0984650e+04
   1.0116870e+03   1.1195420e+04
   1.0121690e+03   1.1343010e+04
   1.0126510e+03   1.1329090e+04
   1.0131330e+03   1.1118610e+04
   1.0136150e+03   1.0857260e+04
   1.0140970e+03   1.0575140e+04
   1.0145800e+03   1.0230580e+04
   1.0150620e+03   9.7289080e+03
   1.0155440e+03   9.1374140e+03
   1.0160260e+03   8.5791840e+03
   1.0165080e+03   8.0782660e+03
   1.0169900e+03   7.6383460e+03
   1.0174720e+03   7.2692850e+03
   1.0179540e+03   6.9545740e+03
   1.0184360e+03   6.6843550e+03
   1.0189190e+03   6.4602810e+03
   1.0194010e+03   6.2801890e+03
   1.0198830e+03   6.1445570e+03
   1.0203650e+03   6.0255160e+03
   1.0208470e+03   5.8691450e+03
   1.0213290e+03   5.7526740e+03
   1.0218110e+03   5.7775700e+03
   1.0222930e+03   5.9008890e+03
   1.0227760e+03   6.0131330e+03
   1.0232580e+03   6.0570020e+03
   1.0237400e+03   6.1558300e+03
   1.0242220e+03   6.3278960e+03
   1.0247040e+03   6.5427890e+03
   1.0251860e+03   6.7599100e+03
   1.0256680e+03   6.9848750e+03
   1.0261500e+03   7.2306110e+03
   1.0266320e+03   7.5012540e+03
   1.0271150e+03   7.7805620e+03
   1.0275970e+03   8.0742640e+03
   1.0280790e+03   8.3584790e+03
   1.0285610e+03   8.6231760e+03
   1.0290430e+03   8.8680680e+03
   1.0295250e+03   9.0927710e+03
   1.0300070e+03   9.3003980e+03
   1.0304890e+03   9.4788070e+03
   1.0309720e+03   9.6239880e+03
   1.0314540e+03   9.7281150e+03
   1.0319360e+03   9.7829080e+03
   1.0324180e+03   9.7890140e+03
   1.0329000e+03   9.7466560e+03
   1.0333820e+03   9.6460490e+03
   1.0338640e+03   9.5011950e+03
   1.0343460e+03   9.3008030e+03
   1.0348280e+03   9.0810020e+03
   1.0353110e+03   8.8904800e+03
   1.0357930e+03   8.7204610e+03
   1.0362750e+03   8.5248160e+03
   1.0367570e+03   8.2981390e+03
   1.0372390e+03   8.0514080e+03
   1.0377210e+03   7.7964610e+03
   1.0382030e+03   7.5200470e+03
   1.0386850e+03   7.2000510e+03
   1.0391670e+03   6.8450700e+03
   1.0396500e+03   6.5352270e+03
   1.0401320e+03   6.2924380e+03
   1.0406140e+03   6.0036330e+03
   1.0410960e+03   5.6195430e+03
   1.0415780e+03   5.2008630e+03
   1.0420600e+03   4.8434360e+03
   1.0425420e+03   4.5320490e+03
   1.0430240e+03   4.2324020e+03
   1.0435070e+03   3.9263570e+03
   1.0439890e+03   3.6562380e+03
   1.0444710e+03   3.4421660e+03
   1.0449530e+03   3.2460180e+03
   1.0454350e+03   3.0326660e+03
   1.0459170e+03   2.8056780e+03
   1.0463990e+03   2.6024770e+03
   1.0468810e+03   2.4239120e+03
   1.0473640e+03   2.2547130e+03
   1.0478460e+03   2.0775390e+03
   1.0483280e+03   1.9126600e+03
   1.0488100e+03   1.7745760e+03
   1.0492920e+03   1.6621580e+03
   1.0497740e+03   1.5645250e+03
   1.0502560e+03   1.4881660e+03
   1.0507380e+03   1.3986250e+03
   1.0512200e+03   1.2806700e+03
   1.0517030e+03   1.1698090e+03
   1.0521850e+03   1.1231540e+03
   1.0526670e+03   1.1196840e+03
   1.0531490e+03   1.1289260e+03
   1.0536310e+03   1.1491370e+03
   1.0541130e+03   1.1612320e+03
   1.0545950e+03   1.1508630e+03
   1.0550770e+03   1.1418180e+03
   1.0555590e+03   1.1465510e+03
   1.0560420e+03   1.1631860e+03
   1.0565240e+03   1.1857950e+03
   1.0570060e+03   1.2118980e+03
   1.0574880e+03   1.2212700e+03
   1.0579700e+03   1.1898750e+03
   1.0584520e+03   1.1517010e+03
   1.0589340e+03   1.1403930e+03
   1.0594160e+03   1.1323690e+03
   1.0598990e+03   1.0807620e+03
   1.0603810e+03   9.6699410e+02
   1.0608630e+03   8.7522660e+02
   1.0613450e+03   8.1498830e+02
   1.0618270e+03   7.6464840e+02
   1.0623090e+03   6.9453120e+02
   1.0627910e+03   6.2241800e+02
   1.0632730e+03   5.8558200e+02
   1.0637550e+03   5.8517770e+02
   1.0642380e+03   5.5980660e+02
   1.0647200e+03   4.6339840e+02
   1.0652020e+03   3.7731450e+02
   1.0656840e+03   3.2968750e+02
   1.0661660e+03   3.0587110e+02
   1.0666480e+03   2.6537300e+02
   1.0671300e+03   2.1222070e+02
   1.0676120e+03   1.6011130e+02
   1.0680940e+03   1.0750200e+02
   1.0685770e+03   7.1449220e+01
   1.0690590e+03   7.8597660e+01
   1.0695410e+03   9.5933590e+01
   1.0700230e+03   8.7103520e+01
   1.0705050e+03   4.1925780e+01
   1.0709870e+03   3.3353520e+01
   1.0714690e+03   6.5078120e+01
   1.0719510e+03   9.6488280e+01
   1.0724340e+03   1.0248050e+02
   1.0729160e+03   9.0779300e+01
   1.0733980e+03   5.4906250e+01
   1.0738800e+03   7.5898440e+00
   1.0743620e+03   7.2421880e+00
   1.0748440e+03   5.3470700e+01
   1.0753260e+03   8.9117190e+01
   1.0758080e+03   8.3585940e+01
   1.0762910e+03   5.6078120e+01
   1.0767730e+03   2.8222660e+01
   1.0772550e+03   1.2910160e+00
   1.0777370e+03   2.6210940e+01
   1.0782190e+03   5.4843750e+01
   1.0787010e+03   5.9283200e+01
   1.0791830e+03   1.1128910e+01
   1.0796650e+03   6.4507810e+01
   1.0801470e+03   4.9824220e+01
   1.0806300e+03   1.7486330e+01
   1.0811120e+03   4.3982420e+01
   1.0815940e+03   3.0878910e+01
   1.0820760e+03   1.1164060e+01
   1.0825580e+03   2.2265600e-01
   1.0830400e+03   1.8789060e+00
   1.0835220e+03   8.5605470e+00
   1.0840040e+03   2.2894530e+01
   1.0844860e+03   3.0273440e+01
   1.0849690e+03   3.4123050e+01
   1.0854510e+03   1.2087890e+01
   1.0859330e+03   4.7203120e+01
   1.0864150e+03   8.8910160e+01
   1.0868970e+03   4.5445310e+01
   1.0873790e+03   3.0859380e+01
   1.0878610e+03   4.0041020e+01
   1.0883430e+03   3.8789060e+00
   1.0888260e+03   3.3373050e+01
   1.0893080e+03   9.4746090e+00
   1.0897900e+03   1.3171880e+01
   1.0902720e+03   2.9406250e+01
   1.0907540e+03   3.4130860e+01
   1.0912360e+03   9.1992190e+00
   1.0917180e+03   3.6199220e+01
   1.0922000e+03   5.4408200e+01
   1.0926820e+03   3.5904300e+01
   1.0931650e+03   2.4003910e+01
   1.0936470e+03   5.6146480e+01
   1.0941290e+03   9.4298830e+01
   1.0946110e+03   1.1733200e+02
   1.0950930e+03   1.2559180e+02
   1.0955750e+03   1.1459380e+02
   1.0960570e+03   8.2777340e+01
   1.0965390e+03   7.3226560e+01
   1.0970220e+03   1.1251760e+02
   1.0975040e+03   1.5934570e+02
   1.0979860e+03   1.7019340e+02
   1.0984680e+03   1.6242190e+02
   1.0989500e+03   1.5868550e+02
   1.0994320e+03   1.6000590e+02
   1.0999140e+03   1.7468160e+02
   1.1003960e+03   2.0676170e+02
   1.1008790e+03   2.3805080e+02
   1.1013610e+03   2.5344140e+02
   1.1018430e+03   2.5974410e+02
   1.1023250e+03   2.7520700e+02
   1.1028070e+03   2.9467770e+02
   1.1032890e+03   2.9832230e+02
   1.1037710e+03   2.4462890e+02
   1.1042530e+03   2.2395900e+02
   1.1047350e+03   2.6620900e+02
   1.1052180e+03   3.2728520e+02
   1.1057000e+03   3.3477540e+02
   1.1061820e+03   3.0452340e+02
   1.1066640e+03   3.1873830e+02
   1.1071460e+03   3.8734770e+02
   1.1076280e+03   4.5220510e+02
   1.1081100e+03   4.8278710e+02
   1.1085920e+03   4.9477540e+02
   1.1090740e+03   4.9412300e+02
   1.1095570e+03   4.8275390e+02
   1.1100390e+03   4.6067380e+02
   1.1105210e+03   4.2742190e+02
   1.1110030e+03   4.0907810e+02
   1.1114850e+03   4.1539060e+02
   1.1119670e+03   4.3268950e+02
   1.1124490e+03   4.5859380e+02
   1.1129310e+03   4.8219140e+02
   1.1134140e+03   4.9196290e+02
   1.1138960e+03   4.8639260e+02
   1.1143780e+03   4.6534380e+02
   1.1148600e+03   4.2499220e+02
   1.1153420e+03   3.8605470e+02
   1.1158240e+03   3.6372070e+02
   1.1163060e+03   3.4689060e+02
   1.1167880e+03   3.1117970e+02
   1.1172710e+03   2.6802540e+02
   1.1177530e+03   2.4255270e+02
   1.1182350e+03   2.6525590e+02
   1.1187170e+03   2.7230270e+02
   1.1191990e+03   2.5558590e+02
   1.1196810e+03   2.3052540e+02
   1.1201630e+03   2.1327540e+02
   1.1206450e+03   1.9997460e+02
   1.1211270e+03   1.7234960e+02
   1.1216090e+03   1.3275590e+02
   1.1220920e+03   1.0971880e+02
   1.1225740e+03   1.3097460e+02
   1.1230560e+03   1.5618360e+02
   1.1235380e+03   1.7812300e+02
   1.1240200e+03   1.9096480e+02
   1.1245020e+03   1.7422270e+02
   1.1249840e+03   1.3318950e+02
   1.1254660e+03   1.1938870e+02
   1.1259490e+03   1.4648240e+02
   1.1264310e+03   1.6386330e+02
   1.1269130e+03   1.1887110e+02
   1.1273950e+03   6.5757810e+01
   1.1278770e+03   4.3318360e+01
   1.1283590e+03   4.9087890e+01
   1.1288410e+03   6.9851560e+01
   1.1293230e+03   1.0765430e+02
   1.1298060e+03   1.2175980e+02
   1.1302880e+03   8.8705080e+01
   1.1307700e+03   4.4974610e+01
   1.1312520e+03   2.1052730e+01
   1.1317340e+03   1.1914060e+01
   1.1322160e+03   1.3677730e+01
   1.1326980e+03   3.1974610e+01
   1.1331800e+03   3.7513670e+01
   1.1336620e+03   2.8091800e+01
   1.1341450e+03   1.4910160e+01
   1.1346270e+03   4.1386720e+00
   1.1351090e+03   4.7773440e+00
   1.1355910e+03   2.3619140e+01
   1.1360730e+03   4.3353520e+01
   1.1365550e+03   3.8269530e+01
   1.1370370e+03   3.8693360e+01
   1.1375190e+03   8.5451170e+01
   1.1380010e+03   9.3685550e+01
   1.1384840e+03   7.5878910e+01
   1.1389660e+03   1.8099610e+01
   1.1394480e+03   4.6869140e+01
   1.1399300e+03   2.5841800e+01
   1.1404120e+03   7.4664060e+01
   1.1408940e+03   1.5631050e+02
   1.1413760e+03   1.7549410e+02
   1.1418580e+03   1.7073630e+02
   1.1423410e+03   1.4946090e+02
   1.1428230e+03   1.1821680e+02
   1.1433050e+03   7.9236330e+01
   1.1437870e+03   4.1496090e+01
   1.1442690e+03   4.1062500e+01
   1.1447510e+03   8.5978520e+01
   1.1452330e+03   1.2035350e+02
   1.1457150e+03   9.4931640e+01
   1.1461980e+03   8.0343750e+01
   1.1466800e+03   1.2348050e+02
   1.1471620e+03   2.0463870e+02
   1.1476440e+03   2.1489450e+02
   1.1481260e+03   1.6203520e+02
   1.1486080e+03   1.4337500e+02
   1.1490900e+03   2.0720310e+02
   1.1495720e+03   2.7425590e+02
   1.1500540e+03   2.8899020e+02
   1.1505360e+03   2.7452150e+02
   1.1510190e+03   2.5213280e+02
   1.1515010e+03   2.2003710e+02
   1.1519830e+03   1.8376370e+02
   1.1524650e+03   1.4431250e+02
   1.1529470e+03   1.2581640e+02
   1.1534290e+03   1.5420700e+02
   1.1539110e+03   1.9447270e+02
   1.1543930e+03   2.1126560e+02
   1.1548760e+03   2.1749610e+02
   1.1553580e+03   2.3876170e+02
   1.1558400e+03   2.9396090e+02
   1.1563220e+03   3.0636520e+02
   1.1568040e+03   2.6774410e+02
   1.1572860e+03   2.2428520e+02
   1.1577680e+03   2.1675780e+02
   1.1582500e+03   2.2397660e+02
   1.1587330e+03   2.1957420e+02
   1.1592150e+03   2.0620510e+02
   1.1596970e+03   1.9669730e+02
   1.1601790e+03   1.8781450e+02
   1.1606610e+03   2.0043360e+02
   1.1611430e+03   2.4600980e+02
   1.1616250e+03   2.8792380e+02
   1.1621070e+03   2.7865040e+02
   1.1625890e+03   2.3987500e+02
   1.1630720e+03   2.0291800e+02
   1.1635540e+03   1.7107030e+02
   1.1640360e+03   1.5050390e+02
   1.1645180e+03   1.5507230e+02
   1.1650000e+03   1.4913280e+02
   1.1654820e+03   1.1914840e+02
   1.1659640e+03   8.2693360e+01
   1.1664460e+03   6.7650390e+01
   1.1669280e+03   7.1990230e+01
   1.1674110e+03   9.9058590e+01
   1.1678930e+03   1.5595700e+02
   1.1683750e+03   1.8979880e+02
   1.1688570e+03   1.7025390e+02
   1.1693390e+03   1.4383590e+02
   1.1698210e+03   1.2614450e+02
   1.1703030e+03   1.1522460e+02
   1.1707850e+03   1.0308010e+02
   1.1712680e+03   9.2402340e+01
   1.1717500e+03   9.2550780e+01
   1.1722320e+03   1.0932420e+02
   1.1727140e+03   1.2974410e+02
   1.1731960e+03   1.6099220e+02
   1.1736780e+03   1.8107030e+02
   1.1741600e+03   1.6752150e+02
   1.1746420e+03   1.2941600e+02
   1.1751250e+03   1.4292770e+02
   1.1756070e+03   1.9736130e+02
   1.1760890e+03   2.2970510e+02
   1.1765710e+03   1.9847850e+02
   1.1770530e+03   1.5455270e+02
   1.1775350e+03   9.3039060e+01
   1.1780170e+03   5.0562500e+01
   1.1784990e+03   7.4287110e+01
   1.1789810e+03   1.6316990e+02
   1.1794640e+03   2.0277340e+02
   1.1799460e+03   1.9475390e+02
   1.1804280e+03   1.8693750e+02
   1.1809100e+03   2.1208400e+02
   1.1813920e+03   2.4310940e+02
   1.1818740e+03   2.7509380e+02
   1.1823560e+03   2.9915820e+02
   1.1828380e+03   3.0093160e+02
   1.1833200e+03   2.7985740e+02
   1.1838030e+03   2.5089450e+02
   1.1842850e+03   2.1483590e+02
   1.1847670e+03   1.8077150e+02
   1.1852490e+03   1.4118360e+02
   1.1857310e+03   1.1906640e+02
   1.1862130e+03   1.4688870e+02
   1.1866950e+03   2.0284570e+02
   1.1871770e+03   2.2912110e+02
   1.1876600e+03   2.2477730e+02
   1.1881420e+03   1.9716410e+02
   1.1886240e+03   1.4305860e+02
   1.1891060e+03   1.0390230e+02
   1.1895880e+03   1.3864060e+02
   1.1900700e+03   1.8500390e+02
   1.1905520e+03   1.9269920e+02
   1.1910340e+03   1.6307230e+02
   1.1915160e+03   1.1858590e+02
   1.1919990e+03   5.4421880e+01
   1.1924810e+03   2.3037110e+01
   1.1929630e+03   4.3289060e+01
   1.1934450e+03   7.5863280e+01
   1.1939270e+03   9.2867190e+01
   1.1944090e+03   9.6718750e+01
   1.1948910e+03   8.6849610e+01
   1.1953730e+03   6.0439450e+01
   1.1958550e+03   3.6191410e+01
   1.1963380e+03   1.3388670e+01
   1.1968200e+03   1.9140630e+00
   1.1973020e+03   9.3828130e+00
   1.1977840e+03   9.2402340e+00
   1.1982660e+03   1.0453120e+01
   1.1987480e+03   5.9785160e+00
   1.1992300e+03   2.5101560e+01
   1.1997120e+03   9.6712890e+01
   1.2001950e+03   1.0322070e+02
   1.2006770e+03   3.4939450e+01
   1.2011590e+03   3.1392580e+01
   1.2016410e+03   6.0632810e+01
   1.2021230e+03   5.9691410e+01
   1.2026050e+03   1.2912110e+01
   1.2030870e+03   5.0453120e+01
   1.2035690e+03   8.2302730e+01
   1.2040520e+03   7.1183590e+01
   1.2045340e+03   4.4890620e+01
   1.2050160e+03   1.7968750e+00
   1.2054980e+03   3.3320310e+01
   1.2059800e+03   1.0974610e+01
   1.2064620e+03   2.8042970e+01
   1.2069440e+03   4.7367190e+01
   1.2074260e+03   4.8966800e+01
   1.2079080e+03   3.2679690e+01
   1.2083910e+03   2.2072270e+01
   1.2088730e+03   2.5095700e+01
   1.2093550e+03   3.7544920e+01
   1.2098370e+03   9.6939450e+01
   1.2103190e+03   7.7138670e+01
   1.2108010e+03   3.5269530e+01
   1.2112830e+03   4.0357420e+01
   1.2117650e+03   8.0195310e+01
   1.2122470e+03   1.0551760e+02
   1.2127300e+03   1.1283200e+02
   1.2132120e+03   1.0146090e+02
   1.2136940e+03   6.6500000e+01
   1.2141760e+03   3.5960940e+01
   1.2146580e+03   4.9115230e+01
   1.2151400e+03   7.2429690e+01
   1.2156220e+03   5.7740230e+01
   1.2161040e+03   1.3615230e+01
   1.2165870e+03   5.9746090e+00
   1.2170690e+03   5.2968750e+01
   1.2175510e+03   8.2908200e+01
   1.2180330e+03   8.1167970e+01
   1.2185150e+03   7.3113280e+01
   1.2189970e+03   8.5916020e+01
   1.2194790e+03   1.0872460e+02
   1.2199610e+03   1.3350200e+02
   1.2204430e+03   1.5793360e+02
   1.2209260e+03   1.6848240e+02
   1.2214080e+03   1.6147660e+02
   1.2218900e+03   1.5357030e+02
   1.2223720e+03   1.4862890e+02
   1.2228540e+03   1.4401560e+02
   1.2233360e+03   1.4657030e+02
   1.2238180e+03   1.4133980e+02
   1.2243000e+03   9.9107420e+01
   1.2247820e+03   1.5681640e+01
   1.2252650e+03   1.7468750e+01
   1.2257470e+03   8.0976560e+00
   1.2262290e+03   4.6005860e+01
   1.2267110e+03   8.6574220e+01
   1.2271930e+03   1.2143160e+02
   1.2276750e+03   1.4072850e+02
   1.2281570e+03   1.4837110e+02
   1.2286390e+03   1.3958400e+02
   1.2291220e+03   1.1019920e+02
   1.2296040e+03   1.4528120e+02
   1.2300860e+03   2.6482420e+02
   1.2305680e+03   3.0826560e+02
   1.2310500e+03   1.7635740e+02
   1.2315320e+03   2.1166020e+01
   1.2320140e+03   1.8015620e+01
   1.2324960e+03   9.3908200e+01
   1.2329790e+03   1.6917580e+02
   1.2334610e+03   2.4066020e+02
   1.2339430e+03   2.5896480e+02
   1.2344250e+03   2.1837300e+02
   1.2349070e+03   1.8139060e+02
   1.2353890e+03   1.8671680e+02
   1.2358710e+03   1.9277730e+02
   1.2363530e+03   1.3392770e+02
   1.2368350e+03   6.4201170e+01
   1.2373180e+03   6.2689450e+01
   1.2378000e+03   1.4116020e+02
   1.2382820e+03   2.0904490e+02
   1.2387640e+03   2.6704100e+02
   1.2392460e+03   2.8778710e+02
   1.2397280e+03   2.3235940e+02
   1.2402100e+03   1.6254490e+02
   1.2406920e+03   1.1939840e+02
   1.2411750e+03   1.0025000e+02
   1.2416570e+03   1.0613280e+02
   1.2421390e+03   1.4528710e+02
   1.2426210e+03   1.3990430e+02
   1.2431030e+03   9.0482420e+01
   1.2435850e+03   5.9546880e+01
   1.2440670e+03   1.1979690e+02
   1.2445490e+03   1.7818160e+02
   1.2450310e+03   1.6103120e+02
   1.2455140e+03   1.0895900e+02
   1.2459960e+03   7.8169920e+01
   1.2464780e+03   6.9142580e+01
   1.2469600e+03   7.8488280e+01
   1.2474420e+03   1.0521090e+02
   1.2479240e+03   1.3155470e+02
   1.2484060e+03   1.4267580e+02
   1.2488880e+03   1.5351950e+02
   1.2493700e+03   1.8537300e+02
   1.2498530e+03   2.1321290e+02
   1.2503350e+03   1.9444730e+02
   1.2508170e+03   1.3268750e+02
   1.2512990e+03   1.1444530e+02
   1.2517810e+03   1.4087500e+02
   1.2522630e+03   1.7447270e+02
   1.2527450e+03   2.0478320e+02
   1.2532270e+03   2.1528520e+02
   1.2537100e+03   1.8589260e+02
   1.2541920e+03   1.4641800e+02
   1.2546740e+03   1.3655270e+02
   1.2551560e+03   1.4935940e+02
   1.2556380e+03   1.4809570e+02
   1.2561200e+03   1.4143750e+02
   1.2566020e+03   1.4424020e+02
   1.2570840e+03   1.6107420e+02
   1.2575670e+03   1.6548440e+02
   1.2580490e+03   1.5332420e+02
   1.2585310e+03   1.3912700e+02
   1.2590130e+03   1.4015230e+02
   1.2594950e+03   1.5411130e+02
   1.2599770e+03   1.7094340e+02
   1.2604590e+03   1.8355860e+02
   1.2609410e+03   1.8053320e+02
   1.2614230e+03   1.3437300e+02
   1.2619060e+03   9.7998050e+01
   1.2623880e+03   8.3732420e+01
   1.2628700e+03   8.4683590e+01
   1.2633520e+03   1.0251370e+02
   1.2638340e+03   1.2835160e+02
   1.2643160e+03   1.3259770e+02
   1.2647980e+03   1.1490230e+02
   1.2652800e+03   1.0118750e+02
   1.2657620e+03   9.6685550e+01
   1.2662450e+03   1.0362890e+02
   1.2667270e+03   1.2798240e+02
   1.2672090e+03   1.5010940e+02
   1.2676910e+03   1.3724220e+02
   1.2681730e+03   1.1221880e+02
   1.2686550e+03   9.4859380e+01
   1.2691370e+03   8.6773440e+01
   1.2696190e+03   8.5037110e+01
   1.2701020e+03   8.5732420e+01
   1.2705840e+03   9.7988280e+01
   1.2710660e+03   1.2362890e+02
   1.2715480e+03   1.6671680e+02
   1.2720300e+03   2.6466410e+02
   1.2725120e+03   3.5638090e+02
   1.2729940e+03   3.5062700e+02
   1.2734760e+03   2.4754690e+02
   1.2739580e+03   1.8604490e+02
   1.2744410e+03   1.7287110e+02
   1.2749230e+03   1.9335160e+02
   1.2754050e+03   2.5531640e+02
   1.2758870e+03   2.9899020e+02
   1.2763690e+03   2.3546480e+02
   1.2768510e+03   1.4403320e+02
   1.2773330e+03   9.9998050e+01
   1.2778150e+03   1.0058980e+02
   1.2782970e+03   1.0445120e+02
   1.2787800e+03   1.1214650e+02
   1.2792620e+03   1.2491020e+02
   1.2797440e+03   1.4441210e+02
   1.2802260e+03   1.5948630e+02
   1.2807080e+03   1.5335350e+02
   1.2811900e+03   1.4692380e+02
   1.2816720e+03   1.6240040e+02
   1.2821540e+03   1.8903120e+02
   1.2826370e+03   1.8311720e+02
   1.2831190e+03   1.4811720e+02
   1.2836010e+03   1.1133590e+02
   1.2840830e+03   7.5302730e+01
   1.2845650e+03   6.1089840e+01
   1.2850470e+03   1.1166210e+02
   1.2855290e+03   1.5256640e+02
   1.2860110e+03   1.4312500e+02
   1.2864940e+03   1.0253910e+02
   1.2869760e+03   8.4839840e+01
   1.2874580e+03   8.2648440e+01
   1.2879400e+03   6.3916020e+01
   1.2884220e+03   1.6089840e+01
   1.2889040e+03   4.0332030e+00
   1.2893860e+03   8.8851560e+01
   1.2898680e+03   1.6531250e+02
   1.2903500e+03   2.0248440e+02
   1.2908330e+03   2.0694920e+02
   1.2913150e+03   1.7128320e+02
   1.2917970e+03   1.1875390e+02
   1.2922790e+03   1.0131250e+02
   1.2927610e+03   1.3470310e+02
   1.2932430e+03   1.4220700e+02
   1.2937250e+03   1.0035350e+02
   1.2942070e+03   7.5421880e+01
   1.2946890e+03   9.6128910e+01
   1.2951720e+03   1.2686720e+02
   1.2956540e+03   9.7667970e+01
   1.2961360e+03   5.6527340e+01
   1.2966180e+03   8.2480470e+01
   1.2971000e+03   1.9516600e+02
   1.2975820e+03   2.2669920e+02
   1.2980640e+03   1.6398440e+02
   1.2985460e+03   1.0574410e+02
   1.2990290e+03   8.3953120e+01
   1.2995110e+03   7.1822270e+01
   1.2999930e+03   2.2937500e+01
   1.3004750e+03   1.5187500e+01
   1.3009570e+03   3.3093750e+01
   1.3014390e+03   1.4557030e+02
   1.3019210e+03   1.5419730e+02
   1.3024030e+03   6.3904300e+01
   1.3028850e+03   2.9142580e+01
   1.3033680e+03   1.0937300e+02
   1.3038500e+03   1.7807420e+02
   1.3043320e+03   1.2541990e+02
   1.3048140e+03   5.1978520e+01
   1.3052960e+03   4.0605470e+00
   1.3057780e+03   7.1289100e-01
   1.3062600e+03   1.0937500e-01
   1.3067420e+03   2.1718750e+00
   1.3072240e+03   5.3281250e+00
   1.3077070e+03   3.4902340e+00
   1.3081890e+03   2.3437999e-02
   1.3086710e+03   2.2703120e+01
   1.3091530e+03   0.0000000e+00
   1.5000000e+03   0.0000000e+00
