   1.0000000e+02   0.0000000e+00
   1.3282550e+02   0.0000000e+00
   1.3330760e+02   5.7617001e-02
   1.3378970e+02   6.1212160e+00
   1.3427180e+02   2.0593320e+01
   1.3475390e+02   3.6342290e+01
   1.3523600e+02   4.7941040e+01
   1.3571820e+02   5.6506840e+01
   1.3620030e+02   6.1510070e+01
   1.3668240e+02   6.3253360e+01
   1.3716450e+02   6.2249820e+01
   1.3764660e+02   6.8845640e+01
   1.3812870e+02   7.6572080e+01
   1.3861090e+02   7.2509520e+01
   1.3909300e+02   7.2546140e+01
   1.3957510e+02   7.5347050e+01
   1.4005720e+02   7.3470090e+01
   1.4053930e+02   6.2113220e+01
   1.4102140e+02   3.8020750e+01
   1.4150360e+02   1.8712100e+01
   1.4198570e+02   3.7669070e+00
   1.4246780e+02   6.3033450e+00
   1.4294990e+02   9.5906980e+00
   1.4343200e+02   1.7611690e+00
   1.4391410e+02   6.3042600e+00
   1.4439630e+02   8.9428710e+00
   1.4487840e+02   1.1042480e+00
   1.4536050e+02   2.4838870e+00
   1.4584260e+02   1.2526250e+00
   1.4632470e+02   1.0639650e+01
   1.4680680e+02   1.5268130e+01
   1.4728900e+02   1.1133850e+01
   1.4777110e+02   5.2983400e+00
   1.4825320e+02   2.2591550e+00
   1.4873530e+02   1.9879150e+00
   1.4921740e+02   4.5374150e+00
   1.4969950e+02   1.1120420e+01
   1.5018170e+02   2.2375490e+01
   1.5066380e+02   3.1577820e+01
   1.5114590e+02   3.6824100e+01
   1.5162800e+02   4.0747310e+01
   1.5211010e+02   4.5843630e+01
   1.5259220e+02   5.4757930e+01
   1.5307440e+02   6.2483580e+01
   1.5355650e+02   6.7311400e+01
   1.5403860e+02   6.7797790e+01
   1.5452070e+02   6.9908630e+01
   1.5500280e+02   7.6787960e+01
   1.5548490e+02   8.5432010e+01
   1.5596710e+02   9.1077880e+01
   1.5644920e+02   9.0729740e+01
   1.5693130e+02   8.8755980e+01
   1.5741340e+02   8.6851930e+01
   1.5789550e+02   8.4999210e+01
   1.5837760e+02   8.3705020e+01
   1.5885980e+02   8.4292180e+01
   1.5934190e+02   8.5768130e+01
   1.5982400e+02   8.5228520e+01
   1.6030610e+02   7.4473140e+01
   1.6078820e+02   6.5548710e+01
   1.6127040e+02   6.6988650e+01
   1.6175250e+02   9.3425720e+01
   1.6223460e+02   1.1680110e+02
   1.6271670e+02   1.2264860e+02
   1.6319880e+02   1.1344890e+02
   1.6368090e+02   1.0626220e+02
   1.6416310e+02   1.0876160e+02
   1.6464520e+02   1.1739250e+02
   1.6512730e+02   1.2864120e+02
   1.6560940e+02   1.4719020e+02
   1.6609150e+02   1.6340080e+02
   1.6657360e+02   1.6819460e+02
   1.6705580e+02   1.6107500e+02
   1.6753790e+02   1.5741060e+02
   1.6802000e+02   1.7132970e+02
   1.6850210e+02   1.9430900e+02
   1.6898420e+02   2.1333980e+02
   1.6946630e+02   2.1816240e+02
   1.6994850e+02   2.1901220e+02
   1.7043060e+02   2.2471250e+02
   1.7091270e+02   2.3620200e+02
   1.7139480e+02   2.5102670e+02
   1.7187690e+02   2.6800810e+02
   1.7235900e+02   2.8679610e+02
   1.7284120e+02   3.0645640e+02
   1.7332330e+02   3.2528810e+02
   1.7380540e+02   3.4490620e+02
   1.7428750e+02   3.6799910e+02
   1.7476960e+02   3.9646790e+02
   1.7525170e+02   4.2517090e+02
   1.7573390e+02   4.4626310e+02
   1.7621600e+02   4.6190840e+02
   1.7669810e+02   4.8077730e+02
   1.7718020e+02   5.1051180e+02
   1.7766230e+02   5.4756230e+02
   1.7814440e+02   5.8444920e+02
   1.7862660e+02   6.1889600e+02
   1.7910870e+02   6.5385140e+02
   1.7959080e+02   6.9185600e+02
   1.8007290e+02   7.3287940e+02
   1.8055500e+02   7.7954170e+02
   1.8103710e+02   8.3439950e+02
   1.8151930e+02   8.9661730e+02
   1.8200140e+02   9.6167130e+02
   1.8248350e+02   1.0280760e+03
   1.8296560e+02   1.0969980e+03
   1.8344770e+02   1.1728120e+03
   1.8392980e+02   1.2553350e+03
   1.8441200e+02   1.3428820e+03
   1.8489410e+02   1.4344750e+03
   1.8537620e+02   1.5304900e+03
   1.8585830e+02   1.6278710e+03
   1.8634040e+02   1.7284390e+03
   1.8682250e+02   1.8298740e+03
   1.8730470e+02   1.9251910e+03
   1.8778680e+02   2.0117730e+03
   1.8826890e+02   2.1012210e+03
   1.8875100e+02   2.2097670e+03
   1.8923310e+02   2.3388670e+03
   1.8971520e+02   2.4758610e+03
   1.9019740e+02   2.6135340e+03
   1.9067950e+02   2.7504010e+03
   1.9116160e+02   2.8818300e+03
   1.9164370e+02   3.0048340e+03
   1.9212580e+02   3.1280460e+03
   1.9260790e+02   3.2649360e+03
   1.9309010e+02   3.4175440e+03
   1.9357220e+02   3.5727890e+03
   1.9405430e+02   3.7219180e+03
   1.9453640e+02   3.8648020e+03
   1.9501850e+02   4.0172750e+03
   1.9550070e+02   4.1850320e+03
   1.9598280e+02   4.3576910e+03
   1.9646490e+02   4.5070660e+03
   1.9694700e+02   4.6338040e+03
   1.9742910e+02   4.7472940e+03
   1.9791120e+02   4.8565680e+03
   1.9839340e+02   4.9627120e+03
   1.9887550e+02   5.0484500e+03
   1.9935760e+02   5.1115290e+03
   1.9983970e+02   5.1524760e+03
   2.0032180e+02   5.1732310e+03
   2.0080390e+02   5.1740280e+03
   2.0128610e+02   5.1568940e+03
   2.0176820e+02   5.1267930e+03
   2.0225030e+02   5.0864980e+03
   2.0273240e+02   5.0097730e+03
   2.0321450e+02   4.8872190e+03
   2.0369660e+02   4.7234140e+03
   2.0417880e+02   4.5416450e+03
   2.0466090e+02   4.3368120e+03
   2.0514300e+02   4.1302950e+03
   2.0562510e+02   3.9473980e+03
   2.0610720e+02   3.7953410e+03
   2.0658930e+02   3.6343490e+03
   2.0707150e+02   3.4514710e+03
   2.0755360e+02   3.2490940e+03
   2.0803570e+02   3.0524100e+03
   2.0851780e+02   2.8592310e+03
   2.0899990e+02   2.6748140e+03
   2.0948200e+02   2.5010780e+03
   2.0996420e+02   2.3359710e+03
   2.1044630e+02   2.1886760e+03
   2.1092840e+02   2.0661980e+03
   2.1141050e+02   1.9723770e+03
   2.1189260e+02   1.8683250e+03
   2.1237470e+02   1.7466680e+03
   2.1285690e+02   1.6228450e+03
   2.1333900e+02   1.5179080e+03
   2.1382110e+02   1.4372980e+03
   2.1430320e+02   1.3644530e+03
   2.1478530e+02   1.2951480e+03
   2.1526740e+02   1.2312570e+03
   2.1574960e+02   1.1634810e+03
   2.1623170e+02   1.0868800e+03
   2.1671380e+02   1.0098220e+03
   2.1719590e+02   9.4877320e+02
   2.1767800e+02   9.0924850e+02
   2.1816010e+02   8.7331740e+02
   2.1864230e+02   8.3470280e+02
   2.1912440e+02   7.9287710e+02
   2.1960650e+02   7.4822400e+02
   2.2008860e+02   6.9713290e+02
   2.2057070e+02   6.4406350e+02
   2.2105280e+02   6.0272000e+02
   2.2153500e+02   5.7730540e+02
   2.2201710e+02   5.5508130e+02
   2.2249920e+02   5.2994120e+02
   2.2298130e+02   5.0083800e+02
   2.2346340e+02   4.7175600e+02
   2.2394550e+02   4.4183110e+02
   2.2442770e+02   4.1205310e+02
   2.2490980e+02   3.8779470e+02
   2.2539190e+02   3.7079640e+02
   2.2587400e+02   3.5607640e+02
   2.2635610e+02   3.4073000e+02
   2.2683820e+02   3.2417700e+02
   2.2732040e+02   3.0889750e+02
   2.2780250e+02   2.9703250e+02
   2.2828460e+02   2.8698160e+02
   2.2876670e+02   2.6911000e+02
   2.2924880e+02   2.3664220e+02
   2.2973100e+02   2.0590250e+02
   2.3021310e+02   1.8829550e+02
   2.3069520e+02   1.9289470e+02
   2.3117730e+02   1.9141580e+02
   2.3165940e+02   1.7777800e+02
   2.3214150e+02   1.5440030e+02
   2.3262370e+02   1.4115950e+02
   2.3310580e+02   1.4511930e+02
   2.3358790e+02   1.5080990e+02
   2.3407000e+02   1.4624400e+02
   2.3455210e+02   1.2421140e+02
   2.3503420e+02   1.0654610e+02
   2.3551640e+02   9.7637210e+01
   2.3599850e+02   9.6881840e+01
   2.3648060e+02   9.3195920e+01
   2.3696270e+02   8.5908690e+01
   2.3744480e+02   7.6524900e+01
   2.3792690e+02   6.5504520e+01
   2.3840910e+02   4.9796020e+01
   2.3889120e+02   3.8410160e+01
   2.3937330e+02   3.3321780e+01
   2.3985540e+02   3.4500240e+01
   2.4033750e+02   3.7754270e+01
   2.4081960e+02   4.6600220e+01
   2.4130180e+02   5.3983760e+01
   2.4178390e+02   5.2532100e+01
   2.4226600e+02   3.5732300e+01
   2.4274810e+02   2.2721310e+01
   2.4323020e+02   1.9429080e+01
   2.4371230e+02   2.6641850e+01
   2.4419450e+02   2.3908330e+01
   2.4467660e+02   5.0407710e+00
   2.4515870e+02   1.7861080e+01
   2.4564080e+02   3.3205440e+01
   2.4612290e+02   4.0470950e+01
   2.4660500e+02   4.0792480e+01
   2.4708720e+02   3.1231690e+01
   2.4756930e+02   1.0130250e+01
   2.4805140e+02   1.7150900e-01
   2.4853350e+02   4.9857180e+00
   2.4901560e+02   1.6774660e+01
   2.4949770e+02   2.5514040e+01
   2.4997990e+02   3.1345340e+01
   2.5046200e+02   3.3820680e+01
   2.5094410e+02   3.2376220e+01
   2.5142620e+02   2.6674070e+01
   2.5190830e+02   1.9561770e+01
   2.5239040e+02   8.6447750e+00
   2.5287260e+02   1.4367680e+00
   2.5335470e+02   3.7667240e+00
   2.5383680e+02   6.7059330e+00
   2.5431890e+02   1.4562870e+01
   2.5480100e+02   1.4537110e+01
   2.5528310e+02   4.9327390e+00
   2.5576530e+02   6.3171400e-01
   2.5624740e+02   4.7235110e+00
   2.5672950e+02   1.1346560e+01
   2.5721160e+02   1.2194700e+01
   2.5769370e+02   5.0144040e+00
   2.5817580e+02   2.9291990e+00
   2.5865800e+02   9.5024410e+00
   2.5914010e+02   1.4528200e+01
   2.5962220e+02   2.0040160e+01
   2.6010430e+02   2.6654170e+01
   2.6058640e+02   3.3089720e+01
   2.6106850e+02   3.6697880e+01
   2.6155070e+02   3.5339480e+01
   2.6203280e+02   3.6409300e+01
   2.6251490e+02   4.2827390e+01
   2.6299700e+02   5.5543580e+01
   2.6347910e+02   6.6982790e+01
   2.6396120e+02   7.6938230e+01
   2.6444340e+02   8.5997920e+01
   2.6492550e+02   9.5808720e+01
   2.6540760e+02   1.0791860e+02
   2.6588970e+02   1.1624770e+02
   2.6637180e+02   1.1699110e+02
   2.6685390e+02   1.0856250e+02
   2.6733610e+02   1.0724510e+02
   2.6781820e+02   1.1523000e+02
   2.6830030e+02   1.2763890e+02
   2.6878240e+02   1.3739400e+02
   2.6926450e+02   1.4365450e+02
   2.6974660e+02   1.4980910e+02
   2.7022880e+02   1.5675290e+02
   2.7071090e+02   1.6434700e+02
   2.7119300e+02   1.7533140e+02
   2.7167510e+02   1.9262810e+02
   2.7215720e+02   2.0931380e+02
   2.7263930e+02   2.1225290e+02
   2.7312150e+02   1.9746730e+02
   2.7360360e+02   1.8653370e+02
   2.7408570e+02   1.9030660e+02
   2.7456780e+02   2.0973950e+02
   2.7504990e+02   2.1776890e+02
   2.7553200e+02   2.1047950e+02
   2.7601420e+02   1.9874940e+02
   2.7649630e+02   2.0098670e+02
   2.7697840e+02   2.1991330e+02
   2.7746050e+02   2.3587220e+02
   2.7794260e+02   2.3965140e+02
   2.7842470e+02   2.3160110e+02
   2.7890690e+02   2.2975740e+02
   2.7938900e+02   2.3662890e+02
   2.7987110e+02   2.4436280e+02
   2.8035320e+02   2.3937540e+02
   2.8083530e+02   2.2041600e+02
   2.8131740e+02   2.0352690e+02
   2.8179960e+02   1.9475200e+02
   2.8228170e+02   1.9374110e+02
   2.8276380e+02   1.9896000e+02
   2.8324590e+02   2.1241530e+02
   2.8372810e+02   2.2631200e+02
   2.8421020e+02   2.2890110e+02
   2.8469230e+02   2.2012430e+02
   2.8517440e+02   2.1016920e+02
   2.8565650e+02   2.0213460e+02
   2.8613860e+02   1.9611520e+02
   2.8662080e+02   1.9380080e+02
   2.8710290e+02   1.9591760e+02
   2.8758500e+02   1.9898470e+02
   2.8806710e+02   1.9895740e+02
   2.8854920e+02   1.9594070e+02
   2.8903130e+02   1.9124380e+02
   2.8951350e+02   1.8337080e+02
   2.8999560e+02   1.7402060e+02
   2.9047770e+02   1.7008680e+02
   2.9095980e+02   1.7201500e+02
   2.9144190e+02   1.7639940e+02
   2.9192400e+02   1.8083890e+02
   2.9240620e+02   1.8494690e+02
   2.9288830e+02   1.8631600e+02
   2.9337040e+02   1.8249740e+02
   2.9385250e+02   1.7545850e+02
   2.9433460e+02   1.7042850e+02
   2.9481670e+02   1.6765820e+02
   2.9529890e+02   1.6473570e+02
   2.9578100e+02   1.5649290e+02
   2.9626310e+02   1.4535510e+02
   2.9674520e+02   1.3965060e+02
   2.9722730e+02   1.4794510e+02
   2.9770940e+02   1.6190030e+02
   2.9819160e+02   1.6611190e+02
   2.9867370e+02   1.6029050e+02
   2.9915580e+02   1.5197410e+02
   2.9963790e+02   1.4641370e+02
   3.0012000e+02   1.4360740e+02
   3.0060210e+02   1.4350760e+02
   3.0108430e+02   1.4929090e+02
   3.0156640e+02   1.5609250e+02
   3.0204850e+02   1.5582520e+02
   3.0253060e+02   1.4870130e+02
   3.0301270e+02   1.4174320e+02
   3.0349480e+02   1.4272020e+02
   3.0397700e+02   1.4864330e+02
   3.0445910e+02   1.5412400e+02
   3.0494120e+02   1.5764500e+02
   3.0542330e+02   1.6089700e+02
   3.0590540e+02   1.6434250e+02
   3.0638750e+02   1.6720500e+02
   3.0686970e+02   1.6859970e+02
   3.0735180e+02   1.6781810e+02
   3.0783390e+02   1.6572160e+02
   3.0831600e+02   1.6348130e+02
   3.0879810e+02   1.6343620e+02
   3.0928020e+02   1.6212180e+02
   3.0976240e+02   1.5424950e+02
   3.1024450e+02   1.4138020e+02
   3.1072660e+02   1.3256150e+02
   3.1120870e+02   1.3596890e+02
   3.1169080e+02   1.4374410e+02
   3.1217290e+02   1.4810330e+02
   3.1265510e+02   1.4363230e+02
   3.1313720e+02   1.4029090e+02
   3.1361930e+02   1.4356960e+02
   3.1410140e+02   1.5204350e+02
   3.1458350e+02   1.6073580e+02
   3.1506560e+02   1.7066760e+02
   3.1554780e+02   1.7911160e+02
   3.1602990e+02   1.8328520e+02
   3.1651200e+02   1.7857010e+02
   3.1699410e+02   1.7437480e+02
   3.1747620e+02   1.7411070e+02
   3.1795830e+02   1.7712350e+02
   3.1844050e+02   1.8136360e+02
   3.1892260e+02   1.8751840e+02
   3.1940470e+02   1.9378710e+02
   3.1988680e+02   1.9910790e+02
   3.2036890e+02   2.0303050e+02
   3.2085100e+02   2.0641000e+02
   3.2133320e+02   2.0993840e+02
   3.2181530e+02   2.1309560e+02
   3.2229740e+02   2.1460940e+02
   3.2277950e+02   2.1045610e+02
   3.2326160e+02   2.0753940e+02
   3.2374370e+02   2.0909360e+02
   3.2422590e+02   2.1780040e+02
   3.2470800e+02   2.2667880e+02
   3.2519010e+02   2.3561990e+02
   3.2567220e+02   2.4427370e+02
   3.2615430e+02   2.5195390e+02
   3.2663640e+02   2.5844460e+02
   3.2711860e+02   2.6418380e+02
   3.2760070e+02   2.6907750e+02
   3.2808280e+02   2.7220690e+02
   3.2856490e+02   2.7673030e+02
   3.2904700e+02   2.8478540e+02
   3.2952910e+02   2.9358790e+02
   3.3001130e+02   2.9847160e+02
   3.3049340e+02   2.9505860e+02
   3.3097550e+02   2.9359290e+02
   3.3145760e+02   2.9906030e+02
   3.3193970e+02   3.1521400e+02
   3.3242180e+02   3.1907980e+02
   3.3290400e+02   3.0170540e+02
   3.3338610e+02   2.7874840e+02
   3.3386820e+02   2.7153540e+02
   3.3435030e+02   2.8832360e+02
   3.3483240e+02   3.0323060e+02
   3.3531450e+02   3.0890760e+02
   3.3579670e+02   3.0488550e+02
   3.3627880e+02   3.0458090e+02
   3.3676090e+02   3.0827870e+02
   3.3724300e+02   3.1512280e+02
   3.3772510e+02   3.2644600e+02
   3.3820720e+02   3.4527390e+02
   3.3868940e+02   3.5560530e+02
   3.3917150e+02   3.5191940e+02
   3.3965360e+02   3.3635060e+02
   3.4013570e+02   3.2561190e+02
   3.4061780e+02   3.2063390e+02
   3.4109990e+02   3.2084920e+02
   3.4158210e+02   3.2754200e+02
   3.4206420e+02   3.4019620e+02
   3.4254630e+02   3.5248490e+02
   3.4302840e+02   3.6445780e+02
   3.4351050e+02   3.7516740e+02
   3.4399260e+02   3.7941050e+02
   3.4447480e+02   3.7644740e+02
   3.4495690e+02   3.7317710e+02
   3.4543900e+02   3.7431410e+02
   3.4592110e+02   3.7942240e+02
   3.4640320e+02   3.8708670e+02
   3.4688530e+02   3.9818620e+02
   3.4736750e+02   4.1123550e+02
   3.4784960e+02   4.2398780e+02
   3.4833170e+02   4.3603080e+02
   3.4881380e+02   4.4595290e+02
   3.4929590e+02   4.5079250e+02
   3.4977800e+02   4.5310970e+02
   3.5026020e+02   4.5843650e+02
   3.5074230e+02   4.6738350e+02
   3.5122440e+02   4.7814170e+02
   3.5170650e+02   4.9161540e+02
   3.5218860e+02   5.0642000e+02
   3.5267070e+02   5.1698330e+02
   3.5315290e+02   5.1500500e+02
   3.5363500e+02   5.0913610e+02
   3.5411710e+02   5.1169730e+02
   3.5459920e+02   5.2532130e+02
   3.5508140e+02   5.3794260e+02
   3.5556350e+02   5.3726650e+02
   3.5604560e+02   5.2910470e+02
   3.5652770e+02   5.2371200e+02
   3.5700980e+02   5.2640360e+02
   3.5749190e+02   5.3240530e+02
   3.5797410e+02   5.4065650e+02
   3.5845620e+02   5.5117160e+02
   3.5893830e+02   5.5722850e+02
   3.5942040e+02   5.5030800e+02
   3.5990250e+02   5.3867140e+02
   3.6038460e+02   5.3152620e+02
   3.6086680e+02   5.4007030e+02
   3.6134890e+02   5.4614820e+02
   3.6183100e+02   5.4061120e+02
   3.6231310e+02   5.2428340e+02
   3.6279520e+02   5.0836980e+02
   3.6327730e+02   4.9933520e+02
   3.6375950e+02   4.9034270e+02
   3.6424160e+02   4.7666530e+02
   3.6472370e+02   4.4919530e+02
   3.6520580e+02   4.2604380e+02
   3.6568790e+02   4.1420800e+02
   3.6617000e+02   4.1058020e+02
   3.6665220e+02   4.0096730e+02
   3.6713430e+02   3.7677310e+02
   3.6761640e+02   3.5186830e+02
   3.6809850e+02   3.3272790e+02
   3.6858060e+02   3.2728090e+02
   3.6906270e+02   3.1537990e+02
   3.6954490e+02   2.9037260e+02
   3.7002700e+02   2.5998560e+02
   3.7050910e+02   2.4110970e+02
   3.7099120e+02   2.4158410e+02
   3.7147330e+02   2.4298900e+02
   3.7195540e+02   2.3944790e+02
   3.7243760e+02   2.3092090e+02
   3.7291970e+02   2.1640760e+02
   3.7340180e+02   1.9108170e+02
   3.7388390e+02   1.6452220e+02
   3.7436600e+02   1.5129440e+02
   3.7484810e+02   1.5548630e+02
   3.7533030e+02   1.6062760e+02
   3.7581240e+02   1.6234450e+02
   3.7629450e+02   1.6070480e+02
   3.7677660e+02   1.5698560e+02
   3.7725870e+02   1.5016480e+02
   3.7774080e+02   1.4407850e+02
   3.7822300e+02   1.4404250e+02
   3.7870510e+02   1.5028600e+02
   3.7918720e+02   1.5377860e+02
   3.7966930e+02   1.5124240e+02
   3.8015140e+02   1.4498290e+02
   3.8063350e+02   1.4195040e+02
   3.8111570e+02   1.4220500e+02
   3.8159780e+02   1.4404130e+02
   3.8207990e+02   1.4658350e+02
   3.8256200e+02   1.4966480e+02
   3.8304410e+02   1.5349190e+02
   3.8352620e+02   1.5981200e+02
   3.8400840e+02   1.6372600e+02
   3.8449050e+02   1.5628340e+02
   3.8497260e+02   1.3904190e+02
   3.8545470e+02   1.2085690e+02
   3.8593680e+02   1.0454680e+02
   3.8641890e+02   9.1061280e+01
   3.8690110e+02   8.3280400e+01
   3.8738320e+02   8.2910890e+01
   3.8786530e+02   8.1403320e+01
   3.8834740e+02   6.6921880e+01
   3.8882950e+02   4.5966060e+01
   3.8931160e+02   3.1696660e+01
   3.8979380e+02   3.6000730e+01
   3.9027590e+02   4.5261230e+01
   3.9075800e+02   5.1466800e+01
   3.9124010e+02   5.4151000e+01
   3.9172220e+02   5.1687260e+01
   3.9220430e+02   3.8051760e+01
   3.9268650e+02   2.0906490e+01
   3.9316860e+02   8.0603030e+00
   3.9365070e+02   3.5583500e+00
   3.9413280e+02   2.4833980e+00
   3.9461490e+02   6.0740970e+00
   3.9509700e+02   1.3293460e+01
   3.9557920e+02   1.5595950e+01
   3.9606130e+02   3.7421880e+00
   3.9654340e+02   8.7297360e+00
   3.9702550e+02   1.3902950e+01
   3.9750760e+02   2.0456540e+00
   3.9798970e+02   9.4901120e+00
   3.9847190e+02   6.1389200e-01
   3.9895400e+02   2.1037720e+01
   3.9943610e+02   3.1316770e+01
   3.9991820e+02   2.2231200e+01
   4.0040030e+02   1.3123900e+01
   4.0088240e+02   1.1702640e+01
   4.0136460e+02   2.2093020e+01
   4.0184670e+02   2.7717770e+01
   4.0232880e+02   2.7590580e+01
   4.0281090e+02   2.3544560e+01
   4.0329300e+02   1.7037720e+01
   4.0377510e+02   5.5965580e+00
   4.0425730e+02   1.2044680e+00
   4.0473940e+02   1.0402830e+00
   4.0522150e+02   1.1860960e+01
   4.0570360e+02   1.8130620e+01
   4.0618570e+02   1.8973140e+01
   4.0666780e+02   1.7949710e+01
   4.0715000e+02   1.9282710e+01
   4.0763210e+02   2.2978150e+01
   4.0811420e+02   2.2839840e+01
   4.0859630e+02   1.6084720e+01
   4.0907840e+02   6.0072020e+00
   4.0956050e+02   1.0682370e+00
   4.1004270e+02   1.2291260e+00
   4.1052480e+02   1.9531250e+00
   4.1100690e+02   1.1226810e+00
   4.1148900e+02   6.0926510e+00
   4.1197110e+02   6.9948730e+00
   4.1245320e+02   1.9747310e+00
   4.1293540e+02   3.7822270e+00
   4.1341750e+02   7.1135250e+00
   4.1389960e+02   6.6840820e+00
   4.1438170e+02   1.5999760e+00
   4.1486380e+02   3.1486080e+01
   4.1534590e+02   6.3858280e+01
   4.1582810e+02   7.6496700e+01
   4.1631020e+02   6.7415410e+01
   4.1679230e+02   5.5111570e+01
   4.1727440e+02   4.6176030e+01
   4.1775650e+02   4.2858030e+01
   4.1823860e+02   4.8132570e+01
   4.1872080e+02   7.8881590e+01
   4.1920290e+02   1.0363310e+02
   4.1968500e+02   1.0335210e+02
   4.2016710e+02   8.1611450e+01
   4.2064920e+02   6.5706300e+01
   4.2113130e+02   6.8214720e+01
   4.2161350e+02   7.6727420e+01
   4.2209560e+02   8.3781860e+01
   4.2257770e+02   8.7213620e+01
   4.2305980e+02   9.0700070e+01
   4.2354190e+02   9.5648930e+01
   4.2402410e+02   1.0085900e+02
   4.2450620e+02   1.0336980e+02
   4.2498830e+02   9.7746700e+01
   4.2547040e+02   9.5498050e+01
   4.2595250e+02   1.0230580e+02
   4.2643470e+02   1.2253670e+02
   4.2691680e+02   1.3121400e+02
   4.2739890e+02   1.2304160e+02
   4.2788100e+02   1.0859360e+02
   4.2836310e+02   1.0040280e+02
   4.2884520e+02   1.0034630e+02
   4.2932740e+02   1.0049600e+02
   4.2980950e+02   9.9200930e+01
   4.3029160e+02   9.6685550e+01
   4.3077370e+02   9.3871830e+01
   4.3125580e+02   9.0578490e+01
   4.3173790e+02   8.8096560e+01
   4.3222010e+02   8.9030880e+01
   4.3270220e+02   9.2763920e+01
   4.3318430e+02   9.1065550e+01
   4.3366640e+02   8.1123170e+01
   4.3414850e+02   6.9005860e+01
   4.3463060e+02   6.5087650e+01
   4.3511280e+02   6.8425170e+01
   4.3559490e+02   7.2817750e+01
   4.3607700e+02   7.7002560e+01
   4.3655910e+02   7.9408940e+01
   4.3704120e+02   7.5656740e+01
   4.3752330e+02   6.5083130e+01
   4.3800550e+02   5.4769410e+01
   4.3848760e+02   5.1341920e+01
   4.3896970e+02   5.2037960e+01
   4.3945180e+02   5.2421020e+01
   4.3993390e+02   4.9901250e+01
   4.4041600e+02   4.7521610e+01
   4.4089820e+02   4.8195190e+01
   4.4138030e+02   5.1286620e+01
   4.4186240e+02   5.2723390e+01
   4.4234450e+02   4.9479130e+01
   4.4282660e+02   4.4678100e+01
   4.4330870e+02   4.0393070e+01
   4.4379090e+02   3.6669190e+01
   4.4427300e+02   3.4046390e+01
   4.4475510e+02   3.3128780e+01
   4.4523720e+02   3.3345210e+01
   4.4571930e+02   3.3486940e+01
   4.4620140e+02   3.2068730e+01
   4.4668360e+02   3.1893680e+01
   4.4716570e+02   3.3761720e+01
   4.4764780e+02   3.7864750e+01
   4.4812990e+02   4.3291140e+01
   4.4861200e+02   5.2235470e+01
   4.4909410e+02   6.0482180e+01
   4.4957630e+02   6.2687870e+01
   4.5005840e+02   5.4790770e+01
   4.5054050e+02   5.2329710e+01
   4.5102260e+02   6.0197750e+01
   4.5150470e+02   7.4891480e+01
   4.5198680e+02   8.1223750e+01
   4.5246900e+02   7.7500980e+01
   4.5295110e+02   7.3092900e+01
   4.5343320e+02   7.3595950e+01
   4.5391530e+02   7.8748290e+01
   4.5439740e+02   8.5757810e+01
   4.5487950e+02   9.5400270e+01
   4.5536170e+02   1.0701040e+02
   4.5584380e+02   1.1858560e+02
   4.5632590e+02   1.2909720e+02
   4.5680800e+02   1.3547090e+02
   4.5729010e+02   1.3168790e+02
   4.5777220e+02   1.2699500e+02
   4.5825440e+02   1.3770070e+02
   4.5873650e+02   1.6268840e+02
   4.5921860e+02   1.8348880e+02
   4.5970070e+02   1.8398280e+02
   4.6018280e+02   1.7441150e+02
   4.6066490e+02   1.6723660e+02
   4.6114710e+02   1.6403880e+02
   4.6162920e+02   1.6714210e+02
   4.6211130e+02   1.8251890e+02
   4.6259340e+02   2.0483960e+02
   4.6307550e+02   2.2082470e+02
   4.6355760e+02   2.2064280e+02
   4.6403980e+02   2.1805770e+02
   4.6452190e+02   2.1988820e+02
   4.6500400e+02   2.2766540e+02
   4.6548610e+02   2.3552780e+02
   4.6596820e+02   2.4131160e+02
   4.6645030e+02   2.4806950e+02
   4.6693250e+02   2.5913760e+02
   4.6741460e+02   2.8120690e+02
   4.6789670e+02   2.9746200e+02
   4.6837880e+02   3.0419040e+02
   4.6886090e+02   3.0279200e+02
   4.6934300e+02   3.0181530e+02
   4.6982520e+02   3.0127380e+02
   4.7030730e+02   3.0041020e+02
   4.7078940e+02   2.9952720e+02
   4.7127150e+02   2.9951560e+02
   4.7175360e+02   2.9464830e+02
   4.7223570e+02   2.8408610e+02
   4.7271790e+02   2.7067100e+02
   4.7320000e+02   2.5903610e+02
   4.7368210e+02   2.4916170e+02
   4.7416420e+02   2.3885020e+02
   4.7464630e+02   2.2552140e+02
   4.7512840e+02   2.1151060e+02
   4.7561060e+02   2.0685350e+02
   4.7609270e+02   2.1156040e+02
   4.7657480e+02   2.1099870e+02
   4.7705690e+02   1.8549840e+02
   4.7753900e+02   1.4765990e+02
   4.7802110e+02   1.2066430e+02
   4.7850330e+02   1.1329460e+02
   4.7898540e+02   1.1132260e+02
   4.7946750e+02   1.0511460e+02
   4.7994960e+02   9.5050540e+01
   4.8043170e+02   8.2011840e+01
   4.8091380e+02   6.0298830e+01
   4.8139600e+02   4.0608280e+01
   4.8187810e+02   3.0974000e+01
   4.8236020e+02   3.3458010e+01
   4.8284230e+02   3.4306270e+01
   4.8332440e+02   2.7129880e+01
   4.8380650e+02   1.7720580e+01
   4.8428870e+02   1.1303590e+01
   4.8477080e+02   1.1576660e+01
   4.8525290e+02   1.1461790e+01
   4.8573500e+02   1.0287350e+01
   4.8621710e+02   8.1907960e+00
   4.8669920e+02   5.6885990e+00
   4.8718140e+02   2.6441650e+00
   4.8766350e+02   5.6726100e-01
   4.8814560e+02   4.1656490e+00
   4.8862770e+02   8.6340330e+00
   4.8910980e+02   1.0735350e+01
   4.8959190e+02   1.0208860e+01
   4.9007410e+02   7.8426510e+00
   4.9055620e+02   3.5040280e+00
   4.9103830e+02   2.9805910e+00
   4.9152040e+02   6.4931640e+00
   4.9200250e+02   4.4263920e+00
   4.9248460e+02   6.6137700e-01
   4.9296680e+02   1.6726070e+00
   4.9344890e+02   1.1073000e+00
   4.9393100e+02   3.2939450e+00
   4.9441310e+02   3.4741200e-01
   4.9489530e+02   4.9746090e+00
   4.9537740e+02   8.3380130e+00
   4.9585950e+02   9.5955810e+00
   4.9634160e+02   7.0744630e+00
   4.9682370e+02   2.0559080e+00
   4.9730580e+02   1.5633790e+01
   4.9778800e+02   3.0205200e+01
   4.9827010e+02   4.6964230e+01
   4.9875220e+02   6.1934690e+01
   4.9923430e+02   7.2754640e+01
   4.9971640e+02   7.9525150e+01
   5.0019850e+02   8.4350100e+01
   5.0068070e+02   8.2937620e+01
   5.0116280e+02   8.3072390e+01
   5.0164490e+02   8.9935550e+01
   5.0212700e+02   1.1364430e+02
   5.0260910e+02   1.2813120e+02
   5.0309120e+02   1.2367370e+02
   5.0357340e+02   1.1318540e+02
   5.0405550e+02   1.1931740e+02
   5.0453760e+02   1.5205070e+02
   5.0501970e+02   1.8113120e+02
   5.0550180e+02   1.9734300e+02
   5.0598390e+02   2.0167710e+02
   5.0646610e+02   2.0845320e+02
   5.0694820e+02   2.1774480e+02
   5.0743030e+02   2.2946730e+02
   5.0791240e+02   2.4487300e+02
   5.0839450e+02   2.6363500e+02
   5.0887660e+02   2.8025400e+02
   5.0935880e+02   2.9418260e+02
   5.0984090e+02   3.0572710e+02
   5.1032300e+02   3.1340970e+02
   5.1080510e+02   3.1852230e+02
   5.1128720e+02   3.2605420e+02
   5.1176930e+02   3.3743240e+02
   5.1225150e+02   3.5308640e+02
   5.1273360e+02   3.7768740e+02
   5.1321570e+02   4.1033410e+02
   5.1369780e+02   4.3686110e+02
   5.1417990e+02   4.4085750e+02
   5.1466200e+02   4.3835910e+02
   5.1514420e+02   4.4502320e+02
   5.1562630e+02   4.7101230e+02
   5.1610840e+02   4.9486830e+02
   5.1659050e+02   5.0741960e+02
   5.1707260e+02   5.1347020e+02
   5.1755470e+02   5.2228260e+02
   5.1803690e+02   5.3746040e+02
   5.1851900e+02   5.5349510e+02
   5.1900110e+02   5.7015550e+02
   5.1948320e+02   5.8772860e+02
   5.1996530e+02   5.9970240e+02
   5.2044740e+02   5.9990730e+02
   5.2092960e+02   6.0257630e+02
   5.2141170e+02   6.2068850e+02
   5.2189380e+02   6.5948140e+02
   5.2237590e+02   6.8696960e+02
   5.2285800e+02   6.9775610e+02
   5.2334010e+02   7.0033730e+02
   5.2382230e+02   7.0971780e+02
   5.2430440e+02   7.2593700e+02
   5.2478650e+02   7.4724130e+02
   5.2526860e+02   7.7621410e+02
   5.2575070e+02   8.0868130e+02
   5.2623280e+02   8.3158150e+02
   5.2671500e+02   8.4441110e+02
   5.2719710e+02   8.5983560e+02
   5.2767920e+02   8.8559050e+02
   5.2816130e+02   9.2211040e+02
   5.2864340e+02   9.7194480e+02
   5.2912550e+02   1.0394550e+03
   5.2960770e+02   1.1072020e+03
   5.3008980e+02   1.1574700e+03
   5.3057190e+02   1.2019250e+03
   5.3105400e+02   1.2613160e+03
   5.3153610e+02   1.3484380e+03
   5.3201820e+02   1.4446180e+03
   5.3250040e+02   1.5428190e+03
   5.3298250e+02   1.6433340e+03
   5.3346460e+02   1.7502620e+03
   5.3394670e+02   1.8626150e+03
   5.3442880e+02   1.9843140e+03
   5.3491090e+02   2.1196200e+03
   5.3539310e+02   2.2716570e+03
   5.3587520e+02   2.4290220e+03
   5.3635730e+02   2.5909920e+03
   5.3683940e+02   2.7573800e+03
   5.3732150e+02   2.9321210e+03
   5.3780360e+02   3.1156160e+03
   5.3828580e+02   3.2973100e+03
   5.3876790e+02   3.4732420e+03
   5.3925000e+02   3.6467010e+03
   5.3973210e+02   3.8309480e+03
   5.4021420e+02   4.0259810e+03
   5.4069640e+02   4.2301040e+03
   5.4117850e+02   4.4535690e+03
   5.4166060e+02   4.6837110e+03
   5.4214270e+02   4.8902480e+03
   5.4262480e+02   5.0671480e+03
   5.4310690e+02   5.2301460e+03
   5.4358910e+02   5.3938950e+03
   5.4407120e+02   5.5521420e+03
   5.4455330e+02   5.6950830e+03
   5.4503540e+02   5.8359740e+03
   5.4551750e+02   5.9445020e+03
   5.4599960e+02   6.0089030e+03
   5.4648180e+02   6.0301700e+03
   5.4696390e+02   6.0117060e+03
   5.4744600e+02   5.9721010e+03
   5.4792810e+02   5.8773950e+03
   5.4841020e+02   5.7080270e+03
   5.4889230e+02   5.4485250e+03
   5.4937450e+02   5.1621600e+03
   5.4985660e+02   4.8414370e+03
   5.5033870e+02   4.5010910e+03
   5.5082080e+02   4.1507040e+03
   5.5130290e+02   3.7801000e+03
   5.5178500e+02   3.4398940e+03
   5.5226720e+02   3.1417290e+03
   5.5274930e+02   2.8743760e+03
   5.5323140e+02   2.6022980e+03
   5.5371350e+02   2.3257440e+03
   5.5419560e+02   2.0776430e+03
   5.5467770e+02   1.8842520e+03
   5.5515990e+02   1.7311420e+03
   5.5564200e+02   1.5912540e+03
   5.5612410e+02   1.4629110e+03
   5.5660620e+02   1.3446780e+03
   5.5708830e+02   1.2400170e+03
   5.5757040e+02   1.1443490e+03
   5.5805260e+02   1.0518460e+03
   5.5853470e+02   9.5657580e+02
   5.5901680e+02   8.7032470e+02
   5.5949890e+02   8.0299780e+02
   5.5998100e+02   7.4968480e+02
   5.6046310e+02   7.0155150e+02
   5.6094530e+02   6.5732280e+02
   5.6142740e+02   6.1693250e+02
   5.6190950e+02   5.8315860e+02
   5.6239160e+02   5.5627470e+02
   5.6287370e+02   5.2290490e+02
   5.6335580e+02   4.7888170e+02
   5.6383800e+02   4.3461670e+02
   5.6432010e+02   3.9625180e+02
   5.6480220e+02   3.6388650e+02
   5.6528430e+02   3.3996330e+02
   5.6576640e+02   3.2752980e+02
   5.6624850e+02   3.1838350e+02
   5.6673070e+02   2.9748360e+02
   5.6721280e+02   2.6574320e+02
   5.6769490e+02   2.3671810e+02
   5.6817700e+02   2.1480510e+02
   5.6865910e+02   1.9841200e+02
   5.6914120e+02   1.8718880e+02
   5.6962340e+02   1.8002200e+02
   5.7010550e+02   1.6918380e+02
   5.7058760e+02   1.4263450e+02
   5.7106970e+02   1.1396370e+02
   5.7155180e+02   9.8453490e+01
   5.7203390e+02   1.0000900e+02
   5.7251610e+02   1.0088930e+02
   5.7299820e+02   9.2425290e+01
   5.7348030e+02   7.9404910e+01
   5.7396240e+02   6.6886110e+01
   5.7444450e+02   5.2635990e+01
   5.7492660e+02   4.2684450e+01
   5.7540880e+02   4.0422610e+01
   5.7589090e+02   4.2767210e+01
   5.7637300e+02   4.1111450e+01
   5.7685510e+02   3.3706420e+01
   5.7733720e+02   2.5528560e+01
   5.7781930e+02   1.7442990e+01
   5.7830150e+02   9.5849610e+00
   5.7878360e+02   7.1369630e+00
   5.7926570e+02   1.1319820e+01
   5.7974780e+02   1.5596560e+01
   5.8022990e+02   1.4247190e+01
   5.8071200e+02   8.0974120e+00
   5.8119420e+02   6.9299300e-01
   5.8167630e+02   7.7762450e+00
   5.8215840e+02   1.6334110e+01
   5.8264050e+02   2.5436770e+01
   5.8312260e+02   3.3705080e+01
   5.8360470e+02   3.7924190e+01
   5.8408690e+02   3.1059330e+01
   5.8456900e+02   2.4629880e+01
   5.8505110e+02   2.7981080e+01
   5.8553320e+02   3.9005740e+01
   5.8601530e+02   4.6834720e+01
   5.8649740e+02   4.3831540e+01
   5.8697960e+02   4.0049930e+01
   5.8746170e+02   4.1526610e+01
   5.8794380e+02   5.2152220e+01
   5.8842590e+02   5.5702880e+01
   5.8890800e+02   4.9333740e+01
   5.8939010e+02   3.8357910e+01
   5.8987230e+02   2.6747560e+01
   5.9035440e+02   1.3045290e+01
   5.9083650e+02   4.1437990e+00
   5.9131860e+02   1.3991700e+00
   5.9180070e+02   3.0484620e+00
   5.9228280e+02   6.9498290e+00
   5.9276500e+02   1.2919430e+01
   5.9324710e+02   1.6813600e+01
   5.9372920e+02   1.6736080e+01
   5.9421130e+02   1.3374390e+01
   5.9469340e+02   7.0166020e+00
   5.9517550e+02   2.0196530e+00
   5.9565770e+02   1.1101810e+01
   5.9613980e+02   2.0636110e+01
   5.9662190e+02   2.8123290e+01
   5.9710400e+02   2.9204830e+01
   5.9758610e+02   2.0010500e+01
   5.9806820e+02   1.6655640e+01
   5.9855040e+02   3.4002930e+01
   5.9903250e+02   5.6988890e+01
   5.9951460e+02   6.8500370e+01
   5.9999670e+02   5.2286380e+01
   6.0047890e+02   4.1759030e+01
   6.0096100e+02   4.1566650e+01
   6.0144310e+02   4.9061040e+01
   6.0192520e+02   5.6601440e+01
   6.0240730e+02   6.3627930e+01
   6.0288950e+02   7.1939580e+01
   6.0337160e+02   8.3817380e+01
   6.0385370e+02   9.8140870e+01
   6.0433580e+02   1.0469690e+02
   6.0481790e+02   1.0275230e+02
   6.0530000e+02   1.0057430e+02
   6.0578220e+02   1.0768510e+02
   6.0626430e+02   1.1947770e+02
   6.0674640e+02   1.2450120e+02
   6.0722850e+02   1.1964950e+02
   6.0771060e+02   1.1411680e+02
   6.0819270e+02   1.1379830e+02
   6.0867490e+02   1.1842420e+02
   6.0915700e+02   1.2755820e+02
   6.0963910e+02   1.4826420e+02
   6.1012120e+02   1.6608910e+02
   6.1060330e+02   1.7308740e+02
   6.1108540e+02   1.7252640e+02
   6.1156760e+02   1.7617940e+02
   6.1204970e+02   1.9315910e+02
   6.1253180e+02   2.0622640e+02
   6.1301390e+02   2.0825460e+02
   6.1349600e+02   1.9824800e+02
   6.1397810e+02   1.9566320e+02
   6.1446030e+02   2.0148720e+02
   6.1494240e+02   2.1219060e+02
   6.1542450e+02   2.2706230e+02
   6.1590660e+02   2.4564370e+02
   6.1638870e+02   2.6044900e+02
   6.1687080e+02   2.7094970e+02
   6.1735300e+02   2.7641190e+02
   6.1783510e+02   2.6936990e+02
   6.1831720e+02   2.5633410e+02
   6.1879930e+02   2.5434500e+02
   6.1928140e+02   2.7896920e+02
   6.1976350e+02   3.0615540e+02
   6.2024570e+02   3.1321360e+02
   6.2072780e+02   3.0663180e+02
   6.2120990e+02   3.0533120e+02
   6.2169200e+02   3.2309220e+02
   6.2217410e+02   3.4192020e+02
   6.2265630e+02   3.5271360e+02
   6.2313840e+02   3.5381370e+02
   6.2362050e+02   3.5947080e+02
   6.2410260e+02   3.7137320e+02
   6.2458470e+02   3.8643080e+02
   6.2506680e+02   4.0380880e+02
   6.2554900e+02   4.2533980e+02
   6.2603110e+02   4.4143430e+02
   6.2651320e+02   4.5086780e+02
   6.2699530e+02   4.5728540e+02
   6.2747740e+02   4.6346200e+02
   6.2795950e+02   4.7000680e+02
   6.2844170e+02   4.8295910e+02
   6.2892380e+02   5.0772950e+02
   6.2940590e+02   5.3380870e+02
   6.2988800e+02   5.4455590e+02
   6.3037010e+02   5.4440720e+02
   6.3085220e+02   5.4691750e+02
   6.3133440e+02   5.5646130e+02
   6.3181650e+02   5.7301220e+02
   6.3229860e+02   5.9942740e+02
   6.3278070e+02   6.3525400e+02
   6.3326280e+02   6.6886540e+02
   6.3374490e+02   6.9940410e+02
   6.3422710e+02   7.2520750e+02
   6.3470920e+02   7.4417650e+02
   6.3519130e+02   7.5093230e+02
   6.3567340e+02   7.6760740e+02
   6.3615550e+02   7.9833830e+02
   6.3663760e+02   8.3333290e+02
   6.3711980e+02   8.6051650e+02
   6.3760190e+02   8.7814870e+02
   6.3808400e+02   9.0465140e+02
   6.3856610e+02   9.4511910e+02
   6.3904820e+02   9.9115030e+02
   6.3953030e+02   1.0259790e+03
   6.4001250e+02   1.0528330e+03
   6.4049460e+02   1.0839050e+03
   6.4097670e+02   1.1244950e+03
   6.4145880e+02   1.1725740e+03
   6.4194090e+02   1.2327050e+03
   6.4242300e+02   1.3013460e+03
   6.4290520e+02   1.3581740e+03
   6.4338730e+02   1.3813120e+03
   6.4386940e+02   1.4006110e+03
   6.4435150e+02   1.4330230e+03
   6.4483360e+02   1.4814200e+03
   6.4531570e+02   1.5354630e+03
   6.4579790e+02   1.5959560e+03
   6.4628000e+02   1.6594350e+03
   6.4676210e+02   1.7237800e+03
   6.4724420e+02   1.7914430e+03
   6.4772630e+02   1.8530020e+03
   6.4820840e+02   1.9056480e+03
   6.4869060e+02   1.9580320e+03
   6.4917270e+02   2.0231520e+03
   6.4965480e+02   2.1003000e+03
   6.5013690e+02   2.1789800e+03
   6.5061900e+02   2.2543740e+03
   6.5110110e+02   2.3320930e+03
   6.5158330e+02   2.4230570e+03
   6.5206540e+02   2.5228270e+03
   6.5254750e+02   2.6170010e+03
   6.5302960e+02   2.6895650e+03
   6.5351170e+02   2.7614720e+03
   6.5399380e+02   2.8438470e+03
   6.5447600e+02   2.9377340e+03
   6.5495810e+02   3.0387130e+03
   6.5544020e+02   3.1585080e+03
   6.5592230e+02   3.2742630e+03
   6.5640440e+02   3.3715030e+03
   6.5688650e+02   3.4405400e+03
   6.5736870e+02   3.5309810e+03
   6.5785080e+02   3.6500140e+03
   6.5833290e+02   3.7777760e+03
   6.5881500e+02   3.8940280e+03
   6.5929710e+02   3.9990780e+03
   6.5977920e+02   4.1046970e+03
   6.6026140e+02   4.2139860e+03
   6.6074350e+02   4.3244580e+03
   6.6122560e+02   4.4377150e+03
   6.6170770e+02   4.5514420e+03
   6.6218980e+02   4.6595660e+03
   6.6267190e+02   4.7579580e+03
   6.6315410e+02   4.8515550e+03
   6.6363620e+02   4.9456420e+03
   6.6411830e+02   5.0384710e+03
   6.6460040e+02   5.1223530e+03
   6.6508250e+02   5.1809240e+03
   6.6556460e+02   5.2443170e+03
   6.6604680e+02   5.3333470e+03
   6.6652890e+02   5.4476010e+03
   6.6701100e+02   5.5318500e+03
   6.6749310e+02   5.5750690e+03
   6.6797520e+02   5.6069320e+03
   6.6845730e+02   5.6497950e+03
   6.6893950e+02   5.7052900e+03
   6.6942160e+02   5.7285230e+03
   6.6990370e+02   5.7160830e+03
   6.7038580e+02   5.6833360e+03
   6.7086790e+02   5.6376480e+03
   6.7135000e+02   5.5845620e+03
   6.7183220e+02   5.5415650e+03
   6.7231430e+02   5.5196110e+03
   6.7279640e+02   5.4886050e+03
   6.7327850e+02   5.4153930e+03
   6.7376060e+02   5.3192350e+03
   6.7424270e+02   5.2322670e+03
   6.7472490e+02   5.1831810e+03
   6.7520700e+02   5.1233100e+03
   6.7568910e+02   5.0381150e+03
   6.7617120e+02   4.9309560e+03
   6.7665330e+02   4.8122140e+03
   6.7713540e+02   4.6759430e+03
   6.7761760e+02   4.5414360e+03
   6.7809970e+02   4.4159350e+03
   6.7858180e+02   4.2983560e+03
   6.7906390e+02   4.1863720e+03
   6.7954600e+02   4.0811720e+03
   6.8002810e+02   3.9728880e+03
   6.8051030e+02   3.8519510e+03
   6.8099240e+02   3.7231960e+03
   6.8147450e+02   3.5997670e+03
   6.8195660e+02   3.4814330e+03
   6.8243870e+02   3.3687760e+03
   6.8292080e+02   3.2653560e+03
   6.8340300e+02   3.1649720e+03
   6.8388510e+02   3.0596100e+03
   6.8436720e+02   2.9428930e+03
   6.8484930e+02   2.8315890e+03
   6.8533140e+02   2.7332510e+03
   6.8581350e+02   2.6408160e+03
   6.8629570e+02   2.5424890e+03
   6.8677780e+02   2.4280190e+03
   6.8725990e+02   2.3310940e+03
   6.8774200e+02   2.2626220e+03
   6.8822410e+02   2.2079770e+03
   6.8870620e+02   2.1297390e+03
   6.8918840e+02   2.0269140e+03
   6.8967050e+02   1.9331220e+03
   6.9015260e+02   1.8641620e+03
   6.9063470e+02   1.8092210e+03
   6.9111680e+02   1.7528250e+03
   6.9159890e+02   1.6943910e+03
   6.9208110e+02   1.6312010e+03
   6.9256320e+02   1.5502030e+03
   6.9304530e+02   1.4730920e+03
   6.9352740e+02   1.4177070e+03
   6.9400950e+02   1.3855670e+03
   6.9449160e+02   1.3511920e+03
   6.9497380e+02   1.3108990e+03
   6.9545590e+02   1.2643330e+03
   6.9593800e+02   1.2087260e+03
   6.9642010e+02   1.1387030e+03
   6.9690220e+02   1.0837720e+03
   6.9738430e+02   1.0485690e+03
   6.9786650e+02   1.0200090e+03
   6.9834860e+02   9.8631010e+02
   6.9883070e+02   9.4756420e+02
   6.9931280e+02   9.0537010e+02
   6.9979490e+02   8.5797030e+02
   7.0027700e+02   8.1395530e+02
   7.0075920e+02   7.8605530e+02
   7.0124130e+02   7.6841420e+02
   7.0172340e+02   7.5017570e+02
   7.0220550e+02   7.3039140e+02
   7.0268760e+02   7.0525980e+02
   7.0316970e+02   6.6749340e+02
   7.0365190e+02   6.2372510e+02
   7.0413400e+02   5.8848930e+02
   7.0461610e+02   5.7440950e+02
   7.0509820e+02   5.5708520e+02
   7.0558030e+02   5.2878780e+02
   7.0606240e+02   4.9330550e+02
   7.0654460e+02   4.7114490e+02
   7.0702670e+02   4.6546680e+02
   7.0750880e+02   4.5880750e+02
   7.0799090e+02   4.4332010e+02
   7.0847300e+02   4.2024320e+02
   7.0895510e+02   3.9100050e+02
   7.0943730e+02   3.5621030e+02
   7.0991940e+02   3.2734960e+02
   7.1040150e+02   3.2029610e+02
   7.1088360e+02   3.1943770e+02
   7.1136570e+02   3.0743260e+02
   7.1184780e+02   2.8146370e+02
   7.1233000e+02   2.5556930e+02
   7.1281210e+02   2.3153000e+02
   7.1329420e+02   2.1170430e+02
   7.1377630e+02   1.9930030e+02
   7.1425840e+02   2.0120920e+02
   7.1474050e+02   1.9381360e+02
   7.1522270e+02   1.7207250e+02
   7.1570480e+02   1.4742250e+02
   7.1618690e+02   1.3411900e+02
   7.1666900e+02   1.3231850e+02
   7.1715110e+02   1.3117700e+02
   7.1763320e+02   1.2979480e+02
   7.1811540e+02   1.2607310e+02
   7.1859750e+02   1.1465210e+02
   7.1907960e+02   9.8618770e+01
   7.1956170e+02   8.5378910e+01
   7.2004380e+02   8.1123540e+01
   7.2052590e+02   7.6802730e+01
   7.2100810e+02   6.4822750e+01
   7.2149020e+02   4.8651250e+01
   7.2197230e+02   3.6354740e+01
   7.2245440e+02   3.6024170e+01
   7.2293650e+02   3.3076290e+01
   7.2341860e+02   2.1950680e+01
   7.2390080e+02   5.1164550e+00
   7.2438290e+02   4.1871340e+00
   7.2486500e+02   4.4083250e+00
   7.2534710e+02   2.3770750e+00
   7.2582920e+02   9.7045900e-01
   7.2631130e+02   1.0974100e-01
   7.2679350e+02   3.1684570e+00
   7.2727560e+02   7.9400630e+00
   7.2775770e+02   1.0074830e+01
   7.2823980e+02   3.1955570e+00
   7.2872190e+02   6.1251220e+00
   7.2920400e+02   1.0120120e+01
   7.2968620e+02   7.7084960e+00
   7.3016830e+02   6.2390140e+00
   7.3065040e+02   8.5156250e+00
   7.3113250e+02   1.2805420e+01
   7.3161460e+02   1.8814210e+01
   7.3209670e+02   2.9777590e+01
   7.3257890e+02   3.2391110e+01
   7.3306100e+02   2.2809940e+01
   7.3354310e+02   1.0694820e+01
   7.3402520e+02   6.3631590e+00
   7.3450730e+02   9.6053470e+00
   7.3498940e+02   1.4096800e+01
   7.3547160e+02   1.9715450e+01
   7.3595370e+02   2.3722660e+01
   7.3643580e+02   2.1127320e+01
   7.3691790e+02   1.4683840e+01
   7.3740000e+02   9.9249270e+00
   7.3788210e+02   8.9263920e+00
   7.3836430e+02   9.3773190e+00
   7.3884640e+02   9.5118410e+00
   7.3932850e+02   1.0408330e+01
   7.3981060e+02   1.4009280e+01
   7.4029270e+02   2.7401610e+01
   7.4077480e+02   3.4437990e+01
   7.4125700e+02   3.0546390e+01
   7.4173910e+02   1.9771970e+01
   7.4222130e+02   1.3123170e+01
   7.4270340e+02   1.0922240e+01
   7.4318550e+02   1.0629880e+01
   7.4366760e+02   1.3163940e+01
   7.4414970e+02   1.5635620e+01
   7.4463180e+02   9.7557370e+00
   7.4511400e+02   2.8059080e+00
   7.4559610e+02   1.3562990e+01
   7.4607820e+02   1.6387820e+01
   7.4656030e+02   1.6761960e+01
   7.4704240e+02   1.7892330e+01
   7.4752450e+02   2.0016850e+01
   7.4800670e+02   2.3645260e+01
   7.4848880e+02   3.2383540e+01
   7.4897090e+02   3.9162600e+01
   7.4945300e+02   4.0066160e+01
   7.4993510e+02   3.4506100e+01
   7.5041720e+02   3.4864260e+01
   7.5089940e+02   4.2854860e+01
   7.5138150e+02   5.0820310e+01
   7.5186360e+02   5.0500730e+01
   7.5234570e+02   4.5256960e+01
   7.5282780e+02   5.0593630e+01
   7.5330990e+02   6.7714970e+01
   7.5379210e+02   8.3717410e+01
   7.5427420e+02   8.6743290e+01
   7.5475630e+02   8.4051150e+01
   7.5523840e+02   8.3056270e+01
   7.5572050e+02   8.5175540e+01
   7.5620260e+02   8.8617550e+01
   7.5668480e+02   9.6137450e+01
   7.5716690e+02   1.0267940e+02
   7.5764900e+02   1.0321000e+02
   7.5813110e+02   9.3087280e+01
   7.5861320e+02   8.9687130e+01
   7.5909530e+02   9.5651610e+01
   7.5957750e+02   1.0512440e+02
   7.6005960e+02   1.0933230e+02
   7.6054170e+02   1.0938390e+02
   7.6102380e+02   1.1425740e+02
   7.6150590e+02   1.2773070e+02
   7.6198800e+02   1.4159080e+02
   7.6247020e+02   1.4647090e+02
   7.6295230e+02   1.4567490e+02
   7.6343440e+02   1.4492300e+02
   7.6391650e+02   1.4462500e+02
   7.6439860e+02   1.4690730e+02
   7.6488070e+02   1.5341170e+02
   7.6536290e+02   1.6232400e+02
   7.6584500e+02   1.7076120e+02
   7.6632710e+02   1.8028280e+02
   7.6680920e+02   1.8522890e+02
   7.6729130e+02   1.8283950e+02
   7.6777340e+02   1.7704650e+02
   7.6825560e+02   1.7836170e+02
   7.6873770e+02   1.8569040e+02
   7.6921980e+02   1.9203630e+02
   7.6970190e+02   1.9455900e+02
   7.7018400e+02   1.9465950e+02
   7.7066610e+02   1.9225570e+02
   7.7114830e+02   1.8852250e+02
   7.7163040e+02   1.8713460e+02
   7.7211250e+02   1.8674370e+02
   7.7259460e+02   1.9212980e+02
   7.7307670e+02   2.1119930e+02
   7.7355880e+02   2.4040500e+02
   7.7404100e+02   2.5325820e+02
   7.7452310e+02   2.4310350e+02
   7.7500520e+02   2.3273210e+02
   7.7548730e+02   2.3059060e+02
   7.7596940e+02   2.3462710e+02
   7.7645150e+02   2.3616710e+02
   7.7693370e+02   2.3561710e+02
   7.7741580e+02   2.3776090e+02
   7.7789790e+02   2.5153810e+02
   7.7838000e+02   2.6666720e+02
   7.7886210e+02   2.6888060e+02
   7.7934420e+02   2.5841030e+02
   7.7982640e+02   2.4892150e+02
   7.8030850e+02   2.4583330e+02
   7.8079060e+02   2.4559790e+02
   7.8127270e+02   2.4642210e+02
   7.8175480e+02   2.4809010e+02
   7.8223690e+02   2.5121070e+02
   7.8271910e+02   2.5625070e+02
   7.8320120e+02   2.6073910e+02
   7.8368330e+02   2.6337120e+02
   7.8416540e+02   2.6430050e+02
   7.8464750e+02   2.6311230e+02
   7.8512960e+02   2.6035210e+02
   7.8561180e+02   2.5826280e+02
   7.8609390e+02   2.5769870e+02
   7.8657600e+02   2.5772810e+02
   7.8705810e+02   2.5949450e+02
   7.8754020e+02   2.6424840e+02
   7.8802230e+02   2.6637490e+02
   7.8850450e+02   2.5979240e+02
   7.8898660e+02   2.5223030e+02
   7.8946870e+02   2.5014550e+02
   7.8995080e+02   2.5749060e+02
   7.9043290e+02   2.5808630e+02
   7.9091500e+02   2.5004840e+02
   7.9139720e+02   2.4067490e+02
   7.9187930e+02   2.3712280e+02
   7.9236140e+02   2.3826720e+02
   7.9284350e+02   2.3826460e+02
   7.9332560e+02   2.3591670e+02
   7.9380770e+02   2.3295700e+02
   7.9428990e+02   2.3356760e+02
   7.9477200e+02   2.3409590e+02
   7.9525410e+02   2.2855910e+02
   7.9573620e+02   2.1075090e+02
   7.9621830e+02   1.9749130e+02
   7.9670040e+02   1.9742030e+02
   7.9718260e+02   2.0073840e+02
   7.9766470e+02   1.9753130e+02
   7.9814680e+02   1.8474570e+02
   7.9862890e+02   1.7298990e+02
   7.9911100e+02   1.6256740e+02
   7.9959310e+02   1.5681570e+02
   8.0007530e+02   1.6471370e+02
   8.0055740e+02   1.8095980e+02
   8.0103950e+02   1.8641940e+02
   8.0152160e+02   1.7361280e+02
   8.0200370e+02   1.5670570e+02
   8.0248580e+02   1.4672850e+02
   8.0296800e+02   1.4107670e+02
   8.0345010e+02   1.3546450e+02
   8.0393220e+02   1.2324720e+02
   8.0441430e+02   1.1900190e+02
   8.0489640e+02   1.2888960e+02
   8.0537850e+02   1.4379800e+02
   8.0586070e+02   1.4996900e+02
   8.0634280e+02   1.4635450e+02
   8.0682490e+02   1.4084970e+02
   8.0730700e+02   1.3446920e+02
   8.0778910e+02   1.2774800e+02
   8.0827120e+02   1.2010030e+02
   8.0875340e+02   1.1276780e+02
   8.0923550e+02   1.0941860e+02
   8.0971760e+02   1.1558760e+02
   8.1019970e+02   1.1971360e+02
   8.1068180e+02   1.1251070e+02
   8.1116390e+02   9.9420170e+01
   8.1164610e+02   8.9987550e+01
   8.1212820e+02   8.6795900e+01
   8.1261030e+02   8.5783750e+01
   8.1309240e+02   8.8128910e+01
   8.1357450e+02   9.1086790e+01
   8.1405660e+02   8.7024290e+01
   8.1453880e+02   7.6082520e+01
   8.1502090e+02   7.1214660e+01
   8.1550300e+02   7.9215880e+01
   8.1598510e+02   8.9506710e+01
   8.1646720e+02   8.5598750e+01
   8.1694930e+02   7.3294430e+01
   8.1743150e+02   6.5308960e+01
   8.1791360e+02   7.3655580e+01
   8.1839570e+02   7.9394900e+01
   8.1887780e+02   7.1954900e+01
   8.1935990e+02   5.7746580e+01
   8.1984200e+02   5.2930050e+01
   8.2032420e+02   6.3872920e+01
   8.2080630e+02   6.7880070e+01
   8.2128840e+02   5.7746830e+01
   8.2177050e+02   4.1050170e+01
   8.2225260e+02   3.4175420e+01
   8.2273470e+02   3.5850160e+01
   8.2321690e+02   3.8707580e+01
   8.2369900e+02   4.1537230e+01
   8.2418110e+02   4.2290770e+01
   8.2466320e+02   3.6074340e+01
   8.2514530e+02   2.6612670e+01
   8.2562740e+02   2.1750060e+01
   8.2610960e+02   2.9144650e+01
   8.2659170e+02   3.5127930e+01
   8.2707380e+02   3.6803160e+01
   8.2755590e+02   3.5314700e+01
   8.2803800e+02   3.3326900e+01
   8.2852010e+02   3.0940800e+01
   8.2900230e+02   2.7066530e+01
   8.2948440e+02   2.0707950e+01
   8.2996650e+02   1.3803770e+01
   8.3044860e+02   1.1160160e+01
   8.3093070e+02   1.1060420e+01
   8.3141280e+02   8.6068120e+00
   8.3189500e+02   4.2045290e+00
   8.3237710e+02   1.4014830e+01
   8.3285920e+02   1.1207890e+01
   8.3334130e+02   3.1982400e-01
   8.3382340e+02   7.6094970e+00
   8.3430550e+02   1.1904170e+01
   8.3478770e+02   1.2937990e+01
   8.3526980e+02   9.8431400e+00
   8.3575190e+02   4.2888790e+00
   8.3623400e+02   8.2092002e-02
   8.3671610e+02   2.8059690e+00
   8.3719820e+02   5.1138920e+00
   8.3768040e+02   7.0537720e+00
   8.3816250e+02   8.5643920e+00
   8.3864460e+02   1.0468380e+01
   8.3912670e+02   1.1813720e+01
   8.3960880e+02   1.0593750e+01
   8.4009090e+02   2.2972410e+00
   8.4057310e+02   4.2943730e+00
   8.4105520e+02   7.8914180e+00
   8.4153730e+02   8.0426030e+00
   8.4201940e+02   1.5359500e+00
   8.4250150e+02   1.4917300e+01
   8.4298360e+02   2.2472470e+01
   8.4346580e+02   1.4395320e+01
   8.4394790e+02   9.9633800e-01
   8.4443000e+02   8.3778080e+00
   8.4491210e+02   1.0313600e+01
   8.4539420e+02   1.4473880e+01
   8.4587630e+02   2.8231930e+01
   8.4635850e+02   3.9195190e+01
   8.4684060e+02   3.7327270e+01
   8.4732270e+02   2.8200440e+01
   8.4780480e+02   2.2799320e+01
   8.4828690e+02   2.6714840e+01
   8.4876900e+02   2.6710210e+01
   8.4925120e+02   1.9070310e+01
   8.4973330e+02   8.9808350e+00
   8.5021540e+02   7.1596680e+00
   8.5069750e+02   1.2893310e+01
   8.5117960e+02   1.6721070e+01
   8.5166170e+02   1.4406370e+01
   8.5214390e+02   1.2788330e+01
   8.5262600e+02   2.2680300e+01
   8.5310810e+02   3.7554570e+01
   8.5359020e+02   4.6656130e+01
   8.5407230e+02   3.8324950e+01
   8.5455440e+02   3.4105830e+01
   8.5503660e+02   4.1898680e+01
   8.5551870e+02   5.3971310e+01
   8.5600080e+02   5.9624880e+01
   8.5648290e+02   5.7269290e+01
   8.5696500e+02   5.8554690e+01
   8.5744710e+02   6.6608760e+01
   8.5792930e+02   7.4921510e+01
   8.5841140e+02   7.1910520e+01
   8.5889350e+02   6.2224730e+01
   8.5937560e+02   5.7345950e+01
   8.5985770e+02   6.3333980e+01
   8.6033980e+02   6.7586430e+01
   8.6082200e+02   5.9061280e+01
   8.6130410e+02   4.7067140e+01
   8.6178620e+02   4.3641110e+01
   8.6226830e+02   5.4536620e+01
   8.6275040e+02   6.2606320e+01
   8.6323250e+02   6.6274540e+01
   8.6371470e+02   6.8382320e+01
   8.6419680e+02   7.2475950e+01
   8.6467890e+02   7.8044430e+01
   8.6516100e+02   8.2749880e+01
   8.6564310e+02   8.6224240e+01
   8.6612520e+02   8.8437990e+01
   8.6660740e+02   8.8599120e+01
   8.6708950e+02   8.7786620e+01
   8.6757160e+02   8.6291870e+01
   8.6805370e+02   7.9828740e+01
   8.6853580e+02   8.4169560e+01
   8.6901790e+02   1.1096800e+02
   8.6950010e+02   1.3775000e+02
   8.6998220e+02   1.4288830e+02
   8.7046430e+02   1.2438980e+02
   8.7094640e+02   1.1376870e+02
   8.7142850e+02   1.1306380e+02
   8.7191060e+02   1.1603420e+02
   8.7239280e+02   1.1988150e+02
   8.7287490e+02   1.2247470e+02
   8.7335700e+02   1.1957300e+02
   8.7383910e+02   1.0965480e+02
   8.7432120e+02   1.0248330e+02
   8.7480330e+02   9.7497680e+01
   8.7528550e+02   9.9211550e+01
   8.7576760e+02   1.1337710e+02
   8.7624970e+02   1.4354300e+02
   8.7673180e+02   1.6063670e+02
   8.7721390e+02   1.6295250e+02
   8.7769600e+02   1.5761400e+02
   8.7817820e+02   1.4531770e+02
   8.7866030e+02   1.3095970e+02
   8.7914240e+02   1.2673390e+02
   8.7962450e+02   1.3229210e+02
   8.8010660e+02   1.3808150e+02
   8.8058870e+02   1.3894210e+02
   8.8107090e+02   1.3820470e+02
   8.8155300e+02   1.3709900e+02
   8.8203510e+02   1.3567380e+02
   8.8251730e+02   1.3703520e+02
   8.8299940e+02   1.4305020e+02
   8.8348150e+02   1.4786800e+02
   8.8396360e+02   1.4730760e+02
   8.8444570e+02   1.4321690e+02
   8.8492790e+02   1.4429280e+02
   8.8541000e+02   1.4951750e+02
   8.8589210e+02   1.5153920e+02
   8.8637420e+02   1.4279710e+02
   8.8685630e+02   1.3231090e+02
   8.8733840e+02   1.2604030e+02
   8.8782060e+02   1.2325830e+02
   8.8830270e+02   1.2032150e+02
   8.8878480e+02   1.1345580e+02
   8.8926690e+02   1.1266630e+02
   8.8974900e+02   1.2353060e+02
   8.9023110e+02   1.3969350e+02
   8.9071330e+02   1.3799770e+02
   8.9119540e+02   1.2089810e+02
   8.9167750e+02   1.1027760e+02
   8.9215960e+02   1.1953770e+02
   8.9264170e+02   1.3312870e+02
   8.9312380e+02   1.3419070e+02
   8.9360600e+02   1.2755750e+02
   8.9408810e+02   1.2340610e+02
   8.9457020e+02   1.3198670e+02
   8.9505230e+02   1.3345500e+02
   8.9553440e+02   1.2003740e+02
   8.9601650e+02   1.0154800e+02
   8.9649870e+02   9.6660890e+01
   8.9698080e+02   1.0609010e+02
   8.9746290e+02   1.1091540e+02
   8.9794500e+02   1.0712880e+02
   8.9842710e+02   9.9384770e+01
   8.9890920e+02   8.9526250e+01
   8.9939140e+02   8.0371950e+01
   8.9987350e+02   7.6818970e+01
   9.0035560e+02   8.2617680e+01
   9.0083770e+02   8.7904540e+01
   9.0131980e+02   9.3129390e+01
   9.0180190e+02   9.6652220e+01
   9.0228410e+02   9.4855830e+01
   9.0276620e+02   8.5796510e+01
   9.0324830e+02   8.1383910e+01
   9.0373040e+02   8.3012210e+01
   9.0421250e+02   8.6543210e+01
   9.0469460e+02   8.9838990e+01
   9.0517680e+02   9.0984860e+01
   9.0565890e+02   8.5047240e+01
   9.0614100e+02   7.0542720e+01
   9.0662310e+02   6.0237790e+01
   9.0710520e+02   6.4814940e+01
   9.0758730e+02   7.0909670e+01
   9.0806950e+02   6.9341190e+01
   9.0855160e+02   5.9173580e+01
   9.0903370e+02   5.4504760e+01
   9.0951580e+02   5.6267820e+01
   9.0999790e+02   5.7969120e+01
   9.1048000e+02   5.5101930e+01
   9.1096220e+02   4.9254760e+01
   9.1144430e+02   4.3123900e+01
   9.1192640e+02   3.7045780e+01
   9.1240850e+02   3.2601320e+01
   9.1289060e+02   3.2867550e+01
   9.1337270e+02   3.2853150e+01
   9.1385490e+02   2.9524780e+01
   9.1433700e+02   2.3406740e+01
   9.1481910e+02   1.7759400e+01
   9.1530120e+02   1.1831420e+01
   9.1578330e+02   9.1361080e+00
   9.1626540e+02   1.2097900e+01
   9.1674760e+02   1.7888550e+01
   9.1722970e+02   2.1731570e+01
   9.1771180e+02   2.3202880e+01
   9.1819390e+02   2.1093630e+01
   9.1867600e+02   9.4210210e+00
   9.1915810e+02   1.5075700e-01
   9.1964030e+02   1.0400400e-01
   9.2012240e+02   5.8826900e+00
   9.2060450e+02   8.3284910e+00
   9.2108660e+02   5.5806880e+00
   9.2156870e+02   4.1937260e+00
   9.2205080e+02   5.5407710e+00
   9.2253300e+02   7.5256350e+00
   9.2301510e+02   5.9460450e+00
   9.2349720e+02   2.3924560e+00
   9.2397930e+02   2.4150390e+00
   9.2446140e+02   8.8713380e+00
   9.2494350e+02   1.3150510e+01
   9.2542570e+02   8.6788330e+00
   9.2590780e+02   1.7443800e-01
   9.2638990e+02   8.6353760e+00
   9.2687200e+02   2.1523930e+01
   9.2735410e+02   2.1782350e+01
   9.2783620e+02   5.0191650e+00
   9.2831840e+02   1.2875850e+01
   9.2880050e+02   1.7953490e+01
   9.2928260e+02   1.2934690e+01
   9.2976470e+02   5.4237060e+00
   9.3024680e+02   3.9930420e+00
   9.3072890e+02   1.2324220e+01
   9.3121110e+02   2.0979860e+01
   9.3169320e+02   2.5210570e+01
   9.3217530e+02   1.8022220e+01
   9.3265740e+02   7.6782200e-01
   9.3313950e+02   6.3614500e+00
   9.3362160e+02   6.7235110e+00
   9.3410380e+02   1.8824460e+01
   9.3458590e+02   2.0986210e+01
   9.3506800e+02   1.6293330e+01
   9.3555010e+02   1.3563230e+01
   9.3603220e+02   1.1911250e+01
   9.3651430e+02   7.4965820e+00
   9.3699650e+02   6.4227290e+00
   9.3747860e+02   1.8706910e+01
   9.3796070e+02   2.3123410e+01
   9.3844280e+02   2.1118290e+01
   9.3892490e+02   1.7139160e+01
   9.3940700e+02   1.1123540e+01
   9.3988920e+02   2.6688230e+00
   9.4037130e+02   1.1007810e+01
   9.4085340e+02   2.2072020e+01
   9.4133550e+02   1.1992310e+01
   9.4181760e+02   1.1375000e+01
   9.4229970e+02   2.3426510e+01
   9.4278190e+02   1.5805420e+01
   9.4326400e+02   4.3081050e+00
   9.4374610e+02   6.8552250e+00
   9.4422820e+02   1.4546630e+01
   9.4471030e+02   1.5320070e+01
   9.4519240e+02   8.8426510e+00
   9.4567460e+02   5.0449220e+00
   9.4615670e+02   3.0178960e+01
   9.4663880e+02   5.0248540e+01
   9.4712090e+02   4.5435300e+01
   9.4760300e+02   2.5971310e+01
   9.4808510e+02   2.0091190e+01
   9.4856730e+02   2.8478270e+01
   9.4904940e+02   3.4640750e+01
   9.4953150e+02   2.6844970e+01
   9.5001360e+02   1.6050170e+01
   9.5049570e+02   6.6401370e+00
   9.5097780e+02   8.1018100e-01
   9.5146000e+02   1.4112550e+00
   9.5194210e+02   6.4622800e+00
   9.5242420e+02   1.4651250e+01
   9.5290630e+02   2.0047360e+01
   9.5338840e+02   2.3549440e+01
   9.5387050e+02   2.7347660e+01
   9.5435270e+02   3.0760620e+01
   9.5483480e+02   3.1821660e+01
   9.5531690e+02   2.8528560e+01
   9.5579900e+02   2.4026000e+01
   9.5628110e+02   1.6825560e+01
   9.5676320e+02   1.0189450e+01
   9.5724540e+02   9.2093510e+00
   9.5772750e+02   1.4667110e+01
   9.5820960e+02   2.3270870e+01
   9.5869170e+02   3.6302610e+01
   9.5917380e+02   4.6111080e+01
   9.5965590e+02   3.8846560e+01
   9.6013810e+02   2.3525150e+01
   9.6062020e+02   1.5711670e+01
   9.6110230e+02   1.8916260e+01
   9.6158440e+02   2.5081420e+01
   9.6206650e+02   3.2853880e+01
   9.6254860e+02   4.1390010e+01
   9.6303080e+02   5.1195560e+01
   9.6351290e+02   6.2445070e+01
   9.6399500e+02   6.6185180e+01
   9.6447710e+02   6.1622440e+01
   9.6495920e+02   5.9118160e+01
   9.6544130e+02   7.1390870e+01
   9.6592350e+02   8.5752560e+01
   9.6640560e+02   8.1307500e+01
   9.6688770e+02   6.3151860e+01
   9.6736980e+02   5.4329960e+01
   9.6785190e+02   7.2682250e+01
   9.6833400e+02   8.8906010e+01
   9.6881620e+02   9.4734380e+01
   9.6929830e+02   9.4759400e+01
   9.6978040e+02   1.0039220e+02
   9.7026250e+02   1.1142870e+02
   9.7074460e+02   1.2356480e+02
   9.7122670e+02   1.3747440e+02
   9.7170890e+02   1.4749670e+02
   9.7219100e+02   1.4273020e+02
   9.7267310e+02   1.3269180e+02
   9.7315520e+02   1.3000210e+02
   9.7363730e+02   1.4114550e+02
   9.7411940e+02   1.5242380e+02
   9.7460160e+02   1.6249110e+02
   9.7508370e+02   1.7335240e+02
   9.7556580e+02   1.8740700e+02
   9.7604790e+02   2.0386070e+02
   9.7653000e+02   2.2090980e+02
   9.7701210e+02   2.3811270e+02
   9.7749430e+02   2.4654980e+02
   9.7797640e+02   2.3027930e+02
   9.7845850e+02   2.1075840e+02
   9.7894060e+02   2.0383920e+02
   9.7942270e+02   2.1010340e+02
   9.7990480e+02   2.1831230e+02
   9.8038700e+02   2.2860230e+02
   9.8086910e+02   2.3980830e+02
   9.8135120e+02   2.5322060e+02
   9.8183330e+02   2.6539150e+02
   9.8231540e+02   2.6339490e+02
   9.8279750e+02   2.5268550e+02
   9.8327970e+02   2.5181530e+02
   9.8376180e+02   2.7488620e+02
   9.8424390e+02   2.9802050e+02
   9.8472600e+02   3.1167690e+02
   9.8520810e+02   3.1809080e+02
   9.8569020e+02   3.2001940e+02
   9.8617240e+02   3.1452870e+02
   9.8665450e+02   3.1448600e+02
   9.8713660e+02   3.2173790e+02
   9.8761870e+02   3.2927280e+02
   9.8810080e+02   3.3047360e+02
   9.8858290e+02   3.2672800e+02
   9.8906510e+02   3.1818160e+02
   9.8954720e+02   3.0511210e+02
   9.9002930e+02   2.9779410e+02
   9.9051140e+02   3.0353990e+02
   9.9099350e+02   3.1283370e+02
   9.9147560e+02   3.2275920e+02
   9.9195780e+02   3.3250320e+02
   9.9243990e+02   3.3699880e+02
   9.9292200e+02   3.3642140e+02
   9.9340410e+02   3.3781880e+02
   9.9388620e+02   3.4738110e+02
   9.9436830e+02   3.5652640e+02
   9.9485050e+02   3.5310300e+02
   9.9533260e+02   3.4282560e+02
   9.9581470e+02   3.3702310e+02
   9.9629680e+02   3.3935190e+02
   9.9677890e+02   3.4621580e+02
   9.9726100e+02   3.6057080e+02
   9.9774320e+02   3.7464750e+02
   9.9822530e+02   3.7757630e+02
   9.9870740e+02   3.7110130e+02
   9.9918950e+02   3.6668300e+02
   9.9967160e+02   3.6557730e+02
   1.0001540e+03   3.6243710e+02
   1.0006360e+03   3.5114550e+02
   1.0011180e+03   3.3816560e+02
   1.0016000e+03   3.2703120e+02
   1.0020820e+03   3.1808190e+02
   1.0025640e+03   3.1502040e+02
   1.0030460e+03   3.1927260e+02
   1.0035290e+03   3.2583850e+02
   1.0040110e+03   3.3429090e+02
   1.0044930e+03   3.4184010e+02
   1.0049750e+03   3.4190700e+02
   1.0054570e+03   3.3602290e+02
   1.0059390e+03   3.2866580e+02
   1.0064210e+03   3.1768850e+02
   1.0069030e+03   3.1026010e+02
   1.0073850e+03   3.0679630e+02
   1.0078680e+03   3.0928480e+02
   1.0083500e+03   3.2317440e+02
   1.0088320e+03   3.5069180e+02
   1.0093140e+03   3.6803600e+02
   1.0097960e+03   3.7221970e+02
   1.0102780e+03   3.7173110e+02
   1.0107600e+03   3.6918860e+02
   1.0112420e+03   3.6984010e+02
   1.0117250e+03   3.8124340e+02
   1.0122070e+03   4.0469060e+02
   1.0126890e+03   4.2813450e+02
   1.0131710e+03   4.5078830e+02
   1.0136530e+03   4.7084010e+02
   1.0141350e+03   4.8763700e+02
   1.0146170e+03   5.0138900e+02
   1.0150990e+03   5.1067270e+02
   1.0155810e+03   5.1695830e+02
   1.0160640e+03   5.2848990e+02
   1.0165460e+03   5.5289230e+02
   1.0170280e+03   5.7816250e+02
   1.0175100e+03   5.9533670e+02
   1.0179920e+03   6.0922710e+02
   1.0184740e+03   6.2705200e+02
   1.0189560e+03   6.4849710e+02
   1.0194380e+03   6.7664990e+02
   1.0199210e+03   7.1367550e+02
   1.0204030e+03   7.5028080e+02
   1.0208850e+03   7.7186160e+02
   1.0213670e+03   7.8798610e+02
   1.0218490e+03   8.1905570e+02
   1.0223310e+03   8.6607520e+02
   1.0228130e+03   9.0551070e+02
   1.0232950e+03   9.1792040e+02
   1.0237780e+03   9.3170030e+02
   1.0242600e+03   9.5804000e+02
   1.0247420e+03   9.9451830e+02
   1.0252240e+03   1.0315350e+03
   1.0257060e+03   1.0690280e+03
   1.0261880e+03   1.1022360e+03
   1.0266700e+03   1.1272950e+03
   1.0271520e+03   1.1513040e+03
   1.0276340e+03   1.1820430e+03
   1.0281170e+03   1.2155900e+03
   1.0285990e+03   1.2472300e+03
   1.0290810e+03   1.2746890e+03
   1.0295630e+03   1.3038640e+03
   1.0300450e+03   1.3370060e+03
   1.0305270e+03   1.3656860e+03
   1.0310090e+03   1.3786380e+03
   1.0314910e+03   1.3817590e+03
   1.0319740e+03   1.3947240e+03
   1.0324560e+03   1.4170070e+03
   1.0329380e+03   1.4338900e+03
   1.0334200e+03   1.4273290e+03
   1.0339020e+03   1.4249470e+03
   1.0343840e+03   1.4459380e+03
   1.0348660e+03   1.4794390e+03
   1.0353480e+03   1.4893440e+03
   1.0358300e+03   1.4739620e+03
   1.0363130e+03   1.4655300e+03
   1.0367950e+03   1.4745200e+03
   1.0372770e+03   1.4875710e+03
   1.0377590e+03   1.4944050e+03
   1.0382410e+03   1.4931590e+03
   1.0387230e+03   1.4794420e+03
   1.0392050e+03   1.4444320e+03
   1.0396870e+03   1.4197670e+03
   1.0401690e+03   1.4114430e+03
   1.0406520e+03   1.4059190e+03
   1.0411340e+03   1.3946300e+03
   1.0416160e+03   1.3779800e+03
   1.0420980e+03   1.3582070e+03
   1.0425800e+03   1.3354100e+03
   1.0430620e+03   1.3100240e+03
   1.0435440e+03   1.2832380e+03
   1.0440260e+03   1.2537830e+03
   1.0445090e+03   1.2177750e+03
   1.0449910e+03   1.1801810e+03
   1.0454730e+03   1.1510280e+03
   1.0459550e+03   1.1317870e+03
   1.0464370e+03   1.1114130e+03
   1.0469190e+03   1.0891170e+03
   1.0474010e+03   1.0627730e+03
   1.0478830e+03   1.0247480e+03
   1.0483650e+03   9.8351640e+02
   1.0488480e+03   9.4934350e+02
   1.0493300e+03   9.2378150e+02
   1.0498120e+03   9.0589670e+02
   1.0502940e+03   9.0071900e+02
   1.0507760e+03   8.9297990e+02
   1.0512580e+03   8.7722070e+02
   1.0517400e+03   8.5356180e+02
   1.0522220e+03   8.1731920e+02
   1.0527040e+03   7.7230740e+02
   1.0531870e+03   7.3260660e+02
   1.0536690e+03   7.0819210e+02
   1.0541510e+03   6.8624890e+02
   1.0546330e+03   6.5593840e+02
   1.0551150e+03   6.2740910e+02
   1.0555970e+03   6.1637630e+02
   1.0560790e+03   6.2902430e+02
   1.0565610e+03   6.2147740e+02
   1.0570440e+03   5.9040760e+02
   1.0575260e+03   5.5106570e+02
   1.0580080e+03   5.1040490e+02
   1.0584900e+03   4.7373440e+02
   1.0589720e+03   4.4913610e+02
   1.0594540e+03   4.3578090e+02
   1.0599360e+03   4.1984640e+02
   1.0604180e+03   3.9504530e+02
   1.0609010e+03   3.7518100e+02
   1.0613830e+03   3.6449870e+02
   1.0618650e+03   3.5852730e+02
   1.0623470e+03   3.5198910e+02
   1.0628290e+03   3.4432390e+02
   1.0633110e+03   3.3175880e+02
   1.0637930e+03   3.1046770e+02
   1.0642750e+03   2.9223360e+02
   1.0647570e+03   2.8760780e+02
   1.0652400e+03   2.8488830e+02
   1.0657220e+03   2.7308120e+02
   1.0662040e+03   2.5118550e+02
   1.0666860e+03   2.4249630e+02
   1.0671680e+03   2.4748610e+02
   1.0676500e+03   2.5125510e+02
   1.0681320e+03   2.4786430e+02
   1.0686140e+03   2.3627220e+02
   1.0690960e+03   2.0534280e+02
   1.0695790e+03   1.6584740e+02
   1.0700610e+03   1.4718910e+02
   1.0705430e+03   1.6671330e+02
   1.0710250e+03   1.7766640e+02
   1.0715070e+03   1.7467420e+02
   1.0719890e+03   1.6536120e+02
   1.0724710e+03   1.5872220e+02
   1.0729530e+03   1.5278890e+02
   1.0734360e+03   1.4001350e+02
   1.0739180e+03   1.1976460e+02
   1.0744000e+03   1.0677260e+02
   1.0748820e+03   1.1773950e+02
   1.0753640e+03   1.2610880e+02
   1.0758460e+03   1.1934580e+02
   1.0763280e+03   1.0260560e+02
   1.0768100e+03   9.6250850e+01
   1.0772920e+03   9.8683960e+01
   1.0777750e+03   9.6070920e+01
   1.0782570e+03   8.2433470e+01
   1.0787390e+03   6.6841920e+01
   1.0792210e+03   5.0842160e+01
   1.0797030e+03   3.9681460e+01
   1.0801850e+03   4.1921080e+01
   1.0806670e+03   6.2838750e+01
   1.0811490e+03   7.1441410e+01
   1.0816310e+03   6.6014530e+01
   1.0821140e+03   5.6549380e+01
   1.0825960e+03   4.7181880e+01
   1.0830780e+03   3.9542110e+01
   1.0835600e+03   4.0162230e+01
   1.0840420e+03   4.5458620e+01
   1.0845240e+03   4.3871400e+01
   1.0850060e+03   2.3040830e+01
   1.0854880e+03   6.8896480e+00
   1.0859710e+03   1.5332640e+00
   1.0864530e+03   4.5093990e+00
   1.0869350e+03   4.2739870e+00
   1.0874170e+03   1.0823360e+00
   1.0878990e+03   4.3888550e+00
   1.0883810e+03   1.1839050e+01
   1.0888630e+03   1.7795720e+01
   1.0893450e+03   2.3388610e+01
   1.0898280e+03   2.3873660e+01
   1.0903100e+03   1.3066650e+01
   1.0907920e+03   5.3598020e+00
   1.0912740e+03   1.1571900e+01
   1.0917560e+03   5.4805300e+00
   1.0922380e+03   9.9670400e-01
   1.0927200e+03   2.4985350e+00
   1.0932020e+03   7.8374020e+00
   1.0936840e+03   1.9967710e+01
   1.0941670e+03   3.2072450e+01
   1.0946490e+03   3.4782590e+01
   1.0951310e+03   2.3145630e+01
   1.0956130e+03   1.5962830e+01
   1.0960950e+03   1.4040220e+01
   1.0965770e+03   1.3735900e+01
   1.0970590e+03   1.1634950e+01
   1.0975410e+03   1.0156620e+01
   1.0980240e+03   1.7409240e+01
   1.0985060e+03   2.9382080e+01
   1.0989880e+03   3.3708920e+01
   1.0994700e+03   1.9271790e+01
   1.0999520e+03   5.8134160e+00
   1.1004340e+03   4.9437260e+00
   1.1009160e+03   1.1834960e+01
   1.1013980e+03   1.2249150e+01
   1.1018800e+03   7.4431150e+00
   1.1023630e+03   2.7513430e+00
   1.1028450e+03   1.5090330e+00
   1.1033270e+03   3.6112670e+00
   1.1038090e+03   1.5272220e+00
   1.1042910e+03   4.8992310e+00
   1.1047730e+03   9.4360400e-01
   1.1052550e+03   1.2049130e+01
   1.1057370e+03   1.3910100e+01
   1.1062190e+03   6.5303960e+00
   1.1067020e+03   2.5803220e+00
   1.1071840e+03   6.6346440e+00
   1.1076660e+03   9.9332280e+00
   1.1081480e+03   3.3825070e+00
   1.1086300e+03   7.7766720e+00
   1.1091120e+03   1.9943660e+01
   1.1095940e+03   3.4141170e+01
   1.1100760e+03   3.5852050e+01
   1.1105590e+03   2.1437440e+01
   1.1110410e+03   9.6416020e+00
   1.1115230e+03   1.2234190e+01
   1.1120050e+03   2.0961730e+01
   1.1124870e+03   2.1756160e+01
   1.1129690e+03   1.8210750e+01
   1.1134510e+03   1.7875730e+01
   1.1139330e+03   3.0991210e+01
   1.1144160e+03   3.4511720e+01
   1.1148980e+03   2.2892880e+01
   1.1153800e+03   9.3583980e+00
   1.1158620e+03   6.6892700e+00
   1.1163440e+03   1.1898190e+01
   1.1168260e+03   1.6301210e+01
   1.1173080e+03   1.9336300e+01
   1.1177900e+03   1.9485170e+01
   1.1182720e+03   7.5844730e+00
   1.1187550e+03   3.2744750e+00
   1.1192370e+03   1.9907530e+01
   1.1197190e+03   4.3147770e+01
   1.1202010e+03   4.3871640e+01
   1.1206830e+03   2.4689030e+01
   1.1211650e+03   1.6376590e+01
   1.1216470e+03   2.4474490e+01
   1.1221290e+03   3.2460690e+01
   1.1226110e+03   2.4060120e+01
   1.1230940e+03   1.4194090e+01
   1.1235760e+03   1.4258000e+01
   1.1240580e+03   2.3360230e+01
   1.1245400e+03   3.5216060e+01
   1.1250220e+03   5.0471620e+01
   1.1255040e+03   6.1088810e+01
   1.1259860e+03   6.3660520e+01
   1.1264680e+03   6.2451050e+01
   1.1269510e+03   5.8840520e+01
   1.1274330e+03   5.6000790e+01
   1.1279150e+03   5.9443300e+01
   1.1283970e+03   7.4528990e+01
   1.1288790e+03   7.7064030e+01
   1.1293610e+03   6.3631470e+01
   1.1298430e+03   4.9052610e+01
   1.1303250e+03   4.1155640e+01
   1.1308070e+03   3.8158140e+01
   1.1312900e+03   3.8146790e+01
   1.1317720e+03   4.0424320e+01
   1.1322540e+03   4.3306400e+01
   1.1327360e+03   5.0333190e+01
   1.1332180e+03   5.0685550e+01
   1.1337000e+03   3.8983760e+01
   1.1341820e+03   2.8767940e+01
   1.1346640e+03   3.7015810e+01
   1.1351460e+03   5.6730040e+01
   1.1356290e+03   6.5620970e+01
   1.1361110e+03   6.4034970e+01
   1.1365930e+03   6.1264530e+01
   1.1370750e+03   5.9144040e+01
   1.1375570e+03   6.0187810e+01
   1.1380390e+03   6.7686650e+01
   1.1385210e+03   7.6261230e+01
   1.1390030e+03   7.4747310e+01
   1.1394860e+03   6.5064640e+01
   1.1399680e+03   6.0327450e+01
   1.1404500e+03   6.2859860e+01
   1.1409320e+03   6.4842530e+01
   1.1414140e+03   5.8626160e+01
   1.1418960e+03   5.2544680e+01
   1.1423780e+03   5.1803470e+01
   1.1428600e+03   5.5574890e+01
   1.1433430e+03   6.2909730e+01
   1.1438250e+03   7.3660520e+01
   1.1443070e+03   7.4862300e+01
   1.1447890e+03   5.9224430e+01
   1.1452710e+03   4.5167540e+01
   1.1457530e+03   5.4318660e+01
   1.1462350e+03   7.0045290e+01
   1.1467170e+03   7.3613890e+01
   1.1471990e+03   6.2787540e+01
   1.1476820e+03   6.2026730e+01
   1.1481640e+03   7.2853700e+01
   1.1486460e+03   8.1058900e+01
   1.1491280e+03   7.7505800e+01
   1.1496100e+03   7.1791990e+01
   1.1500920e+03   7.5999570e+01
   1.1505740e+03   8.4499760e+01
   1.1510560e+03   8.7710330e+01
   1.1515380e+03   7.8326840e+01
   1.1520210e+03   7.6921570e+01
   1.1525030e+03   8.7575260e+01
   1.1529850e+03   9.5630130e+01
   1.1534670e+03   8.3858890e+01
   1.1539490e+03   6.4077270e+01
   1.1544310e+03   5.5807430e+01
   1.1549130e+03   5.6601990e+01
   1.1553950e+03   5.6855710e+01
   1.1558780e+03   5.3035460e+01
   1.1563600e+03   4.9102600e+01
   1.1568420e+03   4.5120480e+01
   1.1573240e+03   4.4466550e+01
   1.1578060e+03   5.3916990e+01
   1.1582880e+03   6.7001400e+01
   1.1587700e+03   6.6430240e+01
   1.1592520e+03   5.2385250e+01
   1.1597340e+03   4.1917970e+01
   1.1602170e+03   4.4737240e+01
   1.1606990e+03   4.8297850e+01
   1.1611810e+03   5.0165650e+01
   1.1616630e+03   5.0997500e+01
   1.1621450e+03   4.9435670e+01
   1.1626270e+03   4.6536010e+01
   1.1631090e+03   4.7867130e+01
   1.1635910e+03   5.5484440e+01
   1.1640730e+03   6.2422180e+01
   1.1645560e+03   6.4240910e+01
   1.1650380e+03   6.3946290e+01
   1.1655200e+03   6.2710080e+01
   1.1660020e+03   6.1521360e+01
   1.1664840e+03   6.1644170e+01
   1.1669660e+03   6.2812680e+01
   1.1674480e+03   6.4934880e+01
   1.1679300e+03   6.8256900e+01
   1.1684130e+03   7.0557800e+01
   1.1688950e+03   7.1477230e+01
   1.1693770e+03   7.0291080e+01
   1.1698590e+03   6.5792600e+01
   1.1703410e+03   5.8233090e+01
   1.1708230e+03   5.3982300e+01
   1.1713050e+03   5.2812680e+01
   1.1717870e+03   5.0946840e+01
   1.1722700e+03   4.4307860e+01
   1.1727520e+03   3.9268860e+01
   1.1732340e+03   4.2343930e+01
   1.1737160e+03   4.7854250e+01
   1.1741980e+03   4.9047120e+01
   1.1746800e+03   4.4963200e+01
   1.1751620e+03   4.4837160e+01
   1.1756440e+03   4.8586790e+01
   1.1761260e+03   5.0408200e+01
   1.1766090e+03   4.3934750e+01
   1.1770910e+03   3.8208860e+01
   1.1775730e+03   4.0608520e+01
   1.1780550e+03   4.7086610e+01
   1.1785370e+03   5.0506840e+01
   1.1790190e+03   5.0479000e+01
   1.1795010e+03   4.9128050e+01
   1.1799830e+03   4.6277530e+01
   1.1804650e+03   4.4256470e+01
   1.1809480e+03   4.7459900e+01
   1.1814300e+03   5.0618650e+01
   1.1819120e+03   4.6563660e+01
   1.1823940e+03   3.8401250e+01
   1.1828760e+03   3.8698060e+01
   1.1833580e+03   5.1526670e+01
   1.1838400e+03   5.4236270e+01
   1.1843220e+03   4.2552250e+01
   1.1848050e+03   2.8613100e+01
   1.1852870e+03   2.4531860e+01
   1.1857690e+03   2.4857970e+01
   1.1862510e+03   2.3943240e+01
   1.1867330e+03   2.1644100e+01
   1.1872150e+03   2.0761720e+01
   1.1876970e+03   2.0704280e+01
   1.1881790e+03   2.4534120e+01
   1.1886610e+03   3.3839660e+01
   1.1891440e+03   4.4459840e+01
   1.1896260e+03   5.2702390e+01
   1.1901080e+03   5.8177610e+01
   1.1905900e+03   5.9698970e+01
   1.1910720e+03   5.6796260e+01
   1.1915540e+03   5.3745670e+01
   1.1920360e+03   5.0101260e+01
   1.1925180e+03   4.9169490e+01
   1.1930000e+03   5.3499760e+01
   1.1934830e+03   5.7789370e+01
   1.1939650e+03   5.2441160e+01
   1.1944470e+03   4.2973940e+01
   1.1949290e+03   3.7661560e+01
   1.1954110e+03   3.9110660e+01
   1.1958930e+03   4.0349430e+01
   1.1963750e+03   4.1890990e+01
   1.1968570e+03   4.0410460e+01
   1.1973400e+03   3.2056640e+01
   1.1978220e+03   2.2908570e+01
   1.1983040e+03   2.5112180e+01
   1.1987860e+03   3.3579160e+01
   1.1992680e+03   3.9137570e+01
   1.1997500e+03   3.7701230e+01
   1.2002320e+03   3.8311400e+01
   1.2007140e+03   4.3314090e+01
   1.2011970e+03   4.5165100e+01
   1.2016790e+03   3.4589480e+01
   1.2021610e+03   2.1146420e+01
   1.2026430e+03   2.7455020e+01
   1.2031250e+03   4.5012570e+01
   1.2036070e+03   5.5400020e+01
   1.2040890e+03   4.7463620e+01
   1.2045710e+03   3.9119200e+01
   1.2050530e+03   2.9468810e+01
   1.2055360e+03   2.2766910e+01
   1.2060180e+03   2.5283630e+01
   1.2065000e+03   3.1784790e+01
   1.2069820e+03   3.0586490e+01
   1.2074640e+03   2.4195800e+01
   1.2079460e+03   2.0856020e+01
   1.2084280e+03   2.3520510e+01
   1.2089100e+03   3.0255740e+01
   1.2093920e+03   4.4376650e+01
   1.2098750e+03   5.4174930e+01
   1.2103570e+03   4.4623290e+01
   1.2108390e+03   2.4664430e+01
   1.2113210e+03   7.0100710e+00
   1.2118030e+03   6.0172730e+00
   1.2122850e+03   8.4067380e+00
   1.2127670e+03   1.5583680e+01
   1.2132490e+03   2.7738530e+01
   1.2137320e+03   2.0719910e+01
   1.2142140e+03   8.3054200e+00
   1.2146960e+03   6.5703130e+00
   1.2151780e+03   1.0787540e+01
   1.2156600e+03   1.2758730e+01
   1.2161420e+03   1.2099980e+01
   1.2166240e+03   1.1154600e+01
   1.2171060e+03   1.0360530e+01
   1.2175890e+03   9.2468870e+00
   1.2180710e+03   7.4198000e+00
   1.2185530e+03   6.3372800e+00
   1.2190350e+03   8.5910030e+00
   1.2195170e+03   1.2658260e+01
   1.2199990e+03   1.7106260e+01
   1.2204810e+03   2.1549010e+01
   1.2209630e+03   2.0678650e+01
   1.2214450e+03   8.4702150e+00
   1.2219270e+03   1.8073730e+00
   1.2224100e+03   5.5988770e+00
   1.2228920e+03   1.4283330e+01
   1.2233740e+03   2.1724610e+01
   1.2238560e+03   2.7356080e+01
   1.2243380e+03   2.9443660e+01
   1.2248200e+03   2.7528020e+01
   1.2253020e+03   2.7186460e+01
   1.2257840e+03   2.9812440e+01
   1.2262670e+03   3.2565000e+01
   1.2267490e+03   3.5117190e+01
   1.2272310e+03   3.6363340e+01
   1.2277130e+03   3.3622990e+01
   1.2281950e+03   2.8748960e+01
   1.2286770e+03   2.4957580e+01
   1.2291590e+03   2.3174560e+01
   1.2296410e+03   1.8867740e+01
   1.2301240e+03   9.3577880e+00
   1.2306060e+03   4.3836670e+00
   1.2310880e+03   8.8867190e+00
   1.2315700e+03   1.7455510e+01
   1.2320520e+03   2.2629820e+01
   1.2325340e+03   2.5400570e+01
   1.2330160e+03   2.7878300e+01
   1.2334980e+03   3.1186650e+01
   1.2339800e+03   2.8634950e+01
   1.2344630e+03   1.7855530e+01
   1.2349450e+03   9.5842900e+00
   1.2354270e+03   8.9750980e+00
   1.2359090e+03   1.2488830e+01
   1.2363910e+03   9.8604130e+00
   1.2368730e+03   9.7937620e+00
   1.2373550e+03   3.0975280e+01
   1.2378370e+03   9.1724180e+01
   1.2383200e+03   1.0636600e+02
   1.2388020e+03   6.4244380e+01
   1.2392840e+03   2.6043210e+01
   1.2397660e+03   2.7870120e+01
   1.2402480e+03   4.2954350e+01
   1.2407300e+03   3.6058290e+01
   1.2412120e+03   1.8543330e+01
   1.2416940e+03   7.9810790e+00
   1.2421770e+03   8.3890990e+00
   1.2426590e+03   8.1752320e+00
   1.2431410e+03   7.1724850e+00
   1.2436230e+03   6.7343750e+00
   1.2441050e+03   7.6376340e+00
   1.2445870e+03   9.4557500e+00
   1.2450690e+03   1.3105590e+01
   1.2455510e+03   1.6898070e+01
   1.2460330e+03   1.7923580e+01
   1.2465160e+03   1.5505620e+01
   1.2469980e+03   1.2854920e+01
   1.2474800e+03   9.9320680e+00
   1.2479620e+03   8.3588260e+00
   1.2484440e+03   9.5200810e+00
   1.2489260e+03   1.2135620e+01
   1.2494080e+03   1.5214230e+01
   1.2498900e+03   1.9024350e+01
   1.2503720e+03   2.5356320e+01
   1.2508550e+03   3.6473080e+01
   1.2513370e+03   3.3118770e+01
   1.2518190e+03   1.4225040e+01
   1.2523010e+03   1.4794310e+00
   1.2527830e+03   3.6982420e+00
   1.2532650e+03   7.1374500e-01
   1.2537470e+03   4.8226930e+00
   1.2542290e+03   1.0775020e+01
   1.2547120e+03   1.4139710e+01
   1.2551940e+03   1.4785340e+01
   1.2556760e+03   1.7112060e+01
   1.2561580e+03   2.0953610e+01
   1.2566400e+03   2.2528810e+01
   1.2571220e+03   1.9096860e+01
   1.2576040e+03   1.3636840e+01
   1.2580860e+03   4.4711910e+00
   1.2585680e+03   3.7289430e+00
   1.2590510e+03   3.7389530e+00
   1.2595330e+03   3.4434200e+00
   1.2600150e+03   3.4371340e+00
   1.2604970e+03   3.3713990e+00
   1.2609790e+03   7.5418090e+00
   1.2614610e+03   3.1701700e-01
   1.2619430e+03   6.7595830e+00
   1.2624250e+03   4.5768430e+00
   1.2629070e+03   1.1394040e+00
   1.2633900e+03   6.5310670e+00
   1.2638720e+03   1.8325380e+01
   1.2643540e+03   2.5742000e+01
   1.2648360e+03   2.8537720e+01
   1.2653180e+03   2.9235600e+01
   1.2658000e+03   2.9931880e+01
   1.2662820e+03   2.6798100e+01
   1.2667640e+03   1.7554320e+01
   1.2672470e+03   7.1346440e+00
   1.2677290e+03   1.8591300e-01
   1.2682110e+03   3.0037230e+00
   1.2686930e+03   1.1401400e-01
   1.2691750e+03   7.8637080e+00
   1.2696570e+03   1.4150820e+01
   1.2701390e+03   1.6168330e+01
   1.2706210e+03   1.6393740e+01
   1.2711040e+03   1.4551880e+01
   1.2715860e+03   1.2363040e+01
   1.2720680e+03   1.0015140e+01
   1.2725500e+03   9.6336060e+00
   1.2730320e+03   1.7686890e+01
   1.2735140e+03   3.1392760e+01
   1.2739960e+03   3.3665590e+01
   1.2744780e+03   1.4968630e+01
   1.2749600e+03   2.6184080e+00
   1.2754430e+03   7.7014200e-01
   1.2759250e+03   3.8606570e+00
   1.2764070e+03   8.3038940e+00
   1.2768890e+03   1.3096310e+01
   1.2773710e+03   1.4562930e+01
   1.2778530e+03   1.2783810e+01
   1.2783350e+03   8.6570430e+00
   1.2788170e+03   8.8171400e-01
   1.2792990e+03   2.7294920e+00
   1.2797820e+03   1.4939580e+00
   1.2802640e+03   3.0213010e+00
   1.2807460e+03   1.2291690e+01
   1.2812280e+03   1.9962100e+01
   1.2817100e+03   1.7407650e+01
   1.2821920e+03   9.2685550e+00
   1.2826740e+03   1.0790590e+01
   1.2831560e+03   2.2805970e+01
   1.2836390e+03   2.6515140e+01
   1.2841210e+03   1.9440670e+01
   1.2846030e+03   1.2378850e+01
   1.2850850e+03   1.2163640e+01
   1.2855670e+03   1.4315800e+01
   1.2860490e+03   2.3262510e+01
   1.2865310e+03   3.2369810e+01
   1.2870130e+03   2.8641420e+01
   1.2874950e+03   1.4600830e+01
   1.2879780e+03   1.4152160e+01
   1.2884600e+03   2.9294620e+01
   1.2889420e+03   3.8619450e+01
   1.2894240e+03   2.3622190e+01
   1.2899060e+03   8.6505740e+00
   1.2903880e+03   5.4583700e-01
   1.2908700e+03   0.0000000e+00
   1.5000000e+03   0.0000000e+00
