   1.0000000e+02   0.0000000e+00
   1.4760790e+02   0.0000000e+00
   1.4809010e+02   5.5625000e+00
   1.4857220e+02   1.0192380e+01
   1.4905430e+02   1.2611330e+01
   1.4953640e+02   8.9082030e+00
   1.5001850e+02   4.5771480e+00
   1.5050060e+02   1.5449220e+00
   1.5098280e+02   4.4140600e-01
   1.5146490e+02   8.3115230e+00
   1.5194700e+02   2.4357420e+01
   1.5242910e+02   4.5797850e+01
   1.5291120e+02   8.3506840e+01
   1.5339330e+02   1.2075100e+02
   1.5387550e+02   1.4640230e+02
   1.5435760e+02   1.4972360e+02
   1.5483970e+02   1.5051270e+02
   1.5532180e+02   1.5204880e+02
   1.5580390e+02   1.5430180e+02
   1.5628600e+02   1.5786520e+02
   1.5676820e+02   1.7060060e+02
   1.5725030e+02   1.8258980e+02
   1.5773240e+02   1.8785160e+02
   1.5821450e+02   1.5682520e+02
   1.5869660e+02   1.2145410e+02
   1.5917870e+02   9.8948240e+01
   1.5966090e+02   8.0541990e+01
   1.6014300e+02   9.9741210e+01
   1.6062510e+02   2.0766890e+02
   1.6110720e+02   3.6116310e+02
   1.6158930e+02   4.6758110e+02
   1.6207140e+02   4.8034380e+02
   1.6255360e+02   4.4224220e+02
   1.6303570e+02   3.7905270e+02
   1.6351780e+02   2.6399800e+02
   1.6399990e+02   1.6357810e+02
   1.6448200e+02   1.1990230e+02
   1.6496410e+02   1.2450780e+02
   1.6544630e+02   1.3030660e+02
   1.6592840e+02   1.1364450e+02
   1.6641050e+02   8.3963870e+01
   1.6689260e+02   5.3740230e+01
   1.6737470e+02   1.6833010e+01
   1.6785680e+02   9.7099610e+00
   1.6833900e+02   9.7753910e+00
   1.6882110e+02   1.7863280e+01
   1.6930320e+02   4.9250000e+01
   1.6978530e+02   7.5413090e+01
   1.7026740e+02   8.8290040e+01
   1.7074950e+02   9.2826170e+01
   1.7123170e+02   8.5752930e+01
   1.7171380e+02   7.1742190e+01
   1.7219590e+02   5.4626950e+01
   1.7267800e+02   3.3020510e+01
   1.7316010e+02   1.7807620e+01
   1.7364220e+02   2.2158200e+01
   1.7412440e+02   4.0256840e+01
   1.7460650e+02   5.7932620e+01
   1.7508860e+02   7.2404300e+01
   1.7557070e+02   7.6084960e+01
   1.7605280e+02   7.3761720e+01
   1.7653490e+02   5.9887700e+01
   1.7701710e+02   5.0654300e+01
   1.7749920e+02   7.2049800e+01
   1.7798130e+02   1.1958790e+02
   1.7846340e+02   1.6425100e+02
   1.7894550e+02   1.8931150e+02
   1.7942760e+02   1.9454390e+02
   1.7990980e+02   1.7916310e+02
   1.8039190e+02   1.3111620e+02
   1.8087400e+02   7.9744140e+01
   1.8135610e+02   4.3804690e+01
   1.8183820e+02   3.6418950e+01
   1.8232030e+02   4.0791020e+01
   1.8280250e+02   4.5662110e+01
   1.8328460e+02   3.5551760e+01
   1.8376670e+02   3.0647460e+01
   1.8424880e+02   3.3096680e+01
   1.8473090e+02   4.4954100e+01
   1.8521300e+02   8.0990230e+01
   1.8569510e+02   1.4935350e+02
   1.8617730e+02   2.1425100e+02
   1.8665940e+02   2.2005370e+02
   1.8714150e+02   1.7213770e+02
   1.8762360e+02   1.2245700e+02
   1.8810570e+02   9.7332030e+01
   1.8858780e+02   9.3878910e+01
   1.8907000e+02   9.8463870e+01
   1.8955210e+02   1.1459570e+02
   1.9003420e+02   1.2957710e+02
   1.9051630e+02   1.0688180e+02
   1.9099840e+02   4.4525390e+01
   1.9148050e+02   1.6816410e+00
   1.9196270e+02   2.9849610e+01
   1.9244480e+02   1.3013570e+02
   1.9292690e+02   1.8730270e+02
   1.9340900e+02   1.6963960e+02
   1.9389110e+02   1.0400490e+02
   1.9437320e+02   7.1949220e+01
   1.9485540e+02   7.8715820e+01
   1.9533750e+02   9.8947270e+01
   1.9581960e+02   1.1000100e+02
   1.9630170e+02   1.1421780e+02
   1.9678380e+02   1.1212210e+02
   1.9726590e+02   1.0187890e+02
   1.9774810e+02   8.5263670e+01
   1.9823020e+02   6.9223630e+01
   1.9871230e+02   5.0407230e+01
   1.9919440e+02   4.2840820e+01
   1.9967650e+02   7.9756840e+01
   2.0015860e+02   1.7218850e+02
   2.0064080e+02   2.2753910e+02
   2.0112290e+02   1.9391210e+02
   2.0160500e+02   6.9580080e+01
   2.0208710e+02   1.8281250e+00
   2.0256920e+02   9.0058590e+00
   2.0305130e+02   1.9801760e+01
   2.0353350e+02   3.9513670e+01
   2.0401560e+02   4.9639650e+01
   2.0449770e+02   5.5559570e+01
   2.0497980e+02   5.8670900e+01
   2.0546190e+02   5.9547850e+01
   2.0594400e+02   6.0118160e+01
   2.0642620e+02   5.8286130e+01
   2.0690830e+02   5.7321290e+01
   2.0739040e+02   6.9028320e+01
   2.0787250e+02   9.9368160e+01
   2.0835460e+02   1.2549020e+02
   2.0883670e+02   1.3213960e+02
   2.0931890e+02   1.1400880e+02
   2.0980100e+02   9.8226560e+01
   2.1028310e+02   8.7320310e+01
   2.1076520e+02   8.0458980e+01
   2.1124730e+02   7.5972660e+01
   2.1172940e+02   7.8547850e+01
   2.1221160e+02   7.4848630e+01
   2.1269370e+02   4.7538090e+01
   2.1317580e+02   1.9795900e+01
   2.1365790e+02   5.5071290e+01
   2.1414000e+02   3.7626950e+01
   2.1462210e+02   2.8318360e+01
   2.1510430e+02   7.7003910e+01
   2.1558640e+02   1.1179880e+02
   2.1606850e+02   1.2618750e+02
   2.1655060e+02   1.0498240e+02
   2.1703270e+02   2.3999020e+01
   2.1751480e+02   2.9998050e+01
   2.1799700e+02   2.9625980e+01
   2.1847910e+02   2.9245120e+01
   2.1896120e+02   6.7318360e+01
   2.1944330e+02   7.4837890e+01
   2.1992540e+02   7.0428710e+01
   2.2040750e+02   7.8928710e+01
   2.2088970e+02   1.0614940e+02
   2.2137180e+02   1.3346000e+02
   2.2185390e+02   1.5653710e+02
   2.2233600e+02   1.7762890e+02
   2.2281810e+02   1.8251560e+02
   2.2330020e+02   1.6086230e+02
   2.2378240e+02   1.2922070e+02
   2.2426450e+02   1.2084080e+02
   2.2474660e+02   1.5365620e+02
   2.2522870e+02   1.7869240e+02
   2.2571080e+02   1.7223630e+02
   2.2619290e+02   1.1514260e+02
   2.2667500e+02   8.4568360e+01
   2.2715720e+02   8.6481450e+01
   2.2763930e+02   1.1250980e+02
   2.2812140e+02   1.4475490e+02
   2.2860350e+02   1.9420410e+02
   2.2908560e+02   2.3534080e+02
   2.2956770e+02   2.5009470e+02
   2.3004990e+02   2.2266600e+02
   2.3053200e+02   2.0721780e+02
   2.3101410e+02   2.1032230e+02
   2.3149620e+02   2.2743550e+02
   2.3197830e+02   2.4070020e+02
   2.3246040e+02   2.5283110e+02
   2.3294260e+02   2.5699710e+02
   2.3342470e+02   2.4734570e+02
   2.3390680e+02   2.1422170e+02
   2.3438890e+02   1.8708500e+02
   2.3487100e+02   1.6886230e+02
   2.3535310e+02   1.5913770e+02
   2.3583530e+02   1.5508980e+02
   2.3631740e+02   1.6173050e+02
   2.3679950e+02   1.6866210e+02
   2.3728160e+02   1.6760640e+02
   2.3776370e+02   1.5361430e+02
   2.3824580e+02   1.4115720e+02
   2.3872800e+02   1.3005960e+02
   2.3921010e+02   1.2050290e+02
   2.3969220e+02   1.2536330e+02
   2.4017430e+02   1.6383590e+02
   2.4065640e+02   1.9772950e+02
   2.4113850e+02   1.8561720e+02
   2.4162070e+02   8.4375980e+01
   2.4210280e+02   1.3228520e+01
   2.4258490e+02   6.8261700e-01
   2.4306700e+02   4.7095700e+01
   2.4354910e+02   1.0027250e+02
   2.4403130e+02   1.6853520e+02
   2.4451340e+02   2.3376270e+02
   2.4499550e+02   2.7306150e+02
   2.4547760e+02   2.7119340e+02
   2.4595970e+02   2.7058790e+02
   2.4644180e+02   2.8823830e+02
   2.4692400e+02   3.3388670e+02
   2.4740610e+02   3.3926460e+02
   2.4788820e+02   2.8287990e+02
   2.4837030e+02   2.0212990e+02
   2.4885240e+02   1.5219530e+02
   2.4933450e+02   1.4252540e+02
   2.4981670e+02   1.4555180e+02
   2.5029880e+02   1.5281740e+02
   2.5078090e+02   1.6266210e+02
   2.5126300e+02   1.6771970e+02
   2.5174510e+02   1.6625390e+02
   2.5222720e+02   1.6171000e+02
   2.5270940e+02   1.6054880e+02
   2.5319150e+02   1.6362300e+02
   2.5367360e+02   1.6849510e+02
   2.5415570e+02   1.7362500e+02
   2.5463780e+02   1.7651460e+02
   2.5511990e+02   1.8946000e+02
   2.5560210e+02   2.2666020e+02
   2.5608420e+02   2.6735060e+02
   2.5656630e+02   2.5945210e+02
   2.5704840e+02   1.6461720e+02
   2.5753050e+02   8.0005860e+01
   2.5801260e+02   5.7029300e+01
   2.5849480e+02   1.2696390e+02
   2.5897690e+02   1.7190720e+02
   2.5945900e+02   1.8133200e+02
   2.5994110e+02   1.6459180e+02
   2.6042320e+02   1.5995900e+02
   2.6090530e+02   1.7732710e+02
   2.6138750e+02   1.9318550e+02
   2.6186960e+02   1.9452440e+02
   2.6235170e+02   1.7537600e+02
   2.6283380e+02   1.5942090e+02
   2.6331590e+02   1.4520410e+02
   2.6379800e+02   1.3810350e+02
   2.6428020e+02   1.5125100e+02
   2.6476230e+02   1.8845310e+02
   2.6524440e+02   2.2269040e+02
   2.6572650e+02   2.4422170e+02
   2.6620860e+02   2.5249510e+02
   2.6669070e+02   2.5108890e+02
   2.6717290e+02   2.3159180e+02
   2.6765500e+02   2.0298340e+02
   2.6813710e+02   2.0540040e+02
   2.6861920e+02   2.5255660e+02
   2.6910130e+02   2.9947360e+02
   2.6958340e+02   3.0975980e+02
   2.7006560e+02   2.7220310e+02
   2.7054770e+02   2.5046970e+02
   2.7102980e+02   2.5719730e+02
   2.7151190e+02   2.8243260e+02
   2.7199400e+02   2.8412210e+02
   2.7247610e+02   2.5605080e+02
   2.7295830e+02   2.2482130e+02
   2.7344040e+02   2.1399320e+02
   2.7392250e+02   2.2803420e+02
   2.7440460e+02   2.3838380e+02
   2.7488670e+02   2.4069340e+02
   2.7536880e+02   2.3385940e+02
   2.7585100e+02   2.2459080e+02
   2.7633310e+02   2.1655570e+02
   2.7681520e+02   2.0334860e+02
   2.7729730e+02   1.7503710e+02
   2.7777940e+02   1.2818550e+02
   2.7826150e+02   9.9475590e+01
   2.7874370e+02   1.0041890e+02
   2.7922580e+02   1.2432320e+02
   2.7970790e+02   1.3892770e+02
   2.8019000e+02   1.4111330e+02
   2.8067210e+02   1.4619820e+02
   2.8115420e+02   1.7863960e+02
   2.8163640e+02   2.4096190e+02
   2.8211850e+02   2.7062790e+02
   2.8260060e+02   2.3995800e+02
   2.8308270e+02   1.6951170e+02
   2.8356480e+02   1.5378220e+02
   2.8404690e+02   2.0363960e+02
   2.8452910e+02   2.5156150e+02
   2.8501120e+02   2.1659280e+02
   2.8549330e+02   1.0208300e+02
   2.8597540e+02   1.6286130e+01
   2.8645750e+02   6.9394530e+00
   2.8693960e+02   1.6939450e+01
   2.8742170e+02   4.0768550e+01
   2.8790380e+02   6.5490230e+01
   2.8838600e+02   8.5208010e+01
   2.8886810e+02   9.1071290e+01
   2.8935020e+02   8.4345700e+01
   2.8983230e+02   7.9025390e+01
   2.9031440e+02   7.8479490e+01
   2.9079650e+02   8.1791990e+01
   2.9127870e+02   8.5592770e+01
   2.9176080e+02   8.9609380e+01
   2.9224290e+02   9.7457030e+01
   2.9272500e+02   1.2225200e+02
   2.9320710e+02   1.5807620e+02
   2.9368920e+02   1.7416020e+02
   2.9417140e+02   1.5095020e+02
   2.9465350e+02   1.0610350e+02
   2.9513560e+02   7.7899410e+01
   2.9561770e+02   6.7041020e+01
   2.9609980e+02   6.1576170e+01
   2.9658190e+02   4.9695310e+01
   2.9706410e+02   3.3916990e+01
   2.9754620e+02   2.2217770e+01
   2.9802830e+02   1.6859380e+01
   2.9851040e+02   1.7469730e+01
   2.9899250e+02   2.7880860e+01
   2.9947460e+02   4.8014650e+01
   2.9995680e+02   6.2791990e+01
   3.0043890e+02   5.3318360e+01
   3.0092100e+02   3.0386720e+01
   3.0140310e+02   1.4682620e+01
   3.0188520e+02   1.4133790e+01
   3.0236730e+02   2.3926760e+01
   3.0284950e+02   4.3791020e+01
   3.0333160e+02   7.2957030e+01
   3.0381370e+02   9.5837890e+01
   3.0429580e+02   9.9794920e+01
   3.0477790e+02   8.8177730e+01
   3.0526000e+02   6.6596680e+01
   3.0574220e+02   2.3560550e+01
   3.0622430e+02   1.9875000e+01
   3.0670640e+02   4.8565430e+01
   3.0718850e+02   6.2277340e+01
   3.0767060e+02   5.1351560e+01
   3.0815270e+02   1.4263670e+01
   3.0863490e+02   1.0383690e+02
   3.0911700e+02   1.7329490e+02
   3.0959910e+02   2.1372170e+02
   3.1008120e+02   2.2419430e+02
   3.1056330e+02   1.8819630e+02
   3.1104540e+02   1.0903520e+02
   3.1152760e+02   4.3720700e+01
   3.1200970e+02   4.4362300e+01
   3.1249180e+02   7.1348630e+01
   3.1297390e+02   8.0562500e+01
   3.1345600e+02   2.7234380e+01
   3.1393810e+02   2.3897460e+01
   3.1442030e+02   2.8303710e+01
   3.1490240e+02   1.0093750e+01
   3.1538450e+02   4.0041990e+01
   3.1586660e+02   2.3327150e+01
   3.1634870e+02   6.3125000e+00
   3.1683080e+02   1.7945310e+01
   3.1731300e+02   1.3693360e+01
   3.1779510e+02   4.9872070e+01
   3.1827720e+02   8.0231450e+01
   3.1875930e+02   1.0408690e+02
   3.1924140e+02   1.1409280e+02
   3.1972350e+02   1.0649800e+02
   3.2020570e+02   8.4802730e+01
   3.2068780e+02   5.1828120e+01
   3.2116990e+02   2.9462890e+01
   3.2165200e+02   8.3644530e+01
   3.2213410e+02   7.4014650e+01
   3.2261620e+02   7.8593750e+00
   3.2309840e+02   3.9004880e+01
   3.2358050e+02   2.3919920e+01
   3.2406260e+02   1.6113280e+00
   3.2454470e+02   9.0185550e+00
   3.2502680e+02   1.1008300e+02
   3.2550890e+02   1.7636820e+02
   3.2599110e+02   1.7272560e+02
   3.2647320e+02   1.0641310e+02
   3.2695530e+02   5.8132810e+01
   3.2743740e+02   3.7552730e+01
   3.2791950e+02   3.2435550e+01
   3.2840160e+02   3.5439450e+01
   3.2888380e+02   5.3166020e+01
   3.2936590e+02   7.0195310e+01
   3.2984800e+02   8.7330080e+01
   3.3033010e+02   1.0340040e+02
   3.3081220e+02   1.1212110e+02
   3.3129430e+02   1.0524610e+02
   3.3177650e+02   9.9063480e+01
   3.3225860e+02   1.0352250e+02
   3.3274070e+02   1.2839550e+02
   3.3322280e+02   1.4497460e+02
   3.3370490e+02   1.3962210e+02
   3.3418700e+02   1.2445310e+02
   3.3466920e+02   1.5399900e+02
   3.3515130e+02   2.5502730e+02
   3.3563340e+02   3.5878220e+02
   3.3611550e+02   4.3240330e+02
   3.3659760e+02   4.8317580e+02
   3.3707970e+02   4.7906250e+02
   3.3756190e+02   3.9879690e+02
   3.3804400e+02   2.7089750e+02
   3.3852610e+02   1.7972270e+02
   3.3900820e+02   1.3206150e+02
   3.3949030e+02   1.0037500e+02
   3.3997240e+02   7.0582030e+01
   3.4045460e+02   4.1634770e+01
   3.4093670e+02   2.1269530e+01
   3.4141880e+02   9.7714840e+00
   3.4190090e+02   7.0458980e+00
   3.4238300e+02   1.8719730e+01
   3.4286510e+02   4.7434570e+01
   3.4334730e+02   6.7040040e+01
   3.4382940e+02   5.7235350e+01
   3.4431150e+02   2.0698240e+01
   3.4479360e+02   5.7460940e+00
   3.4527570e+02   2.0227540e+01
   3.4575780e+02   2.6555660e+01
   3.4624000e+02   3.1826170e+01
   3.4672210e+02   3.5622070e+01
   3.4720420e+02   3.1286130e+01
   3.4768630e+02   1.5820310e+01
   3.4816840e+02   1.0395510e+01
   3.4865050e+02   5.1045900e+01
   3.4913270e+02   1.0999320e+02
   3.4961480e+02   1.6671000e+02
   3.5009690e+02   1.9641410e+02
   3.5057900e+02   2.0237890e+02
   3.5106110e+02   1.9790330e+02
   3.5154320e+02   1.8537110e+02
   3.5202540e+02   1.6709960e+02
   3.5250750e+02   1.4108590e+02
   3.5298960e+02   1.0538570e+02
   3.5347170e+02   8.1171880e+01
   3.5395380e+02   9.6249020e+01
   3.5443590e+02   1.3676270e+02
   3.5491810e+02   1.7491990e+02
   3.5540020e+02   2.0625680e+02
   3.5588230e+02   2.2594820e+02
   3.5636440e+02   2.2647270e+02
   3.5684650e+02   2.0815530e+02
   3.5732860e+02   1.8536130e+02
   3.5781080e+02   1.6521480e+02
   3.5829290e+02   1.4662110e+02
   3.5877500e+02   1.2779000e+02
   3.5925710e+02   9.5086910e+01
   3.5973920e+02   7.3208980e+01
   3.6022130e+02   7.9233400e+01
   3.6070350e+02   1.1188180e+02
   3.6118560e+02   1.5079490e+02
   3.6166770e+02   2.1573340e+02
   3.6214980e+02   2.6876860e+02
   3.6263190e+02   2.7794340e+02
   3.6311400e+02   1.5774510e+02
   3.6359620e+02   6.9800780e+01
   3.6407830e+02   7.5691410e+01
   3.6456040e+02   1.6325880e+02
   3.6504250e+02   2.4381640e+02
   3.6552460e+02   3.0979300e+02
   3.6600670e+02   3.5993070e+02
   3.6648890e+02   3.8846390e+02
   3.6697100e+02   3.5820120e+02
   3.6745310e+02   3.4855370e+02
   3.6793520e+02   3.8181930e+02
   3.6841730e+02   4.4610740e+02
   3.6889940e+02   4.8830960e+02
   3.6938150e+02   4.7883890e+02
   3.6986360e+02   4.7185840e+02
   3.7034580e+02   4.9070120e+02
   3.7082790e+02   5.4917290e+02
   3.7131000e+02   6.0943750e+02
   3.7179210e+02   6.6471480e+02
   3.7227420e+02   7.2301170e+02
   3.7275630e+02   8.0066020e+02
   3.7323850e+02   8.9105470e+02
   3.7372060e+02   1.0046730e+03
   3.7420270e+02   1.1413580e+03
   3.7468480e+02   1.2964400e+03
   3.7516690e+02   1.4885530e+03
   3.7564900e+02   1.7001980e+03
   3.7613120e+02   1.9640420e+03
   3.7661330e+02   2.3455140e+03
   3.7709540e+02   2.8606810e+03
   3.7757750e+02   3.4405730e+03
   3.7805960e+02   4.1523540e+03
   3.7854170e+02   4.9722030e+03
   3.7902390e+02   5.4920580e+03
   3.7950600e+02   5.7085840e+03
   3.7998810e+02   5.6227190e+03
   3.8047020e+02   5.1281840e+03
   3.8095230e+02   4.2322280e+03
   3.8143440e+02   3.3461740e+03
   3.8191660e+02   2.5566200e+03
   3.8239870e+02   1.8870890e+03
   3.8288080e+02   1.3725810e+03
   3.8336290e+02   1.0202310e+03
   3.8384500e+02   7.7125000e+02
   3.8432710e+02   6.0173930e+02
   3.8480930e+02   4.9731450e+02
   3.8529140e+02   4.1983110e+02
   3.8577350e+02   3.6381930e+02
   3.8625560e+02   3.2407710e+02
   3.8673770e+02   2.8910250e+02
   3.8721980e+02   2.6131640e+02
   3.8770200e+02   2.5972950e+02
   3.8818410e+02   3.4256250e+02
   3.8866620e+02   4.4629590e+02
   3.8914830e+02   4.8174900e+02
   3.8963040e+02   3.9929200e+02
   3.9011250e+02   2.8892380e+02
   3.9059470e+02   2.0608690e+02
   3.9107680e+02   1.4791990e+02
   3.9155890e+02   1.0748340e+02
   3.9204100e+02   9.2237300e+01
   3.9252310e+02   8.6719730e+01
   3.9300520e+02   7.9114260e+01
   3.9348740e+02   6.4638670e+01
   3.9396950e+02   5.4975590e+01
   3.9445160e+02   5.4002930e+01
   3.9493370e+02   6.0694340e+01
   3.9541580e+02   7.3263670e+01
   3.9589790e+02   9.7435550e+01
   3.9638010e+02   1.2156740e+02
   3.9686220e+02   1.3708010e+02
   3.9734430e+02   1.3610550e+02
   3.9782640e+02   1.5181740e+02
   3.9830850e+02   2.1191310e+02
   3.9879060e+02   2.8249120e+02
   3.9927280e+02   3.2190040e+02
   3.9975490e+02   2.8894820e+02
   4.0023700e+02   2.7046190e+02
   4.0071910e+02   2.7949220e+02
   4.0120120e+02   3.1647750e+02
   4.0168330e+02   3.8047070e+02
   4.0216550e+02   4.7794530e+02
   4.0264760e+02   5.9529590e+02
   4.0312970e+02   7.2499220e+02
   4.0361180e+02   8.8134280e+02
   4.0409390e+02   1.0168090e+03
   4.0457600e+02   1.1194490e+03
   4.0505820e+02   1.1953820e+03
   4.0554030e+02   1.2686950e+03
   4.0602240e+02   1.3337430e+03
   4.0650450e+02   1.4084880e+03
   4.0698660e+02   1.5034130e+03
   4.0746880e+02   1.6183320e+03
   4.0795090e+02   1.7570760e+03
   4.0843300e+02   1.9217860e+03
   4.0891510e+02   2.1091460e+03
   4.0939720e+02   2.3046010e+03
   4.0987930e+02   2.5069700e+03
   4.1036150e+02   2.7497660e+03
   4.1084360e+02   3.0499760e+03
   4.1132570e+02   3.4086010e+03
   4.1180780e+02   3.8052380e+03
   4.1228990e+02   4.2282750e+03
   4.1277200e+02   4.7472950e+03
   4.1325420e+02   5.3591210e+03
   4.1373630e+02   6.1121560e+03
   4.1421840e+02   7.1695980e+03
   4.1470050e+02   8.5772980e+03
   4.1518260e+02   1.0331740e+04
   4.1566470e+02   1.2552170e+04
   4.1614690e+02   1.5228330e+04
   4.1662900e+02   1.7939610e+04
   4.1711110e+02   2.1247600e+04
   4.1759320e+02   2.4160820e+04
   4.1807530e+02   2.5296050e+04
   4.1855740e+02   2.3358240e+04
   4.1903960e+02   2.0320380e+04
   4.1952170e+02   1.6611080e+04
   4.2000380e+02   1.2431250e+04
   4.2048590e+02   8.8621200e+03
   4.2096800e+02   6.4686290e+03
   4.2145010e+02   4.7701640e+03
   4.2193230e+02   3.5065640e+03
   4.2241440e+02   2.7884490e+03
   4.2289650e+02   2.2373400e+03
   4.2337860e+02   1.8142760e+03
   4.2386070e+02   1.5108990e+03
   4.2434280e+02   1.2965560e+03
   4.2482500e+02   1.2136550e+03
   4.2530710e+02   1.1782510e+03
   4.2578920e+02   1.1640300e+03
   4.2627130e+02   1.1727540e+03
   4.2675340e+02   1.1965100e+03
   4.2723550e+02   1.2204630e+03
   4.2771770e+02   1.2684300e+03
   4.2819980e+02   1.3834120e+03
   4.2868190e+02   1.6017110e+03
   4.2916400e+02   1.8056840e+03
   4.2964610e+02   1.9768640e+03
   4.3012820e+02   2.1116020e+03
   4.3061040e+02   2.1702740e+03
   4.3109250e+02   2.1494010e+03
   4.3157460e+02   2.0598370e+03
   4.3205670e+02   1.8888720e+03
   4.3253880e+02   1.6335210e+03
   4.3302090e+02   1.4002060e+03
   4.3350310e+02   1.2127450e+03
   4.3398520e+02   1.0602490e+03
   4.3446730e+02   9.1846780e+02
   4.3494940e+02   7.8788090e+02
   4.3543150e+02   6.5322750e+02
   4.3591360e+02   4.7971970e+02
   4.3639580e+02   2.9543550e+02
   4.3687790e+02   1.7679980e+02
   4.3736000e+02   1.4532320e+02
   4.3784210e+02   1.5537600e+02
   4.3832420e+02   1.7034670e+02
   4.3880630e+02   1.8841410e+02
   4.3928850e+02   2.0419820e+02
   4.3977060e+02   2.0319730e+02
   4.4025270e+02   2.0551070e+02
   4.4073480e+02   2.4250000e+02
   4.4121690e+02   3.2233400e+02
   4.4169900e+02   3.7389160e+02
   4.4218120e+02   3.3209380e+02
   4.4266330e+02   2.4813090e+02
   4.4314540e+02   1.8263280e+02
   4.4362750e+02   1.5487110e+02
   4.4410960e+02   1.4789750e+02
   4.4459170e+02   1.6667770e+02
   4.4507390e+02   2.0832230e+02
   4.4555600e+02   2.3642190e+02
   4.4603810e+02   2.3364360e+02
   4.4652020e+02   2.2193950e+02
   4.4700230e+02   2.1412010e+02
   4.4748440e+02   2.0432230e+02
   4.4796660e+02   2.0707030e+02
   4.4844870e+02   2.1873050e+02
   4.4893080e+02   2.4347560e+02
   4.4941290e+02   3.0204490e+02
   4.4989500e+02   4.4341600e+02
   4.5037710e+02   5.3605180e+02
   4.5085930e+02   5.1018160e+02
   4.5134130e+02   3.3627440e+02
   4.5182350e+02   2.2249020e+02
   4.5230560e+02   1.8579300e+02
   4.5278770e+02   1.8416890e+02
   4.5326980e+02   1.5248630e+02
   4.5375190e+02   8.7285160e+01
   4.5423400e+02   5.1285160e+01
   4.5471620e+02   8.1582030e+01
   4.5519830e+02   1.5204300e+02
   4.5568040e+02   1.5480470e+02
   4.5616250e+02   8.6158200e+01
   4.5664460e+02   9.5429690e+00
   4.5712670e+02   2.7328120e+01
   4.5760890e+02   3.0714840e+01
   4.5809100e+02   1.5844730e+01
   4.5857310e+02   2.2904300e+01
   4.5905520e+02   6.2465820e+01
   4.5953730e+02   7.3499020e+01
   4.6001940e+02   6.1495120e+01
   4.6050160e+02   4.4703120e+01
   4.6098370e+02   2.5636720e+01
   4.6146580e+02   1.1096680e+01
   4.6194790e+02   1.1595700e+01
   4.6243000e+02   3.2453120e+01
   4.6291210e+02   4.5098630e+01
   4.6339430e+02   2.6584960e+01
   4.6387640e+02   3.3535160e+00
   4.6435850e+02   2.5613280e+01
   4.6484060e+02   3.1001950e+01
   4.6532270e+02   3.1694340e+01
   4.6580480e+02   3.2645510e+01
   4.6628700e+02   3.3985350e+01
   4.6676910e+02   2.9403320e+01
   4.6725120e+02   1.3068360e+01
   4.6773330e+02   6.4501950e+00
   4.6821540e+02   2.3981450e+01
   4.6869750e+02   4.4783200e+01
   4.6917970e+02   5.6589840e+01
   4.6966180e+02   5.7025390e+01
   4.7014390e+02   4.9939450e+01
   4.7062600e+02   4.8911130e+01
   4.7110810e+02   6.4795900e+01
   4.7159020e+02   7.3549800e+01
   4.7207240e+02   6.0512700e+01
   4.7255450e+02   2.3445310e+01
   4.7303660e+02   1.4072270e+00
   4.7351870e+02   3.4775390e+00
   4.7400080e+02   1.0283200e+00
   4.7448290e+02   1.0777340e+01
   4.7496510e+02   2.4673830e+01
   4.7544720e+02   2.7522460e+01
   4.7592930e+02   8.0957030e+00
   4.7641140e+02   2.0266600e+01
   4.7689350e+02   2.9823240e+01
   4.7737560e+02   2.1311520e+01
   4.7785780e+02   6.5292970e+00
   4.7833990e+02   8.2578130e+00
   4.7882200e+02   2.3460940e+01
   4.7930410e+02   4.1245120e+01
   4.7978620e+02   6.5798830e+01
   4.8026830e+02   8.3778320e+01
   4.8075050e+02   7.4125000e+01
   4.8123260e+02   5.0541020e+01
   4.8171470e+02   4.1821290e+01
   4.8219680e+02   8.4880860e+01
   4.8267890e+02   1.2479490e+02
   4.8316100e+02   1.2442580e+02
   4.8364320e+02   7.4400390e+01
   4.8412530e+02   4.2903320e+01
   4.8460740e+02   6.3480470e+01
   4.8508950e+02   1.0086330e+02
   4.8557160e+02   1.2462890e+02
   4.8605370e+02   1.2616210e+02
   4.8653590e+02   1.2002150e+02
   4.8701800e+02   1.0277540e+02
   4.8750010e+02   7.8154300e+01
   4.8798220e+02   6.3482420e+01
   4.8846430e+02   6.0305660e+01
   4.8894640e+02   6.4970700e+01
   4.8942860e+02   7.8358400e+01
   4.8991070e+02   1.0352440e+02
   4.9039280e+02   1.2329590e+02
   4.9087490e+02   1.4111620e+02
   4.9135700e+02   1.4805370e+02
   4.9183910e+02   1.2252930e+02
   4.9232130e+02   6.5191410e+01
   4.9280340e+02   1.8679690e+01
   4.9328550e+02   1.2001950e+00
   4.9376760e+02   5.0781300e-01
   4.9424970e+02   2.0313480e+01
   4.9473180e+02   5.7538090e+01
   4.9521400e+02   8.4826170e+01
   4.9569610e+02   6.2424800e+01
   4.9617820e+02   1.8136720e+01
   4.9666030e+02   4.0205080e+00
   4.9714240e+02   4.3084960e+01
   4.9762450e+02   8.6817380e+01
   4.9810670e+02   9.4370120e+01
   4.9858880e+02   7.7034180e+01
   4.9907090e+02   6.1671880e+01
   4.9955300e+02   5.6455080e+01
   5.0003510e+02   5.8395510e+01
   5.0051720e+02   6.7580080e+01
   5.0099940e+02   8.4479490e+01
   5.0148150e+02   9.9916020e+01
   5.0196360e+02   1.1503910e+02
   5.0244570e+02   1.2536430e+02
   5.0292780e+02   1.2718260e+02
   5.0340990e+02   1.0598240e+02
   5.0389210e+02   9.5051760e+01
   5.0437420e+02   1.0554100e+02
   5.0485630e+02   1.2989060e+02
   5.0533840e+02   1.3320700e+02
   5.0582050e+02   1.0344430e+02
   5.0630260e+02   7.7240230e+01
   5.0678480e+02   7.8319340e+01
   5.0726690e+02   1.1426860e+02
   5.0774900e+02   1.2363670e+02
   5.0823110e+02   1.0150490e+02
   5.0871320e+02   6.5061520e+01
   5.0919530e+02   2.8586910e+01
   5.0967750e+02   6.3808590e+00
   5.1015960e+02   2.0146480e+01
   5.1064170e+02   6.9531250e+00
   5.1112380e+02   4.9878910e+01
   5.1160590e+02   5.0573240e+01
   5.1208800e+02   1.2963870e+01
   5.1257010e+02   1.5028320e+01
   5.1305220e+02   4.7880860e+00
   5.1353440e+02   3.5895510e+01
   5.1401650e+02   1.1023540e+02
   5.1449860e+02   2.4134180e+02
   5.1498070e+02   3.3700000e+02
   5.1546280e+02   3.1830860e+02
   5.1594490e+02   2.3021970e+02
   5.1642710e+02   1.4850200e+02
   5.1690920e+02   8.8229490e+01
   5.1739130e+02   4.7966800e+01
   5.1787340e+02   3.2568360e+01
   5.1835550e+02   4.3093750e+01
   5.1883760e+02   5.5307620e+01
   5.1931980e+02   8.5305660e+01
   5.1980190e+02   1.0324800e+02
   5.2028400e+02   8.7087890e+01
   5.2076610e+02   5.8300800e-01
   5.2124820e+02   4.6515620e+01
   5.2173030e+02   3.6285160e+01
   5.2221250e+02   7.6914060e+00
   5.2269460e+02   3.6449220e+01
   5.2317670e+02   4.9629880e+01
   5.2365880e+02   5.0064450e+01
   5.2414090e+02   2.9554690e+01
   5.2462300e+02   6.0517580e+00
   5.2510520e+02   5.8779300e+00
   5.2558730e+02   3.4876950e+01
   5.2606940e+02   7.1645510e+01
   5.2655150e+02   3.4879880e+01
   5.2703360e+02   4.1126950e+01
   5.2751570e+02   5.1678710e+01
   5.2799790e+02   5.4729490e+01
   5.2848000e+02   1.7474800e+02
   5.2896210e+02   1.9710840e+02
   5.2944420e+02   1.4568260e+02
   5.2992630e+02   9.0353520e+01
   5.3040840e+02   5.3767580e+01
   5.3089060e+02   3.6448240e+01
   5.3137270e+02   4.3985350e+01
   5.3185480e+02   7.9095700e+01
   5.3233690e+02   1.1167870e+02
   5.3281900e+02   1.3007910e+02
   5.3330110e+02   1.4408500e+02
   5.3378330e+02   1.6067870e+02
   5.3426540e+02   1.8806930e+02
   5.3474750e+02   2.0051860e+02
   5.3522960e+02   1.9059470e+02
   5.3571170e+02   1.6599120e+02
   5.3619380e+02   1.5254390e+02
   5.3667600e+02   1.5298140e+02
   5.3715810e+02   1.5403220e+02
   5.3764020e+02   1.4877250e+02
   5.3812230e+02   1.3594630e+02
   5.3860440e+02   1.4293950e+02
   5.3908650e+02   1.7820120e+02
   5.3956870e+02   2.0929200e+02
   5.4005080e+02   1.8483500e+02
   5.4053290e+02   1.1444040e+02
   5.4101500e+02   7.2526370e+01
   5.4149710e+02   9.1610350e+01
   5.4197920e+02   1.3121390e+02
   5.4246140e+02   1.1539940e+02
   5.4294350e+02   5.7771480e+01
   5.4342560e+02   2.1452150e+01
   5.4390770e+02   7.7687500e+01
   5.4438980e+02   1.5426270e+02
   5.4487190e+02   1.7457710e+02
   5.4535410e+02   1.2252050e+02
   5.4583620e+02   7.2129880e+01
   5.4631830e+02   5.7194340e+01
   5.4680040e+02   6.5212890e+01
   5.4728250e+02   8.0279300e+01
   5.4776460e+02   1.1168070e+02
   5.4824680e+02   1.2907520e+02
   5.4872890e+02   1.2050680e+02
   5.4921100e+02   9.2982420e+01
   5.4969310e+02   7.4014650e+01
   5.5017520e+02   6.3363280e+01
   5.5065730e+02   5.9771480e+01
   5.5113950e+02   6.3416990e+01
   5.5162160e+02   7.7943360e+01
   5.5210370e+02   1.0870610e+02
   5.5258580e+02   1.5571970e+02
   5.5306790e+02   1.9615040e+02
   5.5355000e+02   1.9497170e+02
   5.5403220e+02   1.5426070e+02
   5.5451430e+02   1.1953520e+02
   5.5499640e+02   1.0148540e+02
   5.5547850e+02   9.5143550e+01
   5.5596060e+02   9.6482420e+01
   5.5644270e+02   1.0376370e+02
   5.5692490e+02   1.0635250e+02
   5.5740700e+02   9.1049800e+01
   5.5788910e+02   7.1329100e+01
   5.5837120e+02   5.9469730e+01
   5.5885330e+02   5.5891600e+01
   5.5933540e+02   6.7051760e+01
   5.5981760e+02   1.1147560e+02
   5.6029970e+02   1.6570120e+02
   5.6078180e+02   2.0607030e+02
   5.6126390e+02   2.2640040e+02
   5.6174600e+02   2.3133200e+02
   5.6222810e+02   2.1193460e+02
   5.6271030e+02   1.7667190e+02
   5.6319240e+02   1.5354100e+02
   5.6367450e+02   1.3472560e+02
   5.6415660e+02   1.3277930e+02
   5.6463870e+02   1.5608590e+02
   5.6512080e+02   2.0821970e+02
   5.6560300e+02   2.6408010e+02
   5.6608510e+02   3.3426560e+02
   5.6656720e+02   3.8370610e+02
   5.6704930e+02   3.6182030e+02
   5.6753140e+02   2.7228610e+02
   5.6801350e+02   2.0218070e+02
   5.6849570e+02   1.7406840e+02
   5.6897780e+02   1.6741890e+02
   5.6945990e+02   1.4489260e+02
   5.6994200e+02   1.1382710e+02
   5.7042410e+02   1.0467190e+02
   5.7090630e+02   1.6243950e+02
   5.7138840e+02   2.3608110e+02
   5.7187050e+02   2.6518550e+02
   5.7235260e+02   2.4725000e+02
   5.7283470e+02   2.4468260e+02
   5.7331680e+02   2.9471880e+02
   5.7379900e+02   3.7168070e+02
   5.7428110e+02   4.5436230e+02
   5.7476320e+02   5.5791890e+02
   5.7524530e+02   6.4082520e+02
   5.7572740e+02   6.7251560e+02
   5.7620950e+02   6.8398540e+02
   5.7669170e+02   7.4185840e+02
   5.7717380e+02   9.0996480e+02
   5.7765590e+02   1.0187220e+03
   5.7813800e+02   1.0117940e+03
   5.7862010e+02   8.9492090e+02
   5.7910220e+02   7.6266020e+02
   5.7958440e+02   6.1248140e+02
   5.8006650e+02   4.7440140e+02
   5.8054860e+02   3.6877540e+02
   5.8103070e+02   2.9205570e+02
   5.8151280e+02   2.2816700e+02
   5.8199490e+02   1.7601760e+02
   5.8247710e+02   1.3271090e+02
   5.8295920e+02   1.0198240e+02
   5.8344130e+02   8.0233400e+01
   5.8392340e+02   5.5491210e+01
   5.8440550e+02   1.1083980e+00
   5.8488760e+02   4.6250000e+01
   5.8536980e+02   2.4890620e+01
   5.8585190e+02   5.4214840e+01
   5.8633400e+02   1.1365720e+02
   5.8681610e+02   1.1132910e+02
   5.8729820e+02   8.8523440e+01
   5.8778030e+02   6.5226560e+01
   5.8826250e+02   3.7926760e+01
   5.8874460e+02   2.5972660e+01
   5.8922670e+02   4.6308590e+01
   5.8970880e+02   7.1250980e+01
   5.9019090e+02   6.5242190e+01
   5.9067300e+02   4.7011720e+00
   5.9115520e+02   1.8464840e+01
   5.9163730e+02   2.7291020e+01
   5.9211940e+02   1.1006250e+02
   5.9260150e+02   1.2536910e+02
   5.9308360e+02   6.8620120e+01
   5.9356570e+02   1.8491210e+01
   5.9404790e+02   2.8282230e+01
   5.9453000e+02   7.5614260e+01
   5.9501210e+02   9.8416990e+01
   5.9549420e+02   9.4667970e+01
   5.9597630e+02   8.6689450e+01
   5.9645840e+02   8.7931640e+01
   5.9694060e+02   9.7815430e+01
   5.9742270e+02   1.1656840e+02
   5.9790480e+02   1.4849220e+02
   5.9838690e+02   1.8154980e+02
   5.9886900e+02   2.1485740e+02
   5.9935110e+02   2.4497850e+02
   5.9983330e+02   2.6611040e+02
   6.0031540e+02   2.9776560e+02
   6.0079750e+02   2.9789450e+02
   6.0127960e+02   2.3851070e+02
   6.0176170e+02   1.2317190e+02
   6.0224380e+02   5.5614260e+01
   6.0272600e+02   5.7723630e+01
   6.0320810e+02   7.0680660e+01
   6.0369020e+02   5.1827150e+01
   6.0417230e+02   3.3037110e+00
   6.0465440e+02   2.5671880e+01
   6.0513650e+02   5.4599610e+00
   6.0561870e+02   2.8592770e+01
   6.0610080e+02   3.5555660e+01
   6.0658290e+02   2.2166020e+01
   6.0706500e+02   1.8034180e+01
   6.0754710e+02   4.6518550e+01
   6.0802920e+02   7.2877930e+01
   6.0851140e+02   3.2427730e+01
   6.0899350e+02   5.1197270e+01
   6.0947560e+02   9.4198240e+01
   6.0995770e+02   2.5273440e+00
   6.1043980e+02   1.0500490e+02
   6.1092190e+02   1.4975000e+02
   6.1140410e+02   1.1598730e+02
   6.1188620e+02   8.7846680e+01
   6.1236830e+02   8.1258790e+01
   6.1285040e+02   8.6657230e+01
   6.1333250e+02   9.3997070e+01
   6.1381460e+02   8.4011720e+01
   6.1429680e+02   1.2302340e+02
   6.1477890e+02   2.5103710e+02
   6.1526100e+02   3.9814360e+02
   6.1574310e+02   4.0512300e+02
   6.1622520e+02   2.5644240e+02
   6.1670730e+02   1.2458500e+02
   6.1718950e+02   7.6869140e+01
   6.1767160e+02   8.8461910e+01
   6.1815370e+02   1.0210250e+02
   6.1863580e+02   1.1685160e+02
   6.1911790e+02   1.1641600e+02
   6.1960000e+02   6.8879880e+01
   6.2008220e+02   9.2197270e+00
   6.2056430e+02   1.7790040e+01
   6.2104640e+02   3.0722660e+00
   6.2152850e+02   2.3280270e+01
   6.2201060e+02   5.6238280e+01
   6.2249270e+02   8.7249020e+01
   6.2297490e+02   1.0692290e+02
   6.2345700e+02   1.0604880e+02
   6.2393910e+02   1.0206050e+02
   6.2442120e+02   8.1836910e+01
   6.2490330e+02   6.1467770e+01
   6.2538540e+02   8.9893550e+01
   6.2586760e+02   1.9787010e+02
   6.2634970e+02   2.8536230e+02
   6.2683180e+02   3.1170900e+02
   6.2731390e+02   2.8363090e+02
   6.2779600e+02   2.5868750e+02
   6.2827810e+02   2.3395900e+02
   6.2876030e+02   2.3603610e+02
   6.2924240e+02   3.1424710e+02
   6.2972450e+02   4.3434470e+02
   6.3020660e+02   5.0209860e+02
   6.3068870e+02   4.9652830e+02
   6.3117080e+02   4.8027250e+02
   6.3165300e+02   5.0658200e+02
   6.3213510e+02   5.5919730e+02
   6.3261720e+02   6.1383980e+02
   6.3309930e+02   6.5705760e+02
   6.3358140e+02   7.0671290e+02
   6.3406350e+02   7.7185250e+02
   6.3454570e+02   8.4789160e+02
   6.3502780e+02   9.2103420e+02
   6.3550990e+02   9.6568260e+02
   6.3599200e+02   1.0352590e+03
   6.3647410e+02   1.1536450e+03
   6.3695620e+02   1.3257770e+03
   6.3743840e+02   1.4746810e+03
   6.3792050e+02   1.5913900e+03
   6.3840260e+02   1.7148630e+03
   6.3888470e+02   1.8797320e+03
   6.3936680e+02   2.0809230e+03
   6.3984890e+02   2.2788980e+03
   6.4033110e+02   2.4623220e+03
   6.4081320e+02   2.6636510e+03
   6.4129530e+02   2.9403500e+03
   6.4177740e+02   3.2645920e+03
   6.4225950e+02   3.5815490e+03
   6.4274160e+02   3.8796750e+03
   6.4322380e+02   4.1461350e+03
   6.4370590e+02   4.3958940e+03
   6.4418800e+02   4.6091500e+03
   6.4467010e+02   4.7391740e+03
   6.4515220e+02   4.7678930e+03
   6.4563430e+02   4.7028680e+03
   6.4611650e+02   4.5277620e+03
   6.4659860e+02   4.2336450e+03
   6.4708070e+02   3.9430480e+03
   6.4756280e+02   3.6607540e+03
   6.4804490e+02   3.3702750e+03
   6.4852700e+02   3.0500320e+03
   6.4900920e+02   2.6963380e+03
   6.4949130e+02   2.3657780e+03
   6.4997340e+02   2.0536520e+03
   6.5045550e+02   1.7761220e+03
   6.5093760e+02   1.5616350e+03
   6.5141970e+02   1.3992250e+03
   6.5190190e+02   1.2616000e+03
   6.5238400e+02   1.1417310e+03
   6.5286610e+02   1.0389250e+03
   6.5334820e+02   9.6018160e+02
   6.5383030e+02   8.9918360e+02
   6.5431240e+02   8.3745510e+02
   6.5479460e+02   7.5566800e+02
   6.5527670e+02   6.8017870e+02
   6.5575880e+02   6.2231930e+02
   6.5624090e+02   5.8299800e+02
   6.5672300e+02   5.5891890e+02
   6.5720510e+02   5.6809080e+02
   6.5768720e+02   5.7183500e+02
   6.5816930e+02   5.4433890e+02
   6.5865140e+02   4.7689650e+02
   6.5913350e+02   4.1912700e+02
   6.5961570e+02   3.7408590e+02
   6.6009780e+02   3.3413870e+02
   6.6057990e+02   2.8243160e+02
   6.6106200e+02   2.2508010e+02
   6.6154410e+02   1.9772360e+02
   6.6202620e+02   2.1894240e+02
   6.6250840e+02   2.5666500e+02
   6.6299050e+02   2.8244240e+02
   6.6347260e+02   2.9644820e+02
   6.6395470e+02   2.9710640e+02
   6.6443680e+02   2.6901070e+02
   6.6491890e+02   2.3962010e+02
   6.6540110e+02   2.2312400e+02
   6.6588320e+02   2.1915820e+02
   6.6636530e+02   2.1905760e+02
   6.6684740e+02   2.1855270e+02
   6.6732950e+02   2.1801460e+02
   6.6781160e+02   2.2971290e+02
   6.6829380e+02   2.5850100e+02
   6.6877590e+02   2.4925490e+02
   6.6925800e+02   1.8853520e+02
   6.6974010e+02   1.1912500e+02
   6.7022220e+02   8.9566410e+01
   6.7070430e+02   9.6579100e+01
   6.7118650e+02   1.0545210e+02
   6.7166860e+02   1.1283300e+02
   6.7215070e+02   1.1388770e+02
   6.7263280e+02   9.6517580e+01
   6.7311490e+02   6.8154300e+01
   6.7359700e+02   4.6050780e+01
   6.7407920e+02   4.2507810e+01
   6.7456130e+02   4.3380860e+01
   6.7504340e+02   3.1523440e+01
   6.7552550e+02   1.3666020e+01
   6.7600760e+02   2.4466800e+01
   6.7648970e+02   1.2040230e+02
   6.7697190e+02   1.9867380e+02
   6.7745400e+02   2.1023630e+02
   6.7793610e+02   1.4638480e+02
   6.7841820e+02   1.1345510e+02
   6.7890030e+02   1.2658010e+02
   6.7938240e+02   1.4398830e+02
   6.7986460e+02   1.2253710e+02
   6.8034670e+02   6.6544920e+01
   6.8082880e+02   3.5912110e+01
   6.8131090e+02   3.7337890e+01
   6.8179300e+02   5.9011720e+01
   6.8227510e+02   1.0716020e+02
   6.8275730e+02   1.6334770e+02
   6.8323940e+02   1.9089650e+02
   6.8372150e+02   1.6155080e+02
   6.8420360e+02   1.2132420e+02
   6.8468570e+02   9.0357420e+01
   6.8516780e+02   6.8560550e+01
   6.8565000e+02   5.4736330e+01
   6.8613210e+02   4.5761720e+01
   6.8661420e+02   4.9498050e+01
   6.8709630e+02   7.8234380e+01
   6.8757840e+02   1.2638280e+02
   6.8806050e+02   1.4002150e+02
   6.8854270e+02   1.0877150e+02
   6.8902480e+02   6.9324220e+01
   6.8950690e+02   4.1005860e+01
   6.8998900e+02   2.2720700e+01
   6.9047110e+02   1.0195310e+00
   6.9095320e+02   3.1656250e+01
   6.9143540e+02   5.4652340e+01
   6.9191750e+02   5.1519530e+01
   6.9239960e+02   3.3458980e+01
   6.9288170e+02   1.8589840e+01
   6.9336380e+02   1.1527340e+01
   6.9384590e+02   4.0468750e+00
   6.9432810e+02   1.7050780e+01
   6.9481020e+02   3.8900390e+01
   6.9529230e+02   4.4074220e+01
   6.9577440e+02   7.4804700e-01
   6.9625650e+02   2.3908200e+01
   6.9673860e+02   2.9667970e+00
   6.9722080e+02   4.2285160e+01
   6.9770290e+02   5.8939450e+01
   6.9818500e+02   4.1000000e+01
   6.9866710e+02   1.4375000e+01
   6.9914920e+02   2.0335940e+01
   6.9963130e+02   5.4417970e+01
   7.0011350e+02   4.4556640e+01
   7.0059560e+02   6.1250000e+00
   7.0107770e+02   4.4667970e+01
   7.0155980e+02   7.4941410e+00
   7.0204190e+02   4.8652340e+01
   7.0252400e+02   4.4832030e+01
   7.0300620e+02   2.7675780e+01
   7.0348830e+02   9.4154300e+01
   7.0397040e+02   1.1516210e+02
   7.0445250e+02   1.1736910e+02
   7.0493460e+02   1.2221680e+02
   7.0541670e+02   1.4760160e+02
   7.0589890e+02   1.4568360e+02
   7.0638100e+02   9.0162110e+01
   7.0686310e+02   3.0371090e+01
   7.0734520e+02   3.7521480e+01
   7.0782730e+02   1.2667770e+02
   7.0830940e+02   1.8053320e+02
   7.0879160e+02   1.7020700e+02
   7.0927370e+02   1.2988280e+02
   7.0975580e+02   1.2014260e+02
   7.1023790e+02   1.3491990e+02
   7.1072000e+02   1.4938480e+02
   7.1120210e+02   1.5103910e+02
   7.1168430e+02   1.4833980e+02
   7.1216640e+02   1.5317190e+02
   7.1264850e+02   1.6124020e+02
   7.1313060e+02   1.5448630e+02
   7.1361270e+02   9.5482420e+01
   7.1409480e+02   4.6886720e+01
   7.1457700e+02   4.7798830e+01
   7.1505910e+02   1.0256840e+02
   7.1554120e+02   1.2488670e+02
   7.1602330e+02   9.6363280e+01
   7.1650540e+02   6.7298830e+01
   7.1698750e+02   7.8156250e+01
   7.1746970e+02   1.2833790e+02
   7.1795180e+02   1.5548240e+02
   7.1843390e+02   1.5538090e+02
   7.1891600e+02   1.4033980e+02
   7.1939810e+02   1.0599020e+02
   7.1988020e+02   6.9242190e+01
   7.2036240e+02   6.8480470e+01
   7.2084450e+02   1.3079880e+02
   7.2132660e+02   1.8800200e+02
   7.2180870e+02   1.8150200e+02
   7.2229080e+02   1.4818550e+02
   7.2277290e+02   1.4096680e+02
   7.2325510e+02   2.1605080e+02
   7.2373720e+02   2.6201560e+02
   7.2421930e+02   2.5257810e+02
   7.2470140e+02   2.0596480e+02
   7.2518350e+02   1.6931450e+02
   7.2566560e+02   1.4058590e+02
   7.2614780e+02   1.2905080e+02
   7.2662990e+02   1.4471680e+02
   7.2711200e+02   1.7634180e+02
   7.2759410e+02   1.9063280e+02
   7.2807620e+02   1.8873240e+02
   7.2855830e+02   1.8194530e+02
   7.2904050e+02   1.7673050e+02
   7.2952260e+02   1.7100590e+02
   7.3000470e+02   1.6359570e+02
   7.3048680e+02   1.5468550e+02
   7.3096890e+02   1.4267970e+02
   7.3145100e+02   1.3514450e+02
   7.3193320e+02   1.1936330e+02
   7.3241530e+02   8.3929690e+01
   7.3289740e+02   1.6601560e+01
   7.3337950e+02   3.6080080e+01
   7.3386160e+02   8.5599610e+01
   7.3434380e+02   1.0175980e+02
   7.3482590e+02   2.7851560e+01
   7.3530800e+02   1.3311520e+02
   7.3579010e+02   2.2402150e+02
   7.3627220e+02   2.1132620e+02
   7.3675430e+02   1.6451370e+02
   7.3723650e+02   1.6496480e+02
   7.3771860e+02   1.9676170e+02
   7.3820070e+02   2.2768360e+02
   7.3868280e+02   2.4059960e+02
   7.3916490e+02   2.5669920e+02
   7.3964700e+02   2.8987110e+02
   7.4012920e+02   3.3379690e+02
   7.4061130e+02   3.7439840e+02
   7.4109340e+02   4.0139450e+02
   7.4157550e+02   4.3441210e+02
   7.4205760e+02   4.7929490e+02
   7.4253970e+02   5.3284770e+02
   7.4302190e+02   5.8239840e+02
   7.4350400e+02   6.2946290e+02
   7.4398610e+02   6.6328910e+02
   7.4446820e+02   6.6494140e+02
   7.4495030e+02   6.5211720e+02
   7.4543240e+02   6.8047460e+02
   7.4591460e+02   7.4630860e+02
   7.4639670e+02   8.1113480e+02
   7.4687880e+02   8.5081050e+02
   7.4736090e+02   8.7593950e+02
   7.4784300e+02   8.9322070e+02
   7.4832510e+02   9.0259570e+02
   7.4880730e+02   9.0842580e+02
   7.4928940e+02   9.1583590e+02
   7.4977150e+02   9.1903120e+02
   7.5025360e+02   9.1517380e+02
   7.5073570e+02   9.0592190e+02
   7.5121780e+02   8.8127930e+02
   7.5170000e+02   8.3652540e+02
   7.5218210e+02   7.8751950e+02
   7.5266420e+02   7.4710940e+02
   7.5314630e+02   7.1705660e+02
   7.5362840e+02   7.1169140e+02
   7.5411050e+02   7.4172270e+02
   7.5459270e+02   7.6882420e+02
   7.5507480e+02   7.5517380e+02
   7.5555690e+02   7.1065820e+02
   7.5603900e+02   6.5089650e+02
   7.5652110e+02   5.5183980e+02
   7.5700320e+02   4.7205860e+02
   7.5748540e+02   4.4084180e+02
   7.5796750e+02   4.4083790e+02
   7.5844960e+02   4.2884380e+02
   7.5893170e+02   3.9572850e+02
   7.5941380e+02   3.6452540e+02
   7.5989590e+02   3.3703120e+02
   7.6037810e+02   3.1660350e+02
   7.6086020e+02   3.1600000e+02
   7.6134230e+02   3.3145510e+02
   7.6182440e+02   3.3136910e+02
   7.6230650e+02   2.8087300e+02
   7.6278860e+02   2.1595120e+02
   7.6327080e+02   1.7601950e+02
   7.6375290e+02   1.6121290e+02
   7.6423500e+02   1.6928710e+02
   7.6471710e+02   2.3114260e+02
   7.6519920e+02   2.8739840e+02
   7.6568130e+02   2.9528320e+02
   7.6616350e+02   2.4326760e+02
   7.6664560e+02   2.3339060e+02
   7.6712770e+02   2.9029880e+02
   7.6760980e+02   3.4858590e+02
   7.6809190e+02   3.6610550e+02
   7.6857400e+02   3.4337700e+02
   7.6905620e+02   3.1236720e+02
   7.6953830e+02   2.7195120e+02
   7.7002040e+02   2.3816410e+02
   7.7050250e+02   2.3108790e+02
   7.7098460e+02   2.3903120e+02
   7.7146670e+02   2.4358400e+02
   7.7194890e+02   2.4159180e+02
   7.7243100e+02   2.3783590e+02
   7.7291310e+02   2.3286910e+02
   7.7339520e+02   2.2836720e+02
   7.7387730e+02   2.2633200e+02
   7.7435940e+02   2.3757230e+02
   7.7484160e+02   2.3281840e+02
   7.7532370e+02   1.9989260e+02
   7.7580580e+02   1.6353320e+02
   7.7628790e+02   1.6354490e+02
   7.7677000e+02   2.0024800e+02
   7.7725210e+02   2.2496680e+02
   7.7773430e+02   2.2610940e+02
   7.7821640e+02   2.1548240e+02
   7.7869850e+02   2.0853120e+02
   7.7918060e+02   2.0271880e+02
   7.7966270e+02   1.9198630e+02
   7.8014480e+02   1.5080080e+02
   7.8062700e+02   1.2813280e+02
   7.8110910e+02   1.6948630e+02
   7.8159120e+02   2.4763480e+02
   7.8207330e+02   2.7872850e+02
   7.8255540e+02   2.2733400e+02
   7.8303750e+02   1.7742190e+02
   7.8351970e+02   1.4257620e+02
   7.8400180e+02   1.2407030e+02
   7.8448390e+02   1.3580860e+02
   7.8496600e+02   1.7872850e+02
   7.8544810e+02   2.1312110e+02
   7.8593020e+02   2.1639650e+02
   7.8641240e+02   2.0016800e+02
   7.8689450e+02   1.7876560e+02
   7.8737660e+02   1.5378320e+02
   7.8785870e+02   1.3339260e+02
   7.8834080e+02   1.2728120e+02
   7.8882290e+02   1.2319730e+02
   7.8930510e+02   1.0775590e+02
   7.8978720e+02   7.8767580e+01
   7.9026930e+02   8.6048830e+01
   7.9075140e+02   1.6340820e+02
   7.9123350e+02   2.2398240e+02
   7.9171560e+02   2.0558400e+02
   7.9219780e+02   1.1187300e+02
   7.9267990e+02   9.0857420e+01
   7.9316200e+02   1.4447270e+02
   7.9364410e+02   2.0167190e+02
   7.9412620e+02   1.9578910e+02
   7.9460830e+02   1.5806450e+02
   7.9509050e+02   1.3340230e+02
   7.9557260e+02   1.2706450e+02
   7.9605470e+02   1.2588280e+02
   7.9653680e+02   1.1564450e+02
   7.9701890e+02   1.1228910e+02
   7.9750100e+02   1.3267970e+02
   7.9798320e+02   1.9853520e+02
   7.9846530e+02   2.3022850e+02
   7.9894740e+02   2.1241990e+02
   7.9942950e+02   1.8454880e+02
   7.9991160e+02   1.9514260e+02
   8.0039370e+02   2.3994730e+02
   8.0087590e+02   2.5009380e+02
   8.0135800e+02   2.1042580e+02
   8.0184010e+02   1.6794340e+02
   8.0232220e+02   1.7608010e+02
   8.0280430e+02   2.1354490e+02
   8.0328640e+02   2.5169140e+02
   8.0376860e+02   3.0250980e+02
   8.0425070e+02   3.1808010e+02
   8.0473280e+02   2.4378710e+02
   8.0521490e+02   1.4080080e+02
   8.0569700e+02   9.5544920e+01
   8.0617910e+02   1.3585350e+02
   8.0666130e+02   1.6580080e+02
   8.0714340e+02   1.7316020e+02
   8.0762550e+02   1.6655470e+02
   8.0810760e+02   1.5220700e+02
   8.0858970e+02   1.3380470e+02
   8.0907180e+02   1.3855270e+02
   8.0955400e+02   1.9146480e+02
   8.1003610e+02   2.4166210e+02
   8.1051820e+02   2.3038280e+02
   8.1100030e+02   1.8135160e+02
   8.1148240e+02   1.4102730e+02
   8.1196450e+02   1.1844340e+02
   8.1244670e+02   1.1456450e+02
   8.1292880e+02   1.4802150e+02
   8.1341090e+02   1.9751560e+02
   8.1389300e+02   2.0648630e+02
   8.1437510e+02   1.6618360e+02
   8.1485720e+02   1.2240040e+02
   8.1533940e+02   8.5294920e+01
   8.1582150e+02   5.7287110e+01
   8.1630360e+02   4.3853520e+01
   8.1678570e+02   4.6087890e+01
   8.1726780e+02   6.1712890e+01
   8.1774990e+02   1.0498630e+02
   8.1823210e+02   1.4669340e+02
   8.1871420e+02   1.6214840e+02
   8.1919630e+02   1.5458590e+02
   8.1967840e+02   1.4391020e+02
   8.2016050e+02   8.1294920e+01
   8.2064260e+02   8.3593750e+01
   8.2112480e+02   2.2335160e+02
   8.2160680e+02   4.5875980e+02
   8.2208890e+02   5.0871880e+02
   8.2257100e+02   3.5652150e+02
   8.2305320e+02   2.0839060e+02
   8.2353530e+02   1.6783010e+02
   8.2401740e+02   2.0777340e+02
   8.2449950e+02   3.2804490e+02
   8.2498160e+02   5.0339650e+02
   8.2546370e+02   5.9549800e+02
   8.2594590e+02   4.3874020e+02
   8.2642800e+02   2.5689060e+02
   8.2691010e+02   1.8112110e+02
   8.2739220e+02   2.2461910e+02
   8.2787430e+02   2.3138670e+02
   8.2835640e+02   1.7930660e+02
   8.2883860e+02   1.3036910e+02
   8.2932070e+02   1.1732230e+02
   8.2980280e+02   1.3406840e+02
   8.3028490e+02   1.3261720e+02
   8.3076700e+02   1.1322460e+02
   8.3124910e+02   9.0847660e+01
   8.3173130e+02   7.8576170e+01
   8.3221340e+02   6.8205080e+01
   8.3269550e+02   4.5353520e+01
   8.3317760e+02   9.7402340e+00
   8.3365970e+02   1.2679690e+01
   8.3414180e+02   9.0332030e+00
   8.3462400e+02   8.1855470e+00
   8.3510610e+02   3.8597660e+01
   8.3558820e+02   8.5816410e+01
   8.3607030e+02   9.4509770e+01
   8.3655240e+02   5.4205080e+01
   8.3703450e+02   1.8214840e+01
   8.3751670e+02   3.6667970e+01
   8.3799880e+02   8.9478520e+01
   8.3848090e+02   1.1452930e+02
   8.3896300e+02   1.0945900e+02
   8.3944510e+02   1.0066020e+02
   8.3992720e+02   1.0273630e+02
   8.4040940e+02   1.1126560e+02
   8.4089150e+02   1.2349020e+02
   8.4137360e+02   1.3961520e+02
   8.4185570e+02   1.5633200e+02
   8.4233780e+02   1.7743950e+02
   8.4281990e+02   1.9269340e+02
   8.4330210e+02   1.9059570e+02
   8.4378420e+02   1.6995900e+02
   8.4426630e+02   1.7519340e+02
   8.4474840e+02   2.1069140e+02
   8.4523050e+02   2.3321480e+02
   8.4571260e+02   1.8347070e+02
   8.4619480e+02   1.0488280e+02
   8.4667690e+02   5.1601560e+01
   8.4715900e+02   2.8105470e+01
   8.4764110e+02   4.3267580e+01
   8.4812320e+02   1.6115820e+02
   8.4860530e+02   2.7693950e+02
   8.4908750e+02   3.1118360e+02
   8.4956960e+02   2.3653320e+02
   8.5005170e+02   1.9418160e+02
   8.5053380e+02   1.9524610e+02
   8.5101590e+02   1.9954690e+02
   8.5149800e+02   1.5351760e+02
   8.5198020e+02   8.0238280e+01
   8.5246230e+02   6.9310550e+01
   8.5294440e+02   1.3425590e+02
   8.5342650e+02   1.9355660e+02
   8.5390860e+02   1.7015230e+02
   8.5439070e+02   1.1940040e+02
   8.5487290e+02   8.8353520e+01
   8.5535500e+02   8.4175780e+01
   8.5583710e+02   1.1066990e+02
   8.5631920e+02   1.9846680e+02
   8.5680130e+02   2.7747660e+02
   8.5728340e+02   2.8237890e+02
   8.5776560e+02   2.1134570e+02
   8.5824770e+02   1.7297660e+02
   8.5872980e+02   1.7506840e+02
   8.5921190e+02   1.8539060e+02
   8.5969400e+02   1.7976760e+02
   8.6017610e+02   1.6121880e+02
   8.6065830e+02   1.2010940e+02
   8.6114040e+02   4.2099610e+01
   8.6162250e+02   1.8435550e+01
   8.6210460e+02   1.6025980e+02
   8.6258670e+02   3.1316600e+02
   8.6306880e+02   3.5551370e+02
   8.6355100e+02   2.4911130e+02
   8.6403310e+02   1.8268750e+02
   8.6451520e+02   1.6255860e+02
   8.6499730e+02   1.5915040e+02
   8.6547940e+02   1.4796880e+02
   8.6596150e+02   1.3052540e+02
   8.6644370e+02   1.0948830e+02
   8.6692580e+02   8.4292970e+01
   8.6740790e+02   6.7337890e+01
   8.6789000e+02   6.2046880e+01
   8.6837210e+02   7.1595700e+01
   8.6885420e+02   1.0546480e+02
   8.6933640e+02   1.8899610e+02
   8.6981850e+02   2.2262110e+02
   8.7030060e+02   1.8666410e+02
   8.7078270e+02   1.3391210e+02
   8.7126480e+02   1.0624610e+02
   8.7174690e+02   1.0069920e+02
   8.7222910e+02   8.6787110e+01
   8.7271120e+02   6.2794920e+01
   8.7319330e+02   3.3900390e+01
   8.7367540e+02   6.5820300e-01
   8.7415750e+02   3.1958980e+01
   8.7463960e+02   6.4958980e+01
   8.7512180e+02   1.0425980e+02
   8.7560390e+02   1.1244730e+02
   8.7608600e+02   5.3066410e+01
   8.7656810e+02   1.5519530e+01
   8.7705020e+02   6.0957030e+01
   8.7753230e+02   7.9955080e+01
   8.7801450e+02   1.0138670e+02
   8.7849660e+02   1.2521290e+02
   8.7897870e+02   1.4958790e+02
   8.7946080e+02   1.8239840e+02
   8.7994290e+02   2.1095120e+02
   8.8042500e+02   2.0959960e+02
   8.8090720e+02   1.7542770e+02
   8.8138930e+02   1.3892770e+02
   8.8187140e+02   1.1260740e+02
   8.8235350e+02   9.0927730e+01
   8.8283560e+02   6.6962890e+01
   8.8331770e+02   3.7285160e+01
   8.8379990e+02   3.9003910e+01
   8.8428200e+02   8.4515620e+01
   8.8476410e+02   1.2375200e+02
   8.8524620e+02   1.1239840e+02
   8.8572830e+02   6.8603520e+01
   8.8621040e+02   4.8375000e+01
   8.8669260e+02   5.2269530e+01
   8.8717470e+02   6.1062500e+01
   8.8765680e+02   7.0103520e+01
   8.8813890e+02   7.2591800e+01
   8.8862100e+02   5.9984380e+01
   8.8910310e+02   2.9953120e+01
   8.8958530e+02   1.7910160e+01
   8.9006740e+02   3.5759770e+01
   8.9054950e+02   5.1509770e+01
   8.9103160e+02   4.9382810e+01
   8.9151370e+02   3.1832030e+01
   8.9199580e+02   7.9082030e+00
   8.9247800e+02   2.1109380e+01
   8.9296010e+02   3.6162110e+01
   8.9344220e+02   7.2792970e+00
   8.9392430e+02   2.7738280e+01
   8.9440640e+02   2.8230470e+01
   8.9488850e+02   2.9531250e+00
   8.9537070e+02   1.5330080e+01
   8.9585280e+02   9.2011720e+00
   8.9633490e+02   4.9482420e+01
   8.9681700e+02   1.0167380e+02
   8.9729910e+02   1.5595120e+02
   8.9778130e+02   1.7023830e+02
   8.9826340e+02   1.4403120e+02
   8.9874550e+02   1.1425980e+02
   8.9922760e+02   9.5222660e+01
   8.9970970e+02   8.7738280e+01
   9.0019180e+02   1.0684770e+02
   9.0067400e+02   1.4179880e+02
   9.0115610e+02   1.5182620e+02
   9.0163820e+02   1.0044920e+02
   9.0212030e+02   4.6867190e+01
   9.0260240e+02   4.1992190e+00
   9.0308450e+02   2.5896480e+01
   9.0356670e+02   3.5697270e+01
   9.0404880e+02   2.8812500e+01
   9.0453090e+02   3.5839840e+00
   9.0501300e+02   5.1599610e+01
   9.0549510e+02   1.1302730e+02
   9.0597720e+02   1.3433790e+02
   9.0645940e+02   1.2212700e+02
   9.0694150e+02   1.0397270e+02
   9.0742360e+02   9.2136720e+01
   9.0790570e+02   8.0876950e+01
   9.0838780e+02   6.3158200e+01
   9.0886990e+02   4.5353520e+01
   9.0935210e+02   4.3890620e+01
   9.0983420e+02   6.6703120e+01
   9.1031630e+02   7.0066410e+01
   9.1079840e+02   3.5341800e+01
   9.1128050e+02   3.0859380e+00
   9.1176260e+02   7.9746090e+00
   9.1224480e+02   6.0818360e+01
   9.1272690e+02   1.4202340e+02
   9.1320900e+02   2.6827730e+02
   9.1369110e+02   3.8618950e+02
   9.1417320e+02   4.8810350e+02
   9.1465530e+02   5.5837890e+02
   9.1513750e+02   5.7225200e+02
   9.1561960e+02   5.0251170e+02
   9.1610170e+02   4.5258980e+02
   9.1658380e+02   4.3596090e+02
   9.1706590e+02   4.2726170e+02
   9.1754800e+02   3.9691600e+02
   9.1803020e+02   3.4864840e+02
   9.1851230e+02   2.7911910e+02
   9.1899440e+02   1.7631840e+02
   9.1947650e+02   9.4162110e+01
   9.1995860e+02   7.8726560e+01
   9.2044070e+02   9.2833980e+01
   9.2092290e+02   1.0185550e+02
   9.2140500e+02   1.0337890e+02
   9.2188710e+02   1.0371880e+02
   9.2236920e+02   9.3443360e+01
   9.2285130e+02   9.2503910e+01
   9.2333340e+02   1.2713480e+02
   9.2381560e+02   1.8466210e+02
   9.2429770e+02   2.1648630e+02
   9.2477980e+02   2.2225980e+02
   9.2526190e+02   2.1820310e+02
   9.2574400e+02   2.1711330e+02
   9.2622610e+02   2.1079300e+02
   9.2670830e+02   1.8659770e+02
   9.2719040e+02   1.3929490e+02
   9.2767250e+02   9.9517580e+01
   9.2815460e+02   6.5273440e+01
   9.2863670e+02   4.3136720e+01
   9.2911880e+02   3.8826170e+01
   9.2960100e+02   5.0445310e+01
   9.3008310e+02   7.4109380e+01
   9.3056520e+02   1.0737700e+02
   9.3104730e+02   1.2977930e+02
   9.3152940e+02   1.1192580e+02
   9.3201150e+02   8.9261720e+01
   9.3249370e+02   9.4783200e+01
   9.3297580e+02   1.2483790e+02
   9.3345790e+02   1.3227930e+02
   9.3394000e+02   1.0273630e+02
   9.3442210e+02   8.4125000e+01
   9.3490420e+02   9.1369140e+01
   9.3538640e+02   1.1538870e+02
   9.3586850e+02   1.3259570e+02
   9.3635060e+02   1.4293160e+02
   9.3683270e+02   1.5018750e+02
   9.3731480e+02   1.4350000e+02
   9.3779690e+02   1.4565820e+02
   9.3827910e+02   1.9508590e+02
   9.3876120e+02   2.6389260e+02
   9.3924330e+02   2.8417580e+02
   9.3972540e+02   2.0850590e+02
   9.4020750e+02   1.5341410e+02
   9.4068960e+02   1.3851760e+02
   9.4117180e+02   1.4705080e+02
   9.4165390e+02   1.5167380e+02
   9.4213600e+02   1.5404490e+02
   9.4261810e+02   1.6156250e+02
   9.4310020e+02   1.8281450e+02
   9.4358230e+02   1.9113480e+02
   9.4406450e+02   1.4202930e+02
   9.4454660e+02   7.8357420e+01
   9.4502870e+02   5.3296880e+01
   9.4551080e+02   1.0585740e+02
   9.4599290e+02   1.4766800e+02
   9.4647500e+02   1.8123630e+02
   9.4695720e+02   1.9909770e+02
   9.4743930e+02   1.8537500e+02
   9.4792140e+02   1.4811130e+02
   9.4840350e+02   1.2541020e+02
   9.4888560e+02   1.2083590e+02
   9.4936770e+02   1.2750780e+02
   9.4984990e+02   1.5219920e+02
   9.5033200e+02   1.7635550e+02
   9.5081410e+02   1.8768160e+02
   9.5129620e+02   1.8727340e+02
   9.5177830e+02   1.7298630e+02
   9.5226040e+02   1.4023440e+02
   9.5274260e+02   9.6777340e+01
   9.5322470e+02   3.1953120e+01
   9.5370680e+02   3.7404300e+01
   9.5418890e+02   2.4388670e+01
   9.5467100e+02   6.0826170e+01
   9.5515310e+02   1.3254300e+02
   9.5563530e+02   1.1908400e+02
   9.5611740e+02   8.9906250e+01
   9.5659950e+02   9.2675780e+01
   9.5708160e+02   1.2379690e+02
   9.5756370e+02   1.4454690e+02
   9.5804580e+02   1.5230470e+02
   9.5852800e+02   1.5508400e+02
   9.5901010e+02   1.5882810e+02
   9.5949220e+02   1.5512700e+02
   9.5997430e+02   1.0597270e+02
   9.6045640e+02   2.7726560e+01
   9.6093850e+02   1.6158200e+01
   9.6142070e+02   4.1052730e+01
   9.6190280e+02   8.9011720e+01
   9.6238490e+02   4.4271480e+01
   9.6286700e+02   4.0525390e+01
   9.6334910e+02   7.5761720e+01
   9.6383120e+02   4.7828120e+01
   9.6431340e+02   4.6347660e+00
   9.6479550e+02   9.0615230e+01
   9.6527760e+02   1.6755080e+02
   9.6575970e+02   1.5808200e+02
   9.6624180e+02   9.5931640e+01
   9.6672390e+02   7.5279300e+01
   9.6720610e+02   1.2441600e+02
   9.6768820e+02   1.5884570e+02
   9.6817030e+02   1.0558790e+02
   9.6865240e+02   3.5388670e+01
   9.6913450e+02   5.8671880e+00
   9.6961660e+02   2.7568360e+01
   9.7009880e+02   5.6242190e+01
   9.7058090e+02   9.4511720e+01
   9.7106300e+02   1.2394340e+02
   9.7154510e+02   1.2480660e+02
   9.7202720e+02   1.0982230e+02
   9.7250930e+02   1.0838480e+02
   9.7299150e+02   1.1891990e+02
   9.7347360e+02   1.1785160e+02
   9.7395570e+02   8.7556640e+01
   9.7443780e+02   5.0089840e+01
   9.7491990e+02   5.9570310e+00
   9.7540200e+02   3.7451170e+01
   9.7588420e+02   3.8830080e+01
   9.7636630e+02   7.1992190e+00
   9.7684840e+02   4.7720700e+01
   9.7733050e+02   6.5779300e+01
   9.7781260e+02   6.2804690e+01
   9.7829470e+02   1.5427730e+01
   9.7877690e+02   4.9246090e+01
   9.7925900e+02   7.0179690e+01
   9.7974110e+02   3.6400390e+01
   9.8022320e+02   1.0721090e+02
   9.8070530e+02   1.0345120e+02
   9.8118740e+02   5.7701170e+01
   9.8166960e+02   7.0058590e+00
   9.8215170e+02   9.3126950e+01
   9.8263380e+02   9.0531250e+01
   9.8311590e+02   2.9039060e+01
   9.8359800e+02   1.6180080e+02
   9.8408010e+02   2.0698050e+02
   9.8456230e+02   2.0399220e+02
   9.8504440e+02   1.9754490e+02
   9.8552650e+02   1.9729100e+02
   9.8600850e+02   1.8109770e+02
   9.8649070e+02   1.3247660e+02
   9.8697280e+02   8.9617190e+01
   9.8745490e+02   8.1023440e+01
   9.8793700e+02   1.0294530e+02
   9.8841910e+02   1.0934960e+02
   9.8890120e+02   1.0079880e+02
   9.8938340e+02   9.3568360e+01
   9.8986550e+02   1.1217380e+02
   9.9034760e+02   1.2506050e+02
   9.9082970e+02   1.0375200e+02
   9.9131180e+02   5.3074220e+01
   9.9179390e+02   6.1523440e+00
   9.9227610e+02   4.6656250e+01
   9.9275820e+02   6.7738280e+01
   9.9324030e+02   3.9052730e+01
   9.9372240e+02   1.7085940e+01
   9.9420450e+02   5.5310550e+01
   9.9468660e+02   7.9048830e+01
   9.9516880e+02   9.7761720e+01
   9.9565090e+02   1.1020900e+02
   9.9613300e+02   1.2596290e+02
   9.9661510e+02   1.6154690e+02
   9.9709720e+02   1.9693160e+02
   9.9757930e+02   2.0699800e+02
   9.9806150e+02   1.8514060e+02
   9.9854360e+02   1.5643160e+02
   9.9902570e+02   1.1852150e+02
   9.9950780e+02   8.5669920e+01
   9.9998990e+02   6.5693360e+01
   1.0004720e+03   6.2759770e+01
   1.0009540e+03   9.2742190e+01
   1.0014360e+03   1.5677930e+02
   1.0019180e+03   2.1345510e+02
   1.0024010e+03   2.2309180e+02
   1.0028830e+03   2.4471480e+02
   1.0033650e+03   3.2483010e+02
   1.0038470e+03   4.4939450e+02
   1.0043290e+03   4.6474220e+02
   1.0048110e+03   3.6923440e+02
   1.0052930e+03   2.6554100e+02
   1.0057750e+03   1.9287300e+02
   1.0062570e+03   1.4971290e+02
   1.0067400e+03   1.4950390e+02
   1.0072220e+03   1.7691020e+02
   1.0077040e+03   1.9375000e+02
   1.0081860e+03   1.8792580e+02
   1.0086680e+03   1.7066020e+02
   1.0091500e+03   1.2993750e+02
   1.0096320e+03   9.5097660e+01
   1.0101140e+03   1.3035350e+02
   1.0105960e+03   2.1791210e+02
   1.0110790e+03   2.5160350e+02
   1.0115610e+03   1.9934180e+02
   1.0120430e+03   1.4274410e+02
   1.0125250e+03   1.5060160e+02
   1.0130070e+03   1.7429300e+02
   1.0134890e+03   1.5833590e+02
   1.0139710e+03   7.1853520e+01
   1.0144530e+03   1.0075200e+02
   1.0149360e+03   2.7973830e+02
   1.0154180e+03   4.6202150e+02
   1.0159000e+03   5.4882030e+02
   1.0163820e+03   5.6965040e+02
   1.0168640e+03   5.9788090e+02
   1.0173460e+03   6.2589450e+02
   1.0178280e+03   6.1084180e+02
   1.0183100e+03   4.8910350e+02
   1.0187920e+03   3.6646090e+02
   1.0192750e+03   2.8193360e+02
   1.0197570e+03   2.2855270e+02
   1.0202390e+03   1.9834380e+02
   1.0207210e+03   1.8848630e+02
   1.0212030e+03   1.9088280e+02
   1.0216850e+03   2.0727730e+02
   1.0221670e+03   2.4031050e+02
   1.0226490e+03   3.3680270e+02
   1.0231320e+03   4.2907230e+02
   1.0236140e+03   4.1008590e+02
   1.0240960e+03   1.6139060e+02
   1.0245780e+03   3.1531250e+01
   1.0250600e+03   9.4763670e+01
   1.0255420e+03   1.9696290e+02
   1.0260240e+03   2.2070120e+02
   1.0265060e+03   1.7788090e+02
   1.0269890e+03   1.3472460e+02
   1.0274710e+03   9.4572270e+01
   1.0279530e+03   7.2880860e+01
   1.0284350e+03   9.0582030e+01
   1.0289170e+03   1.1983200e+02
   1.0293990e+03   1.4512500e+02
   1.0298810e+03   1.6612300e+02
   1.0303630e+03   1.8356450e+02
   1.0308450e+03   1.9332620e+02
   1.0313280e+03   2.1863870e+02
   1.0318100e+03   2.7698240e+02
   1.0322920e+03   3.3437890e+02
   1.0327740e+03   3.2156450e+02
   1.0332560e+03   2.6747070e+02
   1.0337380e+03   2.3787110e+02
   1.0342200e+03   2.7691410e+02
   1.0347020e+03   2.9886910e+02
   1.0351840e+03   2.6911520e+02
   1.0356670e+03   2.3030080e+02
   1.0361490e+03   2.1898050e+02
   1.0366310e+03   2.3315040e+02
   1.0371130e+03   2.3680470e+02
   1.0375950e+03   2.3327930e+02
   1.0380770e+03   2.2382810e+02
   1.0385590e+03   1.9748440e+02
   1.0390410e+03   1.7832620e+02
   1.0395240e+03   1.9503520e+02
   1.0400060e+03   2.4095310e+02
   1.0404880e+03   2.6814840e+02
   1.0409700e+03   2.8270120e+02
   1.0414520e+03   2.6151760e+02
   1.0419340e+03   1.7736130e+02
   1.0424160e+03   8.1582030e+01
   1.0428980e+03   9.6195310e+01
   1.0433800e+03   1.8393160e+02
   1.0438630e+03   2.4140040e+02
   1.0443450e+03   2.1153120e+02
   1.0448270e+03   1.8850000e+02
   1.0453090e+03   2.3616410e+02
   1.0457910e+03   2.8781840e+02
   1.0462730e+03   2.7260940e+02
   1.0467550e+03   1.8033200e+02
   1.0472370e+03   1.2949410e+02
   1.0477190e+03   1.2580270e+02
   1.0482020e+03   1.3758200e+02
   1.0486840e+03   1.4627150e+02
   1.0491660e+03   1.5212700e+02
   1.0496480e+03   1.4999220e+02
   1.0501300e+03   1.3997660e+02
   1.0506120e+03   1.4602930e+02
   1.0510940e+03   1.8179300e+02
   1.0515760e+03   2.1955270e+02
   1.0520590e+03   2.6062110e+02
   1.0525410e+03   2.8748630e+02
   1.0530230e+03   2.3956050e+02
   1.0535050e+03   1.4165430e+02
   1.0539870e+03   7.1660160e+01
   1.0544690e+03   5.5906250e+01
   1.0549510e+03   7.1121090e+01
   1.0554330e+03   1.4607230e+02
   1.0559160e+03   2.2018160e+02
   1.0563980e+03   2.2607420e+02
   1.0568800e+03   1.4358590e+02
   1.0573620e+03   1.1683200e+02
   1.0578440e+03   1.5053910e+02
   1.0583260e+03   2.0447460e+02
   1.0588080e+03   2.7211910e+02
   1.0592900e+03   3.2455080e+02
   1.0597720e+03   3.1306840e+02
   1.0602550e+03   2.4544140e+02
   1.0607370e+03   2.1056050e+02
   1.0612190e+03   2.4443160e+02
   1.0617010e+03   2.7023050e+02
   1.0621830e+03   2.7082230e+02
   1.0626650e+03   2.5091800e+02
   1.0631470e+03   2.0313670e+02
   1.0636290e+03   1.4219340e+02
   1.0641110e+03   1.1847660e+02
   1.0645940e+03   1.5620310e+02
   1.0650760e+03   2.0650000e+02
   1.0655580e+03   2.7775590e+02
   1.0660400e+03   3.2506640e+02
   1.0665220e+03   3.0390820e+02
   1.0670040e+03   2.0028120e+02
   1.0674860e+03   1.2668160e+02
   1.0679680e+03   8.2833980e+01
   1.0684500e+03   7.0060550e+01
   1.0689330e+03   1.0031840e+02
   1.0694150e+03   1.5413090e+02
   1.0698970e+03   2.2752150e+02
   1.0703790e+03   3.1015040e+02
   1.0708610e+03   3.5544340e+02
   1.0713430e+03   3.4721090e+02
   1.0718250e+03   3.1760550e+02
   1.0723070e+03   2.6286910e+02
   1.0727900e+03   2.0540620e+02
   1.0732720e+03   1.8190230e+02
   1.0737540e+03   1.8703710e+02
   1.0742360e+03   2.1413670e+02
   1.0747180e+03   2.7231050e+02
   1.0752000e+03   3.0585740e+02
   1.0756820e+03   2.5423440e+02
   1.0761640e+03   1.9784180e+02
   1.0766460e+03   1.8567770e+02
   1.0771290e+03   2.1731250e+02
   1.0776110e+03   2.9153910e+02
   1.0780930e+03   4.0878520e+02
   1.0785750e+03   4.7946480e+02
   1.0790570e+03   4.0533200e+02
   1.0795390e+03   2.9873440e+02
   1.0800210e+03   2.4995700e+02
   1.0805030e+03   2.4658200e+02
   1.0809850e+03   2.5659960e+02
   1.0814680e+03   2.8956450e+02
   1.0819500e+03   3.0413480e+02
   1.0824320e+03   2.9416020e+02
   1.0829140e+03   2.7058400e+02
   1.0833960e+03   2.3952340e+02
   1.0838780e+03   2.0752930e+02
   1.0843600e+03   1.8963670e+02
   1.0848420e+03   1.8910740e+02
   1.0853250e+03   1.8582230e+02
   1.0858070e+03   1.6795310e+02
   1.0862890e+03   1.4971480e+02
   1.0867710e+03   1.3425980e+02
   1.0872530e+03   1.2325780e+02
   1.0877350e+03   1.2908400e+02
   1.0882170e+03   1.4946090e+02
   1.0886990e+03   1.6936330e+02
   1.0891820e+03   1.8155080e+02
   1.0896640e+03   1.9194920e+02
   1.0901460e+03   2.0618750e+02
   1.0906280e+03   2.1987300e+02
   1.0911100e+03   2.3052150e+02
   1.0915920e+03   2.4856840e+02
   1.0920740e+03   2.1342580e+02
   1.0925560e+03   1.1046480e+02
   1.0930380e+03   2.4632810e+01
   1.0935210e+03   6.0101560e+01
   1.0940030e+03   1.4437500e+02
   1.0944850e+03   1.7802730e+02
   1.0949670e+03   1.5895120e+02
   1.0954490e+03   1.5185350e+02
   1.0959310e+03   1.8429100e+02
   1.0964130e+03   2.0630660e+02
   1.0968950e+03   2.0043950e+02
   1.0973770e+03   1.8358400e+02
   1.0978600e+03   2.0614260e+02
   1.0983420e+03   2.4896880e+02
   1.0988240e+03   2.4386520e+02
   1.0993060e+03   1.5416020e+02
   1.0997880e+03   7.4250000e+01
   1.1002700e+03   3.1078120e+01
   1.1007520e+03   3.2253910e+01
   1.1012340e+03   9.7431640e+01
   1.1017170e+03   2.2985740e+02
   1.1021990e+03   2.8104880e+02
   1.1026810e+03   2.5239840e+02
   1.1031630e+03   2.0855270e+02
   1.1036450e+03   1.7507620e+02
   1.1041270e+03   1.5816410e+02
   1.1046090e+03   1.7880270e+02
   1.1050910e+03   2.1913480e+02
   1.1055730e+03   2.3032810e+02
   1.1060560e+03   1.9897660e+02
   1.1065380e+03   1.7441020e+02
   1.1070200e+03   1.6254490e+02
   1.1075020e+03   1.5944340e+02
   1.1079840e+03   1.5144140e+02
   1.1084660e+03   1.5303120e+02
   1.1089480e+03   1.9874220e+02
   1.1094300e+03   2.9573630e+02
   1.1099120e+03   3.5926370e+02
   1.1103950e+03   3.5953710e+02
   1.1108770e+03   3.4398050e+02
   1.1113590e+03   3.1983590e+02
   1.1118410e+03   2.8877540e+02
   1.1123230e+03   2.5944530e+02
   1.1128050e+03   2.3349220e+02
   1.1132870e+03   2.3227930e+02
   1.1137690e+03   2.8517190e+02
   1.1142520e+03   3.2029490e+02
   1.1147340e+03   2.7229100e+02
   1.1152160e+03   2.1607420e+02
   1.1156980e+03   2.3635350e+02
   1.1161800e+03   3.4444140e+02
   1.1166620e+03   3.7228320e+02
   1.1171440e+03   3.1810740e+02
   1.1176260e+03   2.4852540e+02
   1.1181090e+03   1.8790620e+02
   1.1185910e+03   1.5225590e+02
   1.1190730e+03   1.7491990e+02
   1.1195550e+03   2.3570900e+02
   1.1200370e+03   2.5922850e+02
   1.1205190e+03   2.3987890e+02
   1.1210010e+03   1.8986910e+02
   1.1214830e+03   9.7183590e+01
   1.1219650e+03   2.1263670e+01
   1.1224480e+03   5.9056640e+01
   1.1229300e+03   1.5283590e+02
   1.1234120e+03   2.2337500e+02
   1.1238940e+03   2.5866210e+02
   1.1243760e+03   2.6965430e+02
   1.1248580e+03   2.4827540e+02
   1.1253400e+03   2.2398630e+02
   1.1258220e+03   2.0736520e+02
   1.1263040e+03   1.9791800e+02
   1.1267870e+03   1.9289060e+02
   1.1272690e+03   1.9380470e+02
   1.1277510e+03   2.0674220e+02
   1.1282330e+03   2.5513670e+02
   1.1287150e+03   2.8175000e+02
   1.1291970e+03   2.4719530e+02
   1.1296790e+03   2.0406450e+02
   1.1301610e+03   2.0400590e+02
   1.1306440e+03   2.4328520e+02
   1.1311260e+03   2.4700980e+02
   1.1316080e+03   2.1469920e+02
   1.1320900e+03   1.8396290e+02
   1.1325720e+03   1.6876560e+02
   1.1330540e+03   1.7302540e+02
   1.1335360e+03   2.1742970e+02
   1.1340180e+03   2.8007810e+02
   1.1345000e+03   3.0266990e+02
   1.1349830e+03   2.8096680e+02
   1.1354650e+03   2.5545120e+02
   1.1359470e+03   2.3119920e+02
   1.1364290e+03   2.1448440e+02
   1.1369110e+03   2.2469920e+02
   1.1373930e+03   2.3757230e+02
   1.1378750e+03   2.2387890e+02
   1.1383570e+03   1.7609960e+02
   1.1388390e+03   1.4433590e+02
   1.1393220e+03   1.2516210e+02
   1.1398040e+03   1.3858980e+02
   1.1402860e+03   2.1970510e+02
   1.1407680e+03   3.0675390e+02
   1.1412500e+03   2.8029690e+02
   1.1417320e+03   1.8505860e+02
   1.1422140e+03   1.0399410e+02
   1.1426960e+03   6.0917970e+01
   1.1431790e+03   4.6066410e+01
   1.1436610e+03   7.4990230e+01
   1.1441430e+03   1.0011330e+02
   1.1446250e+03   6.1484380e+01
   1.1451070e+03   1.0234380e+01
   1.1455890e+03   5.9687500e+00
   1.1460710e+03   6.4796880e+01
   1.1465530e+03   1.3462110e+02
   1.1470360e+03   1.8342770e+02
   1.1475180e+03   2.1169730e+02
   1.1480000e+03   2.1359960e+02
   1.1484820e+03   2.0030470e+02
   1.1489640e+03   1.9583400e+02
   1.1494460e+03   1.9504880e+02
   1.1499280e+03   1.5553320e+02
   1.1504100e+03   6.8177730e+01
   1.1508920e+03   8.7578130e+00
   1.1513750e+03   5.2968750e+01
   1.1518570e+03   5.6533200e+01
   1.1523390e+03   9.5507810e+00
   1.1528210e+03   1.2283400e+02
   1.1533030e+03   1.6402340e+02
   1.1537850e+03   1.3424020e+02
   1.1542670e+03   1.0567580e+02
   1.1547490e+03   1.0411130e+02
   1.1552310e+03   1.1043550e+02
   1.1557140e+03   1.0426370e+02
   1.1561960e+03   9.4982420e+01
   1.1566780e+03   9.0220700e+01
   1.1571600e+03   8.4886720e+01
   1.1576420e+03   1.2044920e+02
   1.1581240e+03   2.0482620e+02
   1.1586060e+03   2.6789260e+02
   1.1590880e+03   2.5582230e+02
   1.1595710e+03   2.0518950e+02
   1.1600530e+03   1.3358590e+02
   1.1605350e+03   5.8828120e+01
   1.1610170e+03   2.7621090e+01
   1.1614990e+03   7.1095700e+01
   1.1619810e+03   9.9208980e+01
   1.1624630e+03   1.0270310e+02
   1.1629450e+03   1.0206450e+02
   1.1634270e+03   1.2883790e+02
   1.1639100e+03   1.6050780e+02
   1.1643920e+03   1.5729100e+02
   1.1648740e+03   1.2010350e+02
   1.1653560e+03   8.5126950e+01
   1.1658380e+03   6.1337890e+01
   1.1663200e+03   4.1570310e+01
   1.1668020e+03   2.8857420e+01
   1.1672840e+03   1.2656250e+01
   1.1677660e+03   4.3402340e+01
   1.1682490e+03   1.1470700e+02
   1.1687310e+03   1.4733400e+02
   1.1692130e+03   1.2677340e+02
   1.1696950e+03   8.1982420e+01
   1.1701770e+03   2.4648440e+01
   1.1706590e+03   9.8708980e+01
   1.1711410e+03   7.8503910e+01
   1.1716230e+03   2.9687500e-01
   1.1721060e+03   1.1603520e+01
   1.1725880e+03   2.8662110e+01
   1.1730700e+03   5.7388670e+01
   1.1735520e+03   3.8265620e+01
   1.1740340e+03   2.9394530e+01
   1.1745160e+03   7.0406250e+01
   1.1749980e+03   1.1166600e+02
   1.1754800e+03   1.0597070e+02
   1.1759630e+03   5.7169920e+01
   1.1764450e+03   6.2935550e+01
   1.1769270e+03   1.1808790e+02
   1.1774090e+03   1.5766210e+02
   1.1778910e+03   1.1573630e+02
   1.1783730e+03   7.5568360e+01
   1.1788550e+03   9.4830080e+01
   1.1793370e+03   1.3522460e+02
   1.1798190e+03   1.3392970e+02
   1.1803020e+03   9.0031250e+01
   1.1807840e+03   7.5880860e+01
   1.1812660e+03   1.0260550e+02
   1.1817480e+03   1.3512300e+02
   1.1822300e+03   1.4370310e+02
   1.1827120e+03   1.4999410e+02
   1.1831940e+03   1.7933790e+02
   1.1836760e+03   2.1974410e+02
   1.1841580e+03   2.1878910e+02
   1.1846410e+03   1.7289650e+02
   1.1851230e+03   1.3073440e+02
   1.1856050e+03   9.9068360e+01
   1.1860870e+03   9.7531250e+01
   1.1865690e+03   1.8604690e+02
   1.1870510e+03   2.9034380e+02
   1.1875330e+03   3.2576950e+02
   1.1880150e+03   2.8198830e+02
   1.1884980e+03   2.6227150e+02
   1.1889800e+03   2.6824410e+02
   1.1894620e+03   2.8565040e+02
   1.1899440e+03   3.1765620e+02
   1.1904260e+03   3.4203910e+02
   1.1909080e+03   3.2952340e+02
   1.1913900e+03   2.9395310e+02
   1.1918720e+03   2.5447460e+02
   1.1923540e+03   2.1293750e+02
   1.1928370e+03   1.6869730e+02
   1.1933190e+03   1.1637890e+02
   1.1938010e+03   8.9070310e+01
   1.1942830e+03   1.4393160e+02
   1.1947650e+03   2.1400390e+02
   1.1952470e+03   1.8277340e+02
   1.1957290e+03   9.5533200e+01
   1.1962110e+03   7.7853520e+01
   1.1966930e+03   2.1836520e+02
   1.1971760e+03   2.6350590e+02
   1.1976580e+03   1.7747270e+02
   1.1981400e+03   6.0917970e+01
   1.1986220e+03   7.8613280e+00
   1.1991040e+03   3.0818360e+01
   1.1995860e+03   1.4220700e+01
   1.2000680e+03   1.1311720e+02
   1.2005500e+03   1.6140230e+02
   1.2010330e+03   1.0298440e+02
   1.2015150e+03   7.6253910e+01
   1.2019970e+03   1.1432420e+02
   1.2024790e+03   1.7366990e+02
   1.2029610e+03   2.0351370e+02
   1.2034430e+03   2.0576760e+02
   1.2039250e+03   1.7264060e+02
   1.2044070e+03   1.0067190e+02
   1.2048900e+03   6.0828120e+01
   1.2053720e+03   8.0294920e+01
   1.2058540e+03   9.8511720e+01
   1.2063360e+03   9.1031250e+01
   1.2068180e+03   7.8798830e+01
   1.2073000e+03   1.1358010e+02
   1.2077820e+03   1.7148630e+02
   1.2082640e+03   2.0236330e+02
   1.2087460e+03   1.8622460e+02
   1.2092290e+03   1.6848050e+02
   1.2097110e+03   1.5332810e+02
   1.2101930e+03   1.4979300e+02
   1.2106750e+03   1.7135350e+02
   1.2111570e+03   1.9783400e+02
   1.2116390e+03   1.6246090e+02
   1.2121210e+03   8.9658200e+01
   1.2126030e+03   4.7097660e+01
   1.2130850e+03   8.2175780e+01
   1.2135680e+03   1.1031250e+02
   1.2140500e+03   1.1788670e+02
   1.2145320e+03   1.2469530e+02
   1.2150140e+03   1.5731050e+02
   1.2154960e+03   1.9960740e+02
   1.2159780e+03   1.9014650e+02
   1.2164600e+03   1.4147270e+02
   1.2169420e+03   1.0825780e+02
   1.2174250e+03   1.3536720e+02
   1.2179070e+03   1.4559570e+02
   1.2183890e+03   1.1443360e+02
   1.2188710e+03   8.1548830e+01
   1.2193530e+03   1.0285160e+02
   1.2198350e+03   1.5707620e+02
   1.2203170e+03   1.8471290e+02
   1.2207990e+03   1.8411720e+02
   1.2212810e+03   1.7873830e+02
   1.2217640e+03   1.8803120e+02
   1.2222460e+03   1.7624220e+02
   1.2227280e+03   1.2068550e+02
   1.2232100e+03   6.3068360e+01
   1.2236920e+03   9.2644530e+01
   1.2241740e+03   1.7182420e+02
   1.2246560e+03   1.8663480e+02
   1.2251380e+03   1.1762110e+02
   1.2256200e+03   7.8332030e+01
   1.2261030e+03   1.7371880e+02
   1.2265850e+03   2.1933200e+02
   1.2270670e+03   1.4111520e+02
   1.2275490e+03   1.0228520e+01
   1.2280310e+03   1.2691410e+01
   1.2285130e+03   3.5830080e+01
   1.2289950e+03   7.3306640e+01
   1.2294770e+03   8.1587890e+01
   1.2299600e+03   7.5662110e+01
   1.2304420e+03   6.6031250e+01
   1.2309240e+03   3.5726560e+01
   1.2314060e+03   3.9785160e+01
   1.2318880e+03   1.2766020e+02
   1.2323700e+03   1.2385160e+02
   1.2328520e+03   5.4447270e+01
   1.2333340e+03   1.0349610e+01
   1.2338160e+03   5.0037110e+01
   1.2342990e+03   7.6382810e+01
   1.2347810e+03   8.6308590e+01
   1.2352630e+03   9.3865230e+01
   1.2357450e+03   1.1480270e+02
   1.2362270e+03   1.3631050e+02
   1.2367090e+03   9.9367190e+01
   1.2371910e+03   2.5701170e+01
   1.2376730e+03   1.4658200e+01
   1.2381560e+03   3.8005860e+01
   1.2386380e+03   7.5306640e+01
   1.2391200e+03   7.5750000e+01
   1.2396020e+03   7.0861330e+01
   1.2400840e+03   7.3423830e+01
   1.2405660e+03   9.5605470e+01
   1.2410480e+03   2.2313090e+02
   1.2415300e+03   4.1356050e+02
   1.2420120e+03   4.8449220e+02
   1.2424950e+03   2.0646680e+02
   1.2429770e+03   3.5625000e+01
   1.2434590e+03   6.4037110e+01
   1.2439410e+03   1.5924410e+02
   1.2444230e+03   1.6941990e+02
   1.2449050e+03   1.4055860e+02
   1.2453870e+03   1.6899410e+02
   1.2458690e+03   2.4866800e+02
   1.2463510e+03   2.8358980e+02
   1.2468340e+03   1.8811130e+02
   1.2473160e+03   1.2810550e+02
   1.2477980e+03   1.3437700e+02
   1.2482800e+03   1.7472460e+02
   1.2487620e+03   2.2260740e+02
   1.2492440e+03   2.6491990e+02
   1.2497260e+03   2.7280470e+02
   1.2502080e+03   2.4182810e+02
   1.2506910e+03   2.3331450e+02
   1.2511730e+03   3.0074220e+02
   1.2516550e+03   3.5066990e+02
   1.2521370e+03   3.5509770e+02
   1.2526190e+03   3.3607810e+02
   1.2531010e+03   3.1537300e+02
   1.2535830e+03   2.9414060e+02
   1.2540650e+03   2.8022070e+02
   1.2545470e+03   2.7430860e+02
   1.2550300e+03   2.7449610e+02
   1.2555120e+03   2.8250780e+02
   1.2559940e+03   2.8806450e+02
   1.2564760e+03   2.8882420e+02
   1.2569580e+03   2.8538280e+02
   1.2574400e+03   2.6470510e+02
   1.2579220e+03   2.4604100e+02
   1.2584040e+03   2.5992190e+02
   1.2588860e+03   3.3211130e+02
   1.2593690e+03   3.1976950e+02
   1.2598510e+03   1.9400000e+02
   1.2603330e+03   9.2980470e+01
   1.2608150e+03   8.4605470e+01
   1.2612970e+03   1.2423240e+02
   1.2617790e+03   1.5821680e+02
   1.2622610e+03   1.8941600e+02
   1.2627430e+03   2.2222660e+02
   1.2632260e+03   2.7144140e+02
   1.2637080e+03   2.8517580e+02
   1.2641900e+03   2.5692190e+02
   1.2646720e+03   2.2964840e+02
   1.2651540e+03   2.0645310e+02
   1.2656360e+03   2.0708980e+02
   1.2661180e+03   2.5250780e+02
   1.2666000e+03   3.0322660e+02
   1.2670830e+03   2.7403120e+02
   1.2675650e+03   1.6866410e+02
   1.2680470e+03   9.8804690e+01
   1.2685290e+03   4.5449220e+01
   1.2690110e+03   2.3843750e+01
   1.2694930e+03   7.0121090e+01
   1.2699750e+03   1.1593750e+02
   1.2704570e+03   1.4530470e+02
   1.2709390e+03   1.5080470e+02
   1.2714220e+03   1.3029690e+02
   1.2719040e+03   8.2398440e+01
   1.2723860e+03   5.2570310e+01
   1.2728680e+03   3.4453120e+01
   1.2733500e+03   4.8492190e+01
   1.2738320e+03   1.1566020e+02
   1.2743140e+03   1.8637890e+02
   1.2747960e+03   2.2798440e+02
   1.2752780e+03   2.4640230e+02
   1.2757610e+03   2.4434770e+02
   1.2762430e+03   2.2098440e+02
   1.2767250e+03   1.9996090e+02
   1.2772070e+03   1.8374220e+02
   1.2776890e+03   1.6305080e+02
   1.2781710e+03   1.1680860e+02
   1.2786530e+03   8.4074220e+01
   1.2791350e+03   9.1375000e+01
   1.2796180e+03   1.1615620e+02
   1.2801000e+03   1.2210550e+02
   1.2805820e+03   1.1441800e+02
   1.2810640e+03   1.0873830e+02
   1.2815460e+03   1.0109770e+02
   1.2820280e+03   9.1222660e+01
   1.2825100e+03   5.1773440e+01
   1.2829920e+03   3.7898440e+01
   1.2834740e+03   7.6796880e+01
   1.2839570e+03   1.3139060e+02
   1.2844390e+03   1.2215620e+02
   1.2849210e+03   7.7128910e+01
   1.2854030e+03   7.7449220e+01
   1.2858850e+03   1.3868360e+02
   1.2863670e+03   1.9880860e+02
   1.2868490e+03   2.3888670e+02
   1.2873310e+03   2.4318360e+02
   1.2878130e+03   1.9883980e+02
   1.2882960e+03   1.4394530e+02
   1.2887780e+03   1.2290620e+02
   1.2892600e+03   1.2430080e+02
   1.2897420e+03   1.3842970e+02
   1.2902240e+03   1.6460160e+02
   1.2907060e+03   1.5630470e+02
   1.2911880e+03   9.9589840e+01
   1.2916700e+03   4.6523440e+01
   1.2921530e+03   7.1328130e+00
   1.2926350e+03   5.8984380e+00
   1.2931170e+03   8.4199220e+01
   1.2935990e+03   1.9373830e+02
   1.2940810e+03   1.9387890e+02
   1.2945630e+03   4.4800780e+01
   1.2950450e+03   4.9218800e-01
   1.2955270e+03   7.7449220e+01
   1.2960100e+03   1.4010160e+02
   1.2964920e+03   1.2958590e+02
   1.2969740e+03   1.0004690e+02
   1.2974560e+03   1.0391020e+02
   1.2979380e+03   1.3364450e+02
   1.2984200e+03   1.4174220e+02
   1.2989020e+03   1.2286330e+02
   1.2993840e+03   8.5203120e+01
   1.2998660e+03   2.5507810e+01
   1.3003490e+03   1.0703130e+00
   1.3008310e+03   4.9378910e+01
   1.3013130e+03   5.8777340e+01
   1.3017950e+03   0.0000000e+00
   1.5000000e+03   0.0000000e+00
