   1.0000000e+02   0.0000000e+00
   1.2329750e+02   0.0000000e+00
   1.2377960e+02   1.0106810e+00
   1.2426170e+02   9.1564900e-01
   1.2474380e+02   1.0027470e+01
   1.2522590e+02   2.4472290e+01
   1.2570810e+02   4.4225220e+01
   1.2619020e+02   6.7722600e+01
   1.2667230e+02   8.8062930e+01
   1.2715440e+02   1.0370930e+02
   1.2763650e+02   1.1939060e+02
   1.2811860e+02   1.3818820e+02
   1.2860080e+02   1.6092020e+02
   1.2908290e+02   1.8573640e+02
   1.2956500e+02   2.0940400e+02
   1.3004710e+02   2.3204230e+02
   1.3052920e+02   2.5638640e+02
   1.3101130e+02   2.8541850e+02
   1.3149350e+02   3.1860160e+02
   1.3197560e+02   3.5333240e+02
   1.3245770e+02   3.8699330e+02
   1.3293980e+02   4.2125720e+02
   1.3342190e+02   4.6072960e+02
   1.3390400e+02   5.0547010e+02
   1.3438620e+02   5.5576200e+02
   1.3486830e+02   6.1044810e+02
   1.3535040e+02   6.6977120e+02
   1.3583250e+02   7.3709740e+02
   1.3631460e+02   8.1624290e+02
   1.3679670e+02   9.0541480e+02
   1.3727890e+02   9.9444260e+02
   1.3776100e+02   1.0896800e+03
   1.3824310e+02   1.1762470e+03
   1.3872520e+02   1.2328650e+03
   1.3920730e+02   1.2632560e+03
   1.3968940e+02   1.2569030e+03
   1.4017160e+02   1.2031850e+03
   1.4065370e+02   1.0952710e+03
   1.4113580e+02   9.8078720e+02
   1.4161790e+02   8.5411110e+02
   1.4210000e+02   7.2427970e+02
   1.4258210e+02   6.0819950e+02
   1.4306430e+02   5.0598720e+02
   1.4354640e+02   4.1663400e+02
   1.4402850e+02   3.3851120e+02
   1.4451060e+02   2.7181490e+02
   1.4499270e+02   2.1693540e+02
   1.4547480e+02   1.7694070e+02
   1.4595700e+02   1.4841910e+02
   1.4643910e+02   1.2398810e+02
   1.4692120e+02   1.0486500e+02
   1.4740330e+02   9.0035770e+01
   1.4788540e+02   7.7293950e+01
   1.4836750e+02   6.5306340e+01
   1.4884970e+02   5.2909850e+01
   1.4933180e+02   4.1020570e+01
   1.4981390e+02   3.0219790e+01
   1.5029600e+02   2.1990780e+01
   1.5077810e+02   1.8756040e+01
   1.5126020e+02   1.6351260e+01
   1.5174240e+02   1.2568790e+01
   1.5222450e+02   4.2211910e+00
   1.5270660e+02   1.8798220e+00
   1.5318870e+02   4.1940920e+00
   1.5367080e+02   3.0629880e+00
   1.5415290e+02   2.9709470e+00
   1.5463510e+02   4.8570560e+00
   1.5511720e+02   7.2454220e+00
   1.5559930e+02   9.1708370e+00
   1.5608140e+02   1.0697140e+01
   1.5656350e+02   1.1952640e+01
   1.5704560e+02   1.3363160e+01
   1.5752780e+02   1.4914490e+01
   1.5800990e+02   1.4817570e+01
   1.5849200e+02   1.1525880e+01
   1.5897410e+02   6.9821170e+00
   1.5945620e+02   2.9045410e+00
   1.5993830e+02   1.4243160e+00
   1.6042050e+02   1.1072390e+00
   1.6090260e+02   6.0750730e+00
   1.6138470e+02   1.3794070e+01
   1.6186680e+02   2.2977540e+01
   1.6234890e+02   3.3401980e+01
   1.6283100e+02   4.4815310e+01
   1.6331320e+02   5.6981320e+01
   1.6379530e+02   7.3453740e+01
   1.6427740e+02   8.8663700e+01
   1.6475950e+02   9.9603520e+01
   1.6524160e+02   1.0663290e+02
   1.6572370e+02   1.0866850e+02
   1.6620590e+02   1.0390410e+02
   1.6668800e+02   9.4112120e+01
   1.6717010e+02   8.1982480e+01
   1.6765220e+02   6.5597840e+01
   1.6813430e+02   4.9186040e+01
   1.6861640e+02   3.5729980e+01
   1.6909850e+02   2.5740110e+01
   1.6958070e+02   1.7594540e+01
   1.7006280e+02   1.0229680e+01
   1.7054490e+02   3.8981320e+00
   1.7102700e+02   8.3880600e-01
   1.7150910e+02   3.5657960e+00
   1.7199120e+02   4.6460570e+00
   1.7247340e+02   4.4638060e+00
   1.7295550e+02   3.1344600e+00
   1.7343760e+02   2.9925500e-01
   1.7391970e+02   5.1970830e+00
   1.7440180e+02   1.2603700e+01
   1.7488390e+02   1.9845090e+01
   1.7536610e+02   2.5195680e+01
   1.7584820e+02   2.9790220e+01
   1.7633030e+02   3.4783200e+01
   1.7681240e+02   3.9998290e+01
   1.7729450e+02   4.6575260e+01
   1.7777660e+02   5.5765500e+01
   1.7825880e+02   6.7460330e+01
   1.7874090e+02   8.0792480e+01
   1.7922300e+02   9.6704960e+01
   1.7970510e+02   1.1384890e+02
   1.8018720e+02   1.3030190e+02
   1.8066930e+02   1.4743560e+02
   1.8115150e+02   1.6129900e+02
   1.8163360e+02   1.6587300e+02
   1.8211570e+02   1.6153480e+02
   1.8259780e+02   1.5034290e+02
   1.8307990e+02   1.3007620e+02
   1.8356200e+02   1.0365030e+02
   1.8404420e+02   7.8931030e+01
   1.8452630e+02   5.6204220e+01
   1.8500840e+02   3.7138120e+01
   1.8549050e+02   2.4986690e+01
   1.8597260e+02   1.9661740e+01
   1.8645470e+02   1.7342530e+01
   1.8693690e+02   1.5553830e+01
   1.8741900e+02   1.4394470e+01
   1.8790110e+02   1.4406250e+01
   1.8838320e+02   1.5857730e+01
   1.8886530e+02   1.8400820e+01
   1.8934740e+02   2.0964290e+01
   1.8982960e+02   2.3525390e+01
   1.9031170e+02   2.7340150e+01
   1.9079380e+02   3.3358700e+01
   1.9127590e+02   4.1541320e+01
   1.9175800e+02   5.1769170e+01
   1.9224010e+02   6.4956180e+01
   1.9272230e+02   7.9773130e+01
   1.9320440e+02   9.2829100e+01
   1.9368650e+02   1.0429190e+02
   1.9416860e+02   1.1364870e+02
   1.9465070e+02   1.2175440e+02
   1.9513280e+02   1.2843910e+02
   1.9561500e+02   1.2824900e+02
   1.9609710e+02   1.1826640e+02
   1.9657920e+02   1.0075730e+02
   1.9706130e+02   8.3815060e+01
   1.9754340e+02   6.7274840e+01
   1.9802550e+02   5.2165410e+01
   1.9850770e+02   4.0106630e+01
   1.9898980e+02   3.1115110e+01
   1.9947190e+02   2.3278380e+01
   1.9995400e+02   1.6036560e+01
   2.0043610e+02   9.5993650e+00
   2.0091820e+02   5.0947270e+00
   2.0140040e+02   2.7631230e+00
   2.0188250e+02   1.7362060e+00
   2.0236460e+02   1.5415040e+00
   2.0284670e+02   2.3507080e+00
   2.0332880e+02   2.5072630e+00
   2.0381090e+02   1.1372680e+00
   2.0429310e+02   1.3935550e+00
   2.0477520e+02   1.8893430e+00
   2.0525730e+02   2.2887999e-02
   2.0573940e+02   3.0558470e+00
   2.0622150e+02   6.0916750e+00
   2.0670360e+02   9.1992190e+00
   2.0718580e+02   1.2440980e+01
   2.0766790e+02   1.5526730e+01
   2.0815000e+02   1.8372500e+01
   2.0863210e+02   2.2302120e+01
   2.0911420e+02   2.7981140e+01
   2.0959630e+02   3.3837890e+01
   2.1007850e+02   3.7568360e+01
   2.1056060e+02   3.7939150e+01
   2.1104270e+02   4.0104610e+01
   2.1152480e+02   4.6168820e+01
   2.1200690e+02   5.5834110e+01
   2.1248900e+02   6.2689940e+01
   2.1297120e+02   6.5883540e+01
   2.1345330e+02   6.7762270e+01
   2.1393540e+02   7.0847960e+01
   2.1441750e+02   7.5639650e+01
   2.1489960e+02   8.0566960e+01
   2.1538170e+02   8.5071960e+01
   2.1586390e+02   8.9046260e+01
   2.1634600e+02   9.3608460e+01
   2.1682810e+02   9.8901430e+01
   2.1731020e+02   1.0514300e+02
   2.1779230e+02   1.1222470e+02
   2.1827440e+02   1.2030440e+02
   2.1875650e+02   1.2844460e+02
   2.1923870e+02   1.3589010e+02
   2.1972080e+02   1.4262820e+02
   2.2020290e+02   1.5148590e+02
   2.2068500e+02   1.6290870e+02
   2.2116710e+02   1.7617670e+02
   2.2164920e+02   1.9021250e+02
   2.2213140e+02   2.0519200e+02
   2.2261350e+02   2.2028020e+02
   2.2309560e+02   2.3513130e+02
   2.2357770e+02   2.5001130e+02
   2.2405980e+02   2.6492470e+02
   2.2454190e+02   2.7820230e+02
   2.2502410e+02   2.9319450e+02
   2.2550620e+02   3.1428660e+02
   2.2598830e+02   3.4347960e+02
   2.2647040e+02   3.7439250e+02
   2.2695250e+02   4.0571700e+02
   2.2743460e+02   4.3795810e+02
   2.2791680e+02   4.6864660e+02
   2.2839890e+02   5.0024400e+02
   2.2888100e+02   5.2746720e+02
   2.2936310e+02   5.4500960e+02
   2.2984520e+02   5.5391940e+02
   2.3032730e+02   5.5168880e+02
   2.3080950e+02   5.3691470e+02
   2.3129160e+02   5.0946860e+02
   2.3177370e+02   4.7538240e+02
   2.3225580e+02   4.3093520e+02
   2.3273790e+02   3.8343640e+02
   2.3322000e+02   3.4044470e+02
   2.3370220e+02   3.0226690e+02
   2.3418430e+02   2.6810800e+02
   2.3466640e+02   2.3812740e+02
   2.3514850e+02   2.1257040e+02
   2.3563060e+02   1.9032170e+02
   2.3611270e+02   1.7150350e+02
   2.3659490e+02   1.5559410e+02
   2.3707700e+02   1.4225930e+02
   2.3755910e+02   1.3256240e+02
   2.3804120e+02   1.2338780e+02
   2.3852330e+02   1.1409550e+02
   2.3900540e+02   1.0465620e+02
   2.3948760e+02   9.6520570e+01
   2.3996970e+02   8.9551330e+01
   2.4045180e+02   8.3959530e+01
   2.4093390e+02   8.0109010e+01
   2.4141600e+02   7.8908390e+01
   2.4189810e+02   7.7612120e+01
   2.4238030e+02   7.5285770e+01
   2.4286240e+02   7.2020200e+01
   2.4334450e+02   7.1297730e+01
   2.4382660e+02   7.4984920e+01
   2.4430870e+02   7.9135310e+01
   2.4479080e+02   8.0187930e+01
   2.4527300e+02   7.5843690e+01
   2.4575510e+02   7.3025570e+01
   2.4623720e+02   7.2941410e+01
   2.4671930e+02   7.5426450e+01
   2.4720140e+02   7.8246700e+01
   2.4768350e+02   8.1242920e+01
   2.4816570e+02   8.4688420e+01
   2.4864780e+02   8.8680730e+01
   2.4912990e+02   9.3081480e+01
   2.4961200e+02   9.8360110e+01
   2.5009410e+02   1.0471990e+02
   2.5057620e+02   1.1206710e+02
   2.5105840e+02   1.1976900e+02
   2.5154050e+02   1.2810350e+02
   2.5202260e+02   1.3633760e+02
   2.5250470e+02   1.4399550e+02
   2.5298680e+02   1.5158790e+02
   2.5346890e+02   1.5780520e+02
   2.5395110e+02   1.6367430e+02
   2.5443320e+02   1.6833230e+02
   2.5491530e+02   1.6641200e+02
   2.5539740e+02   1.5619510e+02
   2.5587950e+02   1.4216430e+02
   2.5636160e+02   1.2662510e+02
   2.5684380e+02   1.0812260e+02
   2.5732590e+02   9.1596370e+01
   2.5780800e+02   7.7450990e+01
   2.5829010e+02   6.5517400e+01
   2.5877220e+02   5.4828610e+01
   2.5925430e+02   4.5208860e+01
   2.5973650e+02   3.7222350e+01
   2.6021860e+02   3.1329960e+01
   2.6070070e+02   2.8403560e+01
   2.6118280e+02   2.5216370e+01
   2.6166490e+02   2.1502560e+01
   2.6214700e+02   1.7241150e+01
   2.6262920e+02   1.2552800e+01
   2.6311130e+02   7.1907960e+00
   2.6359340e+02   2.4085080e+00
   2.6407550e+02   1.3792110e+00
   2.6455760e+02   4.4050290e+00
   2.6503970e+02   5.6711430e+00
   2.6552190e+02   4.4506840e+00
   2.6600400e+02   1.9582520e+00
   2.6648610e+02   9.0356400e-01
   2.6696820e+02   1.5911870e+00
   2.6745030e+02   2.9814450e+00
   2.6793240e+02   4.8713380e+00
   2.6841460e+02   7.5968020e+00
   2.6889670e+02   9.1735230e+00
   2.6937880e+02   9.1472170e+00
   2.6986090e+02   8.4008790e+00
   2.7034300e+02   8.5341800e+00
   2.7082510e+02   9.6395870e+00
   2.7130730e+02   1.1322880e+01
   2.7178940e+02   1.3870610e+01
   2.7227150e+02   1.7538640e+01
   2.7275360e+02   1.9215940e+01
   2.7323570e+02   1.8262080e+01
   2.7371780e+02   1.6270940e+01
   2.7420000e+02   1.5940920e+01
   2.7468210e+02   1.7853210e+01
   2.7516420e+02   1.8907590e+01
   2.7564630e+02   1.7738530e+01
   2.7612840e+02   1.4346130e+01
   2.7661050e+02   1.1326110e+01
   2.7709270e+02   8.5527950e+00
   2.7757480e+02   6.4247440e+00
   2.7805690e+02   5.9553830e+00
   2.7853900e+02   7.4672850e+00
   2.7902110e+02   7.9031370e+00
   2.7950320e+02   5.6101070e+00
   2.7998540e+02   1.1107180e+00
   2.8046750e+02   5.5078100e-01
   2.8094960e+02   1.3552860e+00
   2.8143170e+02   3.6215210e+00
   2.8191380e+02   2.6995850e+00
   2.8239590e+02   1.5090330e+00
   2.8287810e+02   6.5128170e+00
   2.8336020e+02   1.2333800e+01
   2.8384230e+02   1.8396240e+01
   2.8432440e+02   2.1552730e+01
   2.8480650e+02   2.1447630e+01
   2.8528860e+02   2.0845580e+01
   2.8577080e+02   2.2521730e+01
   2.8625290e+02   2.6326600e+01
   2.8673500e+02   2.9322940e+01
   2.8721710e+02   3.0274720e+01
   2.8769920e+02   3.0461910e+01
   2.8818130e+02   3.3802730e+01
   2.8866350e+02   4.0447630e+01
   2.8914560e+02   4.7571660e+01
   2.8962770e+02   5.1843690e+01
   2.9010980e+02   5.4087340e+01
   2.9059190e+02   6.0487610e+01
   2.9107400e+02   7.3946960e+01
   2.9155620e+02   8.9236450e+01
   2.9203830e+02   9.3940550e+01
   2.9252040e+02   8.8653810e+01
   2.9300250e+02   8.4787410e+01
   2.9348460e+02   9.1731320e+01
   2.9396670e+02   1.0648360e+02
   2.9444890e+02   1.1797940e+02
   2.9493100e+02   1.2377250e+02
   2.9541310e+02   1.2866520e+02
   2.9589520e+02   1.4012240e+02
   2.9637730e+02   1.5735110e+02
   2.9685940e+02   1.7539560e+02
   2.9734160e+02   1.9115480e+02
   2.9782370e+02   2.0596580e+02
   2.9830580e+02   2.2225440e+02
   2.9878790e+02   2.4015600e+02
   2.9927000e+02   2.6040150e+02
   2.9975210e+02   2.8402710e+02
   3.0023430e+02   3.1063460e+02
   3.0071640e+02   3.3772820e+02
   3.0119850e+02   3.6805810e+02
   3.0168060e+02   3.9721040e+02
   3.0216270e+02   4.1749870e+02
   3.0264480e+02   4.2865370e+02
   3.0312700e+02   4.3415420e+02
   3.0360910e+02   4.3443160e+02
   3.0409120e+02   4.3154630e+02
   3.0457330e+02   4.2986880e+02
   3.0505540e+02   4.3113430e+02
   3.0553750e+02   4.3451730e+02
   3.0601970e+02   4.3863260e+02
   3.0650180e+02   4.4354000e+02
   3.0698390e+02   4.5113370e+02
   3.0746600e+02   4.6225110e+02
   3.0794810e+02   4.7700630e+02
   3.0843020e+02   4.9569120e+02
   3.0891240e+02   5.2146280e+02
   3.0939450e+02   5.4842470e+02
   3.0987660e+02   5.7029730e+02
   3.1035870e+02   5.8852080e+02
   3.1084080e+02   6.0954750e+02
   3.1132290e+02   6.3806040e+02
   3.1180510e+02   6.7119990e+02
   3.1228720e+02   7.0545510e+02
   3.1276930e+02   7.4061340e+02
   3.1325140e+02   7.7609420e+02
   3.1373350e+02   8.0980060e+02
   3.1421560e+02   8.4340520e+02
   3.1469780e+02   8.8216200e+02
   3.1517990e+02   9.2908890e+02
   3.1566200e+02   9.8199030e+02
   3.1614410e+02   1.0374150e+03
   3.1662620e+02   1.0929910e+03
   3.1710830e+02   1.1570010e+03
   3.1759050e+02   1.2330150e+03
   3.1807260e+02   1.3194020e+03
   3.1855470e+02   1.4147030e+03
   3.1903680e+02   1.5219900e+03
   3.1951890e+02   1.6347510e+03
   3.2000100e+02   1.7505230e+03
   3.2048320e+02   1.8710890e+03
   3.2096530e+02   1.9871890e+03
   3.2144740e+02   2.1035310e+03
   3.2192950e+02   2.2114140e+03
   3.2241160e+02   2.3008280e+03
   3.2289370e+02   2.3804170e+03
   3.2337590e+02   2.4313170e+03
   3.2385800e+02   2.4490960e+03
   3.2434010e+02   2.4332170e+03
   3.2482220e+02   2.3845260e+03
   3.2530430e+02   2.2958990e+03
   3.2578640e+02   2.1784330e+03
   3.2626860e+02   2.0406570e+03
   3.2675070e+02   1.8594320e+03
   3.2723280e+02   1.6846850e+03
   3.2771490e+02   1.5197950e+03
   3.2819700e+02   1.3664180e+03
   3.2867910e+02   1.2259530e+03
   3.2916130e+02   1.1007430e+03
   3.2964340e+02   9.8749560e+02
   3.3012550e+02   8.8483610e+02
   3.3060760e+02   7.9383000e+02
   3.3108970e+02   7.1234480e+02
   3.3157180e+02   6.4083620e+02
   3.3205400e+02   5.7882030e+02
   3.3253610e+02   5.2453820e+02
   3.3301820e+02   4.7921340e+02
   3.3350030e+02   4.3957780e+02
   3.3398240e+02   4.0506600e+02
   3.3446450e+02   3.7602060e+02
   3.3494670e+02   3.5023610e+02
   3.3542880e+02   3.2782300e+02
   3.3591090e+02   3.0858480e+02
   3.3639300e+02   2.9291250e+02
   3.3687510e+02   2.8151830e+02
   3.3735720e+02   2.7216220e+02
   3.3783940e+02   2.6440370e+02
   3.3832150e+02   2.5818980e+02
   3.3880360e+02   2.5164340e+02
   3.3928570e+02   2.4371800e+02
   3.3976780e+02   2.3729110e+02
   3.4024990e+02   2.3623070e+02
   3.4073200e+02   2.4150050e+02
   3.4121410e+02   2.4566170e+02
   3.4169630e+02   2.4637000e+02
   3.4217840e+02   2.4471400e+02
   3.4266050e+02   2.4555590e+02
   3.4314260e+02   2.4888750e+02
   3.4362470e+02   2.5465320e+02
   3.4410680e+02   2.6400130e+02
   3.4458900e+02   2.7657790e+02
   3.4507110e+02   2.8700070e+02
   3.4555320e+02   2.9335780e+02
   3.4603530e+02   2.9855620e+02
   3.4651740e+02   3.0835900e+02
   3.4699950e+02   3.2281900e+02
   3.4748170e+02   3.3966430e+02
   3.4796380e+02   3.5767100e+02
   3.4844590e+02   3.7697400e+02
   3.4892800e+02   3.9780620e+02
   3.4941010e+02   4.1987380e+02
   3.4989220e+02   4.4442260e+02
   3.5037440e+02   4.7339870e+02
   3.5085650e+02   5.0600400e+02
   3.5133860e+02   5.3993480e+02
   3.5182070e+02   5.7224950e+02
   3.5230280e+02   6.0543790e+02
   3.5278490e+02   6.4526650e+02
   3.5326710e+02   6.9222410e+02
   3.5374920e+02   7.4026320e+02
   3.5423130e+02   7.8568860e+02
   3.5471340e+02   8.2834010e+02
   3.5519550e+02   8.6898610e+02
   3.5567760e+02   9.1208110e+02
   3.5615980e+02   9.4868240e+02
   3.5664190e+02   9.7233510e+02
   3.5712400e+02   9.8310420e+02
   3.5760610e+02   9.8120750e+02
   3.5808820e+02   9.6232200e+02
   3.5857030e+02   9.3294920e+02
   3.5905250e+02   8.9873170e+02
   3.5953460e+02   8.5849540e+02
   3.6001670e+02   8.1834030e+02
   3.6049880e+02   7.8180750e+02
   3.6098090e+02   7.4805570e+02
   3.6146300e+02   7.1588240e+02
   3.6194520e+02   6.8290140e+02
   3.6242730e+02   6.5291280e+02
   3.6290940e+02   6.2763350e+02
   3.6339150e+02   6.0674480e+02
   3.6387360e+02   5.9099960e+02
   3.6435570e+02   5.8233460e+02
   3.6483790e+02   5.7883720e+02
   3.6532000e+02   5.7816810e+02
   3.6580210e+02   5.8144360e+02
   3.6628420e+02   5.8547030e+02
   3.6676630e+02   5.9075010e+02
   3.6724840e+02   5.9742700e+02
   3.6773060e+02   6.0012350e+02
   3.6821270e+02   5.9821120e+02
   3.6869480e+02   5.9203270e+02
   3.6917690e+02   5.8185860e+02
   3.6965900e+02   5.6367900e+02
   3.7014110e+02   5.4640040e+02
   3.7062330e+02   5.2857700e+02
   3.7110540e+02   5.1164440e+02
   3.7158750e+02   5.0108470e+02
   3.7206960e+02   4.9918540e+02
   3.7255170e+02   5.0108230e+02
   3.7303380e+02   5.0493840e+02
   3.7351600e+02   5.1087340e+02
   3.7399810e+02   5.1844730e+02
   3.7448020e+02   5.2673740e+02
   3.7496230e+02   5.3703370e+02
   3.7544440e+02   5.5186570e+02
   3.7592650e+02   5.7238240e+02
   3.7640870e+02   5.9564900e+02
   3.7689080e+02   6.2063680e+02
   3.7737290e+02   6.4724160e+02
   3.7785500e+02   6.7527290e+02
   3.7833710e+02   7.0427220e+02
   3.7881920e+02   7.3582170e+02
   3.7930140e+02   7.7037560e+02
   3.7978350e+02   8.0814950e+02
   3.8026560e+02   8.5065540e+02
   3.8074770e+02   8.9793630e+02
   3.8122980e+02   9.5000790e+02
   3.8171190e+02   1.0082550e+03
   3.8219410e+02   1.0721850e+03
   3.8267620e+02   1.1411980e+03
   3.8315830e+02   1.2120500e+03
   3.8364040e+02   1.2869420e+03
   3.8412250e+02   1.3724770e+03
   3.8460460e+02   1.4699520e+03
   3.8508680e+02   1.5753660e+03
   3.8556890e+02   1.6868030e+03
   3.8605100e+02   1.8033240e+03
   3.8653310e+02   1.9223230e+03
   3.8701520e+02   2.0491690e+03
   3.8749730e+02   2.1760140e+03
   3.8797950e+02   2.2970230e+03
   3.8846160e+02   2.4119930e+03
   3.8894370e+02   2.5083600e+03
   3.8942580e+02   2.5863850e+03
   3.8990790e+02   2.6376100e+03
   3.9039000e+02   2.6484600e+03
   3.9087220e+02   2.6133240e+03
   3.9135430e+02   2.5389340e+03
   3.9183640e+02   2.4193420e+03
   3.9231850e+02   2.2619710e+03
   3.9280060e+02   2.0906800e+03
   3.9328270e+02   1.9020870e+03
   3.9376490e+02   1.7132270e+03
   3.9424700e+02   1.5372640e+03
   3.9472910e+02   1.3765410e+03
   3.9521120e+02   1.2275190e+03
   3.9569330e+02   1.0883010e+03
   3.9617540e+02   9.6011870e+02
   3.9665760e+02   8.4483900e+02
   3.9713970e+02   7.4386110e+02
   3.9762180e+02   6.5495670e+02
   3.9810390e+02   5.7875680e+02
   3.9858600e+02   5.1573750e+02
   3.9906810e+02   4.5940720e+02
   3.9955030e+02   4.1111000e+02
   4.0003240e+02   3.6804650e+02
   4.0051450e+02   3.2846690e+02
   4.0099660e+02   2.9057590e+02
   4.0147870e+02   2.5836990e+02
   4.0196080e+02   2.3366130e+02
   4.0244300e+02   2.1500350e+02
   4.0292510e+02   1.9693200e+02
   4.0340720e+02   1.7980540e+02
   4.0388930e+02   1.6265310e+02
   4.0437140e+02   1.4473620e+02
   4.0485350e+02   1.2498070e+02
   4.0533570e+02   1.0863550e+02
   4.0581780e+02   9.6543580e+01
   4.0629990e+02   8.6946040e+01
   4.0678200e+02   7.7331670e+01
   4.0726410e+02   6.7438230e+01
   4.0774620e+02   5.9078000e+01
   4.0822840e+02   5.3209840e+01
   4.0871050e+02   4.9369630e+01
   4.0919260e+02   4.4838500e+01
   4.0967470e+02   3.9604980e+01
   4.1015680e+02   3.3791630e+01
   4.1063890e+02   2.6345950e+01
   4.1112110e+02   1.7992070e+01
   4.1160320e+02   1.2824830e+01
   4.1208530e+02   1.2242190e+01
   4.1256740e+02   1.3688350e+01
   4.1304950e+02   1.3630130e+01
   4.1353160e+02   1.2234860e+01
   4.1401380e+02   1.0323610e+01
   4.1449590e+02   7.6706540e+00
   4.1497800e+02   4.9826660e+00
   4.1546010e+02   3.6964110e+00
   4.1594220e+02   3.9720460e+00
   4.1642430e+02   4.0515140e+00
   4.1690650e+02   1.6077880e+00
   4.1738860e+02   1.7768550e+00
   4.1787070e+02   3.6574710e+00
   4.1835280e+02   1.1523440e+00
   4.1883490e+02   1.1383060e+00
   4.1931700e+02   7.9589800e-01
   4.1979920e+02   5.9165040e+00
   4.2028130e+02   9.2485350e+00
   4.2076340e+02   6.3774410e+00
   4.2124550e+02   2.5153810e+00
   4.2172760e+02   1.4545900e+00
   4.2220970e+02   5.2967530e+00
   4.2269190e+02   8.3106690e+00
   4.2317400e+02   8.3933110e+00
   4.2365610e+02   6.9177250e+00
   4.2413820e+02   5.9641110e+00
   4.2462030e+02   6.7548830e+00
   4.2510240e+02   7.1757810e+00
   4.2558460e+02   6.6839600e+00
   4.2606670e+02   5.1628420e+00
   4.2654880e+02   3.6391600e+00
   4.2703090e+02   1.7330320e+00
   4.2751300e+02   1.2182600e-01
   4.2799510e+02   7.0214800e-01
   4.2847730e+02   5.5334500e-01
   4.2895940e+02   2.8441999e-02
   4.2944150e+02   9.0112300e-01
   4.2992360e+02   2.1334230e+00
   4.3040570e+02   3.6755370e+00
   4.3088780e+02   5.9311520e+00
   4.3137000e+02   7.1707760e+00
   4.3185210e+02   5.8536380e+00
   4.3233420e+02   1.9613040e+00
   4.3281630e+02   1.2595210e+00
   4.3329840e+02   4.4604490e+00
   4.3378050e+02   8.3360600e+00
   4.3426270e+02   8.7764890e+00
   4.3474480e+02   6.1604000e+00
   4.3522690e+02   4.3543700e+00
   4.3570900e+02   4.5013430e+00
   4.3619110e+02   5.8515630e+00
   4.3667320e+02   7.2108150e+00
   4.3715540e+02   8.5411380e+00
   4.3763750e+02   9.4425050e+00
   4.3811960e+02   9.5572510e+00
   4.3860170e+02   9.1280520e+00
   4.3908380e+02   8.5245360e+00
   4.3956590e+02   7.7935790e+00
   4.4004800e+02   6.8879390e+00
   4.4053020e+02   5.5191650e+00
   4.4101230e+02   3.9810790e+00
   4.4149440e+02   2.7661130e+00
   4.4197650e+02   1.8266600e+00
   4.4245860e+02   1.4453130e+00
   4.4294070e+02   2.2917480e+00
   4.4342290e+02   4.1436770e+00
   4.4390500e+02   5.2648930e+00
   4.4438710e+02   4.6822510e+00
   4.4486920e+02   3.2856450e+00
   4.4535130e+02   1.6174320e+00
   4.4583340e+02   3.5022000e-01
   4.4631560e+02   2.3983150e+00
   4.4679770e+02   5.2666020e+00
   4.4727980e+02   8.0560300e+00
   4.4776190e+02   9.1223140e+00
   4.4824400e+02   5.5285640e+00
   4.4872610e+02   3.2896730e+00
   4.4920830e+02   4.4718020e+00
   4.4969040e+02   9.3625490e+00
   4.5017250e+02   1.1813960e+01
   4.5065460e+02   1.0489750e+01
   4.5113670e+02   8.3593750e+00
   4.5161880e+02   7.5000000e+00
   4.5210100e+02   7.9467770e+00
   4.5258310e+02   9.7354740e+00
   4.5306520e+02   1.3262210e+01
   4.5354730e+02   1.7802610e+01
   4.5402940e+02   2.1999630e+01
   4.5451150e+02   2.5907230e+01
   4.5499370e+02   2.9179810e+01
   4.5547580e+02   3.1553830e+01
   4.5595790e+02   3.3144780e+01
   4.5644000e+02   3.4849120e+01
   4.5692210e+02   3.6754270e+01
   4.5740420e+02   3.8068120e+01
   4.5788640e+02   3.6981450e+01
   4.5836850e+02   3.4592530e+01
   4.5885060e+02   3.4278080e+01
   4.5933270e+02   3.7463130e+01
   4.5981480e+02   4.2059940e+01
   4.6029690e+02   4.5461300e+01
   4.6077910e+02   4.8169430e+01
   4.6126120e+02   5.1724000e+01
   4.6174330e+02   5.9091190e+01
   4.6222540e+02   6.6390380e+01
   4.6270750e+02   6.9906130e+01
   4.6318960e+02   6.9164550e+01
   4.6367180e+02   6.7136600e+01
   4.6415390e+02   6.4230220e+01
   4.6463600e+02   6.1329220e+01
   4.6511810e+02   5.9349730e+01
   4.6560020e+02   5.9256230e+01
   4.6608230e+02   5.9340580e+01
   4.6656450e+02   6.0074710e+01
   4.6704660e+02   6.0872560e+01
   4.6752870e+02   5.9506100e+01
   4.6801080e+02   5.2772950e+01
   4.6849290e+02   4.6503170e+01
   4.6897500e+02   4.3235960e+01
   4.6945720e+02   4.4464970e+01
   4.6993930e+02   4.2919560e+01
   4.7042140e+02   3.6677250e+01
   4.7090350e+02   2.9390380e+01
   4.7138560e+02   2.5194820e+01
   4.7186770e+02   2.5081420e+01
   4.7234990e+02   2.4874880e+01
   4.7283200e+02   2.3742680e+01
   4.7331410e+02   2.2066410e+01
   4.7379620e+02   2.1186400e+01
   4.7427830e+02   2.1166500e+01
   4.7476040e+02   2.1550540e+01
   4.7524260e+02   2.2559690e+01
   4.7572470e+02   2.3903930e+01
   4.7620680e+02   2.3788570e+01
   4.7668890e+02   2.2014770e+01
   4.7717100e+02   1.9486210e+01
   4.7765310e+02   1.6285400e+01
   4.7813530e+02   1.2932010e+01
   4.7861740e+02   1.1304080e+01
   4.7909950e+02   1.2366090e+01
   4.7958160e+02   1.4737790e+01
   4.8006370e+02   1.8022580e+01
   4.8054580e+02   2.1537720e+01
   4.8102800e+02   2.2909060e+01
   4.8151010e+02   1.7596680e+01
   4.8199220e+02   1.1638790e+01
   4.8247430e+02   1.0636350e+01
   4.8295640e+02   1.6294310e+01
   4.8343850e+02   2.0803100e+01
   4.8392070e+02   1.9771120e+01
   4.8440280e+02   1.6522340e+01
   4.8488490e+02   1.4557370e+01
   4.8536700e+02   1.5627080e+01
   4.8584910e+02   1.6814210e+01
   4.8633120e+02   1.7794800e+01
   4.8681340e+02   1.8513670e+01
   4.8729550e+02   1.8726320e+01
   4.8777760e+02   1.7671510e+01
   4.8825970e+02   1.6976200e+01
   4.8874180e+02   1.7618160e+01
   4.8922390e+02   2.0369140e+01
   4.8970610e+02   2.0957280e+01
   4.9018820e+02   1.8476200e+01
   4.9067030e+02   1.5379760e+01
   4.9115240e+02   1.4565550e+01
   4.9163450e+02   1.6329590e+01
   4.9211660e+02   1.7935420e+01
   4.9259880e+02   1.8909300e+01
   4.9308090e+02   1.9636230e+01
   4.9356300e+02   2.1613530e+01
   4.9404510e+02   2.4702150e+01
   4.9452720e+02   2.6467410e+01
   4.9500930e+02   2.4205570e+01
   4.9549150e+02   1.9812990e+01
   4.9597360e+02   1.7953000e+01
   4.9645570e+02   1.8980960e+01
   4.9693780e+02   2.0380370e+01
   4.9741990e+02   1.9293210e+01
   4.9790200e+02   1.7291990e+01
   4.9838420e+02   1.6832890e+01
   4.9886630e+02   1.9320920e+01
   4.9934840e+02   2.2627930e+01
   4.9983050e+02   2.6333860e+01
   5.0031260e+02   2.9851560e+01
   5.0079470e+02   3.1664670e+01
   5.0127690e+02   2.8678710e+01
   5.0175900e+02   2.6067870e+01
   5.0224110e+02   2.6712520e+01
   5.0272320e+02   3.1386840e+01
   5.0320530e+02   3.5674320e+01
   5.0368740e+02   3.8310550e+01
   5.0416960e+02   4.0753780e+01
   5.0465170e+02   4.4037350e+01
   5.0513380e+02   4.8876340e+01
   5.0561590e+02   5.3059810e+01
   5.0609800e+02   5.6192020e+01
   5.0658010e+02   5.8524050e+01
   5.0706230e+02   6.0508540e+01
   5.0754440e+02   6.1744510e+01
   5.0802650e+02   6.4344730e+01
   5.0850860e+02   7.0025630e+01
   5.0899070e+02   7.8091920e+01
   5.0947280e+02   8.2644650e+01
   5.0995500e+02   8.3397220e+01
   5.1043710e+02   8.3128170e+01
   5.1091920e+02   8.3522220e+01
   5.1140130e+02   8.4777590e+01
   5.1188340e+02   8.7879880e+01
   5.1236550e+02   9.3403930e+01
   5.1284770e+02   9.9490230e+01
   5.1332980e+02   1.0440100e+02
   5.1381190e+02   1.0822730e+02
   5.1429400e+02   1.1116220e+02
   5.1477610e+02   1.1431350e+02
   5.1525820e+02   1.1584230e+02
   5.1574040e+02   1.1300660e+02
   5.1622250e+02   1.0653470e+02
   5.1670460e+02   1.0170370e+02
   5.1718670e+02   1.0263500e+02
   5.1766880e+02   1.0473230e+02
   5.1815090e+02   1.0493930e+02
   5.1863310e+02   1.0197790e+02
   5.1911520e+02   9.9200320e+01
   5.1959730e+02   9.5847050e+01
   5.2007940e+02   9.3443850e+01
   5.2056150e+02   9.3942020e+01
   5.2104360e+02   9.9536500e+01
   5.2152580e+02   1.0442050e+02
   5.2200790e+02   1.0696670e+02
   5.2249000e+02   1.0804260e+02
   5.2297210e+02   1.1238850e+02
   5.2345420e+02   1.2109410e+02
   5.2393630e+02   1.2958970e+02
   5.2441850e+02   1.3455440e+02
   5.2490060e+02   1.3610910e+02
   5.2538270e+02   1.4185530e+02
   5.2586480e+02   1.5271670e+02
   5.2634690e+02   1.6340230e+02
   5.2682900e+02   1.6695400e+02
   5.2731120e+02   1.6518460e+02
   5.2779330e+02   1.6540150e+02
   5.2827540e+02   1.7053880e+02
   5.2875750e+02   1.7622670e+02
   5.2923960e+02   1.7741660e+02
   5.2972170e+02   1.7509250e+02
   5.3020390e+02   1.7179140e+02
   5.3068600e+02   1.6802730e+02
   5.3116810e+02   1.6334850e+02
   5.3165020e+02   1.5756190e+02
   5.3213230e+02   1.5062130e+02
   5.3261440e+02   1.4262450e+02
   5.3309660e+02   1.3178650e+02
   5.3357870e+02   1.2100820e+02
   5.3406080e+02   1.1231080e+02
   5.3454290e+02   1.0802600e+02
   5.3502500e+02   1.0253920e+02
   5.3550710e+02   9.4439820e+01
   5.3598930e+02   8.5263180e+01
   5.3647140e+02   7.7244020e+01
   5.3695350e+02   6.9989380e+01
   5.3743560e+02   6.5109500e+01
   5.3791770e+02   6.3536500e+01
   5.3839980e+02   6.4603880e+01
   5.3888200e+02   6.4224370e+01
   5.3936410e+02   6.1988040e+01
   5.3984620e+02   6.0119750e+01
   5.4032830e+02   6.0626590e+01
   5.4081040e+02   6.2998780e+01
   5.4129250e+02   6.2512940e+01
   5.4177470e+02   5.8471310e+01
   5.4225680e+02   5.5035400e+01
   5.4273890e+02   5.8290890e+01
   5.4322100e+02   6.5656740e+01
   5.4370310e+02   7.0724980e+01
   5.4418520e+02   7.0734250e+01
   5.4466740e+02   6.9341430e+01
   5.4514950e+02   6.9369870e+01
   5.4563160e+02   7.0486940e+01
   5.4611370e+02   7.1931760e+01
   5.4659580e+02   7.4328740e+01
   5.4707790e+02   7.6295290e+01
   5.4756010e+02   7.5646730e+01
   5.4804220e+02   7.2173460e+01
   5.4852430e+02   7.2948000e+01
   5.4900640e+02   8.4167480e+01
   5.4948850e+02   9.6622920e+01
   5.4997060e+02   1.0416590e+02
   5.5045280e+02   1.0197830e+02
   5.5093490e+02   1.0434180e+02
   5.5141700e+02   1.1291490e+02
   5.5189910e+02   1.2487390e+02
   5.5238120e+02   1.3631510e+02
   5.5286330e+02   1.4759520e+02
   5.5334550e+02   1.5687520e+02
   5.5382760e+02   1.6247010e+02
   5.5430970e+02   1.6648220e+02
   5.5479180e+02   1.7658790e+02
   5.5527390e+02   1.9259010e+02
   5.5575600e+02   2.0919030e+02
   5.5623820e+02   2.2443210e+02
   5.5672030e+02   2.3785060e+02
   5.5720240e+02   2.4803980e+02
   5.5768450e+02   2.5528170e+02
   5.5816660e+02   2.6095430e+02
   5.5864870e+02   2.6907010e+02
   5.5913090e+02   2.7521730e+02
   5.5961300e+02   2.7316530e+02
   5.6009510e+02   2.5895000e+02
   5.6057720e+02   2.4121040e+02
   5.6105930e+02   2.2207200e+02
   5.6154140e+02   2.0241380e+02
   5.6202360e+02   1.8405830e+02
   5.6250570e+02   1.6843020e+02
   5.6298780e+02   1.5291860e+02
   5.6346990e+02   1.3586120e+02
   5.6395200e+02   1.1769580e+02
   5.6443410e+02   1.0233700e+02
   5.6491630e+02   9.0617430e+01
   5.6539840e+02   8.0497190e+01
   5.6588050e+02   7.0675540e+01
   5.6636260e+02   6.0708370e+01
   5.6684470e+02   5.3861330e+01
   5.6732680e+02   5.0679930e+01
   5.6780900e+02   4.8882810e+01
   5.6829110e+02   4.6038820e+01
   5.6877320e+02   4.2256230e+01
   5.6925530e+02   3.8458740e+01
   5.6973740e+02   3.4588130e+01
   5.7021950e+02   3.1287600e+01
   5.7070170e+02   2.9774050e+01
   5.7118380e+02   2.9605470e+01
   5.7166590e+02   2.9368040e+01
   5.7214800e+02   2.8749630e+01
   5.7263010e+02   2.7505490e+01
   5.7311220e+02   2.4913090e+01
   5.7359440e+02   2.1191040e+01
   5.7407650e+02   1.8217040e+01
   5.7455860e+02   1.7862790e+01
   5.7504070e+02   1.7740480e+01
   5.7552280e+02   1.6299440e+01
   5.7600490e+02   1.2749020e+01
   5.7648710e+02   9.5614010e+00
   5.7696920e+02   5.5843510e+00
   5.7745130e+02   2.8850100e+00
   5.7793340e+02   4.0961910e+00
   5.7841550e+02   1.2574580e+01
   5.7889760e+02   1.6649050e+01
   5.7937980e+02   1.3669310e+01
   5.7986190e+02   6.5505370e+00
   5.8034400e+02   1.8602290e+00
   5.8082610e+02   3.5461400e-01
   5.8130820e+02   5.9851100e-01
   5.8179030e+02   1.5992430e+00
   5.8227250e+02   5.4525150e+00
   5.8275460e+02   9.1373290e+00
   5.8323670e+02   1.2578120e+01
   5.8371880e+02   1.4599610e+01
   5.8420090e+02   1.2840940e+01
   5.8468300e+02   9.7152100e+00
   5.8516520e+02   9.1002200e+00
   5.8564730e+02   1.2103030e+01
   5.8612940e+02   1.3345700e+01
   5.8661150e+02   6.7792970e+00
   5.8709360e+02   1.9222410e+00
   5.8757570e+02   6.7244870e+00
   5.8805780e+02   2.7911380e+00
   5.8853990e+02   1.2191160e+00
   5.8902200e+02   4.4498290e+00
   5.8950420e+02   6.6186520e+00
   5.8998630e+02   7.0390630e+00
   5.9046840e+02   4.1666260e+00
   5.9095050e+02   2.0159910e+00
   5.9143260e+02   1.7911380e+00
   5.9191470e+02   3.2628170e+00
   5.9239690e+02   4.6644290e+00
   5.9287900e+02   6.2419430e+00
   5.9336110e+02   6.7543950e+00
   5.9384320e+02   4.6433110e+00
   5.9432530e+02   5.5249000e-01
   5.9480740e+02   1.7633060e+00
   5.9528960e+02   1.9824220e+00
   5.9577170e+02   2.0301510e+00
   5.9625380e+02   4.9776610e+00
   5.9673590e+02   8.8383790e+00
   5.9721800e+02   9.6903080e+00
   5.9770010e+02   5.2535400e+00
   5.9818230e+02   4.1296400e-01
   5.9866440e+02   1.9222410e+00
   5.9914650e+02   2.3739010e+00
   5.9962860e+02   2.0062260e+00
   6.0011070e+02   5.5261200e-01
   6.0059280e+02   1.0714110e+00
   6.0107500e+02   2.9683840e+00
   6.0155710e+02   4.9772950e+00
   6.0203920e+02   5.9450680e+00
   6.0252130e+02   5.6884770e+00
   6.0300340e+02   4.6221920e+00
   6.0348550e+02   2.5437010e+00
   6.0396770e+02   7.5585900e-01
   6.0444980e+02   2.2250980e+00
   6.0493190e+02   1.6032710e+00
   6.0541400e+02   2.1606000e-02
   6.0589610e+02   2.5798340e+00
   6.0637820e+02   5.6628420e+00
   6.0686040e+02   5.7908940e+00
   6.0734250e+02   1.9311520e+00
   6.0782460e+02   2.4471440e+00
   6.0830670e+02   2.3703610e+00
   6.0878880e+02   3.0041500e-01
   6.0927090e+02   1.5407710e+00
   6.0975310e+02   1.3085940e+00
   6.1023520e+02   4.6226810e+00
   6.1071730e+02   6.2746580e+00
   6.1119940e+02   6.5585940e+00
   6.1168150e+02   6.3165280e+00
   6.1216360e+02   6.3608400e+00
   6.1264580e+02   5.4676510e+00
   6.1312790e+02   1.8190920e+00
   6.1361000e+02   4.7318120e+00
   6.1409210e+02   6.2983400e+00
   6.1457420e+02   6.8457000e-01
   6.1505630e+02   7.9943850e+00
   6.1553850e+02   1.0920040e+01
   6.1602060e+02   8.6518550e+00
   6.1650270e+02   6.9156490e+00
   6.1698480e+02   5.7154540e+00
   6.1746690e+02   5.0490720e+00
   6.1794900e+02   4.7785640e+00
   6.1843120e+02   4.9788820e+00
   6.1891330e+02   6.1943360e+00
   6.1939540e+02   8.8710940e+00
   6.1987750e+02   1.1775760e+01
   6.2035960e+02   1.3297730e+01
   6.2084170e+02   1.3936770e+01
   6.2132390e+02   1.4738890e+01
   6.2180600e+02   1.6507320e+01
   6.2228810e+02   1.8289790e+01
   6.2277020e+02   1.9364620e+01
   6.2325230e+02   1.9931640e+01
   6.2373440e+02   2.0855100e+01
   6.2421660e+02   2.3494020e+01
   6.2469870e+02   2.5408450e+01
   6.2518080e+02   2.4924560e+01
   6.2566290e+02   2.1700200e+01
   6.2614500e+02   2.1148190e+01
   6.2662710e+02   2.4269780e+01
   6.2710930e+02   2.8425050e+01
   6.2759140e+02   3.1842410e+01
   6.2807350e+02   3.4452150e+01
   6.2855560e+02   3.7533940e+01
   6.2903770e+02   4.1407960e+01
   6.2951980e+02   4.4650630e+01
   6.3000200e+02   4.4390140e+01
   6.3048410e+02   4.2039060e+01
   6.3096620e+02   4.2406740e+01
   6.3144830e+02   4.7913700e+01
   6.3193040e+02   5.3993900e+01
   6.3241250e+02   5.5934080e+01
   6.3289470e+02   5.5242310e+01
   6.3337680e+02   5.5017820e+01
   6.3385890e+02   5.6608030e+01
   6.3434100e+02   5.8842290e+01
   6.3482310e+02   6.0917480e+01
   6.3530520e+02   6.3097410e+01
   6.3578740e+02   6.6973390e+01
   6.3626950e+02   7.4809940e+01
   6.3675160e+02   8.1932250e+01
   6.3723370e+02   8.5857670e+01
   6.3771580e+02   8.6293580e+01
   6.3819790e+02   9.0541500e+01
   6.3868010e+02   9.9239260e+01
   6.3916220e+02   1.0975220e+02
   6.3964430e+02   1.2127750e+02
   6.4012640e+02   1.3322780e+02
   6.4060850e+02   1.4138820e+02
   6.4109060e+02   1.4479030e+02
   6.4157280e+02   1.4777650e+02
   6.4205490e+02   1.5392800e+02
   6.4253700e+02   1.6314090e+02
   6.4301910e+02   1.7591690e+02
   6.4350120e+02   1.9441820e+02
   6.4398330e+02   2.1254520e+02
   6.4446550e+02   2.2540170e+02
   6.4494760e+02   2.3539730e+02
   6.4542970e+02   2.4730710e+02
   6.4591180e+02   2.6336550e+02
   6.4639390e+02   2.8147890e+02
   6.4687600e+02   2.9998990e+02
   6.4735820e+02   3.1983970e+02
   6.4784030e+02   3.4413700e+02
   6.4832240e+02   3.7371460e+02
   6.4880450e+02   4.0697050e+02
   6.4928660e+02   4.4474830e+02
   6.4976870e+02   4.8661890e+02
   6.5025090e+02   5.2467660e+02
   6.5073300e+02   5.5899660e+02
   6.5121510e+02   5.9234060e+02
   6.5169720e+02   6.2404760e+02
   6.5217930e+02   6.5705930e+02
   6.5266140e+02   6.9776270e+02
   6.5314360e+02   7.4697050e+02
   6.5362570e+02   7.9909520e+02
   6.5410780e+02   8.4878120e+02
   6.5458990e+02   8.9834840e+02
   6.5507200e+02   9.5105910e+02
   6.5555410e+02   1.0071240e+03
   6.5603630e+02   1.0679290e+03
   6.5651840e+02   1.1319570e+03
   6.5700050e+02   1.2005070e+03
   6.5748260e+02   1.2761870e+03
   6.5796470e+02   1.3597130e+03
   6.5844680e+02   1.4478090e+03
   6.5892900e+02   1.5393200e+03
   6.5941110e+02   1.6355560e+03
   6.5989320e+02   1.7398390e+03
   6.6037530e+02   1.8523810e+03
   6.6085740e+02   1.9721130e+03
   6.6133950e+02   2.1012770e+03
   6.6182170e+02   2.2357590e+03
   6.6230380e+02   2.3693780e+03
   6.6278590e+02   2.5007160e+03
   6.6326800e+02   2.6202430e+03
   6.6375010e+02   2.7259760e+03
   6.6423220e+02   2.8139070e+03
   6.6471440e+02   2.8844860e+03
   6.6519650e+02   2.9374610e+03
   6.6567860e+02   2.9630780e+03
   6.6616070e+02   2.9613590e+03
   6.6664280e+02   2.9277300e+03
   6.6712490e+02   2.8575590e+03
   6.6760710e+02   2.7420880e+03
   6.6808920e+02   2.6090140e+03
   6.6857130e+02   2.4507380e+03
   6.6905340e+02   2.2817680e+03
   6.6953550e+02   2.1155090e+03
   6.7001760e+02   1.9511210e+03
   6.7049980e+02   1.7899100e+03
   6.7098190e+02   1.6302820e+03
   6.7146400e+02   1.4770630e+03
   6.7194610e+02   1.3357310e+03
   6.7242820e+02   1.2087970e+03
   6.7291030e+02   1.0942330e+03
   6.7339250e+02   9.9278030e+02
   6.7387460e+02   9.0162940e+02
   6.7435670e+02   8.2094750e+02
   6.7483880e+02   7.4895460e+02
   6.7532090e+02   6.8238500e+02
   6.7580300e+02   6.1770190e+02
   6.7628520e+02   5.6133360e+02
   6.7676730e+02   5.1913500e+02
   6.7724940e+02   4.8864730e+02
   6.7773150e+02   4.5498290e+02
   6.7821360e+02   4.1243770e+02
   6.7869570e+02   3.7381950e+02
   6.7917790e+02   3.4467140e+02
   6.7966000e+02   3.2429570e+02
   6.8014210e+02   3.0326730e+02
   6.8062420e+02   2.8102090e+02
   6.8110630e+02   2.6005790e+02
   6.8158840e+02   2.4181130e+02
   6.8207060e+02   2.2603390e+02
   6.8255270e+02   2.1263820e+02
   6.8303480e+02   2.0154380e+02
   6.8351690e+02   1.9114620e+02
   6.8399900e+02   1.7988750e+02
   6.8448110e+02   1.6857930e+02
   6.8496330e+02   1.5818350e+02
   6.8544540e+02   1.4936010e+02
   6.8592750e+02   1.4066420e+02
   6.8640960e+02   1.2931540e+02
   6.8689170e+02   1.1848410e+02
   6.8737380e+02   1.1186830e+02
   6.8785600e+02   1.1364260e+02
   6.8833810e+02   1.1331790e+02
   6.8882020e+02   1.1021900e+02
   6.8930230e+02   1.0485720e+02
   6.8978440e+02   9.7015140e+01
   6.9026650e+02   8.6221310e+01
   6.9074870e+02   7.8504520e+01
   6.9123080e+02   7.5967770e+01
   6.9171290e+02   7.6447630e+01
   6.9219500e+02   7.7254760e+01
   6.9267710e+02   7.8255980e+01
   6.9315920e+02   7.7866210e+01
   6.9364140e+02   7.3452030e+01
   6.9412350e+02   6.8805300e+01
   6.9460560e+02   6.7795290e+01
   6.9508770e+02   6.9463380e+01
   6.9556980e+02   6.9650510e+01
   6.9605190e+02   6.5919800e+01
   6.9653410e+02   6.1565800e+01
   6.9701620e+02   5.7344360e+01
   6.9749830e+02   5.3336180e+01
   6.9798040e+02   5.1459470e+01
   6.9846250e+02   5.2524900e+01
   6.9894460e+02   5.4223510e+01
   6.9942680e+02   5.5343260e+01
   6.9990890e+02   5.5973020e+01
   7.0039100e+02   5.7312620e+01
   7.0087310e+02   5.9437380e+01
   7.0135520e+02   6.1536380e+01
   7.0183730e+02   6.2693970e+01
   7.0231950e+02   6.3453740e+01
   7.0280160e+02   6.4452150e+01
   7.0328370e+02   6.5941650e+01
   7.0376580e+02   6.7623290e+01
   7.0424790e+02   7.0797490e+01
   7.0473000e+02   7.3248290e+01
   7.0521220e+02   7.2668460e+01
   7.0569430e+02   6.5301270e+01
   7.0617640e+02   6.0567750e+01
   7.0665850e+02   6.1598510e+01
   7.0714060e+02   6.3804930e+01
   7.0762270e+02   6.0920290e+01
   7.0810490e+02   5.0726930e+01
   7.0858700e+02   4.5110350e+01
   7.0906910e+02   4.7160890e+01
   7.0955120e+02   5.2137330e+01
   7.1003330e+02   5.1762210e+01
   7.1051540e+02   4.6755860e+01
   7.1099760e+02   4.0740970e+01
   7.1147970e+02   3.3651860e+01
   7.1196180e+02   2.7909670e+01
   7.1244390e+02   2.7464600e+01
   7.1292600e+02   3.0373780e+01
   7.1340810e+02   3.1982910e+01
   7.1389030e+02   2.9665770e+01
   7.1437240e+02   2.6541750e+01
   7.1485450e+02   2.3686040e+01
   7.1533660e+02   2.1017820e+01
   7.1581870e+02   1.7820560e+01
   7.1630080e+02   1.2603760e+01
   7.1678300e+02   9.5412600e+00
   7.1726510e+02   1.0657710e+01
   7.1774720e+02   1.5386230e+01
   7.1822930e+02   1.9536380e+01
   7.1871140e+02   2.3226320e+01
   7.1919350e+02   2.4415770e+01
   7.1967570e+02   1.9563720e+01
   7.2015780e+02   1.2093750e+01
   7.2063990e+02   8.8654790e+00
   7.2112200e+02   9.8520510e+00
   7.2160410e+02   1.1195310e+01
   7.2208620e+02   9.7214360e+00
   7.2256840e+02   8.0266110e+00
   7.2305050e+02   8.3535160e+00
   7.2353260e+02   1.1512450e+01
   7.2401470e+02   1.3647710e+01
   7.2449680e+02   1.4208010e+01
   7.2497890e+02   1.3481690e+01
   7.2546110e+02   1.1611570e+01
   7.2594320e+02   8.5373540e+00
   7.2642530e+02   3.8635250e+00
   7.2690740e+02   3.3659670e+00
   7.2738950e+02   9.3837890e+00
   7.2787160e+02   8.8681640e+00
   7.2835380e+02   3.3706050e+00
   7.2883590e+02   6.0864300e-01
   7.2931800e+02   1.8911130e+00
   7.2980010e+02   2.3215330e+00
   7.3028220e+02   3.7690430e+00
   7.3076430e+02   5.4404300e+00
   7.3124650e+02   6.1403810e+00
   7.3172860e+02   4.7277830e+00
   7.3221070e+02   3.5454100e+00
   7.3269280e+02   3.8305660e+00
   7.3317490e+02   4.4658200e+00
   7.3365700e+02   3.4594730e+00
   7.3413920e+02   1.3132320e+00
   7.3462130e+02   2.7321780e+00
   7.3510340e+02   1.0402830e+00
   7.3558550e+02   7.1093750e+00
   7.3606760e+02   9.8857420e+00
   7.3654970e+02   9.5708010e+00
   7.3703190e+02   9.2902830e+00
   7.3751400e+02   1.0580810e+01
   7.3799610e+02   1.1656980e+01
   7.3847820e+02   9.2768550e+00
   7.3896030e+02   4.7753910e+00
   7.3944240e+02   1.5424800e+00
   7.3992460e+02   2.3603520e+00
   7.4040670e+02   3.6110840e+00
   7.4088880e+02   4.1943360e+00
   7.4137090e+02   3.9802250e+00
   7.4185300e+02   2.5117190e+00
   7.4233510e+02   1.2331540e+00
   7.4281730e+02   5.0385740e+00
   7.4329940e+02   9.1071780e+00
   7.4378150e+02   1.2462400e+01
   7.4426360e+02   1.0035400e+01
   7.4474570e+02   1.9821780e+00
   7.4522780e+02   4.8146970e+00
   7.4571000e+02   5.3972170e+00
   7.4619210e+02   2.8684080e+00
   7.4667420e+02   3.1660160e+00
   7.4715630e+02   5.9904790e+00
   7.4763840e+02   8.9145510e+00
   7.4812050e+02   1.2400880e+01
   7.4860270e+02   1.4101070e+01
   7.4908480e+02   1.0874760e+01
   7.4956690e+02   2.1633300e+00
   7.5004900e+02   3.2148440e+00
   7.5053110e+02   3.0129390e+00
   7.5101320e+02   4.8852500e-01
   7.5149540e+02   3.9584960e+00
   7.5197750e+02   1.0781010e+01
   7.5245960e+02   1.2455320e+01
   7.5294170e+02   8.0292970e+00
   7.5342380e+02   3.3408200e+00
   7.5390590e+02   4.2780760e+00
   7.5438810e+02   8.3640140e+00
   7.5487020e+02   8.5283200e+00
   7.5535230e+02   4.1696780e+00
   7.5583440e+02   4.6923800e-01
   7.5631650e+02   2.0449220e+00
   7.5679860e+02   5.5449220e+00
   7.5728080e+02   8.3115230e+00
   7.5776290e+02   1.0423100e+01
   7.5824500e+02   1.0634280e+01
   7.5872710e+02   5.9992680e+00
   7.5920920e+02   1.2653810e+00
   7.5969130e+02   1.7260700e-01
   7.6017350e+02   2.5676270e+00
   7.6065560e+02   4.7575680e+00
   7.6113770e+02   5.9289550e+00
   7.6161980e+02   7.6130370e+00
   7.6210190e+02   1.3061040e+01
   7.6258400e+02   2.0456540e+01
   7.6306620e+02   2.3219240e+01
   7.6354830e+02   1.9476560e+01
   7.6403040e+02   1.5162110e+01
   7.6451250e+02   1.5187990e+01
   7.6499460e+02   1.7426270e+01
   7.6547670e+02   1.9519290e+01
   7.6595890e+02   2.1651370e+01
   7.6644100e+02   2.2759770e+01
   7.6692310e+02   2.1283690e+01
   7.6740520e+02   1.9022460e+01
   7.6788730e+02   1.7965820e+01
   7.6836940e+02   1.8290040e+01
   7.6885160e+02   1.9302980e+01
   7.6933370e+02   2.1197020e+01
   7.6981580e+02   2.3214840e+01
   7.7029790e+02   2.5203120e+01
   7.7078000e+02   2.6510990e+01
   7.7126210e+02   2.3999270e+01
   7.7174430e+02   1.4862300e+01
   7.7222640e+02   6.6157230e+00
   7.7270850e+02   6.6801760e+00
   7.7319060e+02   1.1449460e+01
   7.7367270e+02   1.5579830e+01
   7.7415480e+02   1.7222410e+01
   7.7463700e+02   1.8547850e+01
   7.7511910e+02   1.9724370e+01
   7.7560120e+02   2.0976320e+01
   7.7608330e+02   2.2901610e+01
   7.7656540e+02   2.6181150e+01
   7.7704750e+02   2.7107420e+01
   7.7752970e+02   2.4090090e+01
   7.7801180e+02   2.0074950e+01
   7.7849390e+02   2.1076170e+01
   7.7897600e+02   2.5865480e+01
   7.7945810e+02   2.9733150e+01
   7.7994020e+02   3.0283690e+01
   7.8042240e+02   3.0113280e+01
   7.8090450e+02   3.1646240e+01
   7.8138660e+02   3.3755860e+01
   7.8186870e+02   3.4295900e+01
   7.8235080e+02   3.0603030e+01
   7.8283290e+02   2.7652100e+01
   7.8331510e+02   2.6289550e+01
   7.8379720e+02   2.6178220e+01
   7.8427930e+02   2.7126220e+01
   7.8476140e+02   2.9385990e+01
   7.8524350e+02   2.9559080e+01
   7.8572560e+02   2.6636230e+01
   7.8620770e+02   2.2631100e+01
   7.8668980e+02   2.0981690e+01
   7.8717190e+02   2.0976560e+01
   7.8765410e+02   2.0534670e+01
   7.8813620e+02   1.8333980e+01
   7.8861830e+02   1.5961910e+01
   7.8910040e+02   1.4671390e+01
   7.8958250e+02   1.4072750e+01
   7.9006460e+02   1.3096190e+01
   7.9054680e+02   1.2015380e+01
   7.9102890e+02   9.8293460e+00
   7.9151100e+02   4.9101560e+00
   7.9199310e+02   9.5068400e-01
   7.9247520e+02   8.6499000e-01
   7.9295730e+02   6.2832030e+00
   7.9343950e+02   1.1929200e+01
   7.9392160e+02   1.2397950e+01
   7.9440370e+02   1.0396240e+01
   7.9488580e+02   1.1055910e+01
   7.9536790e+02   1.3675290e+01
   7.9585000e+02   1.5902100e+01
   7.9633220e+02   1.6890870e+01
   7.9681430e+02   1.6851320e+01
   7.9729640e+02   1.5965820e+01
   7.9777850e+02   1.4190430e+01
   7.9826060e+02   1.1052980e+01
   7.9874270e+02   3.8801270e+00
   7.9922490e+02   3.5424800e-01
   7.9970700e+02   1.5256350e+00
   8.0018910e+02   6.7734380e+00
   8.0067120e+02   4.9025880e+00
   8.0115330e+02   4.2185060e+00
   8.0163540e+02   1.0076420e+01
   8.0211760e+02   6.2084960e+00
   8.0259970e+02   2.5124510e+00
   8.0308180e+02   1.0019290e+01
   8.0356390e+02   1.5609860e+01
   8.0404600e+02   1.7735840e+01
   8.0452810e+02   1.3106690e+01
   8.0501030e+02   7.5546880e+00
   8.0549240e+02   2.4655760e+00
   8.0597450e+02   1.6311040e+00
   8.0645660e+02   3.0991210e+00
   8.0693870e+02   1.3107910e+00
   8.0742080e+02   1.6616210e+00
   8.0790300e+02   5.5869140e+00
   8.0838510e+02   9.9177250e+00
   8.0886720e+02   1.1932620e+01
   8.0934930e+02   1.1819820e+01
   8.0983140e+02   1.1612550e+01
   8.1031350e+02   1.3355220e+01
   8.1079570e+02   1.4399410e+01
   8.1127780e+02   1.0777340e+01
   8.1175990e+02   4.1669920e+00
   8.1224200e+02   7.5805700e-01
   8.1272410e+02   1.8823240e+00
   8.1320620e+02   1.5966800e+00
   8.1368840e+02   5.7592800e-01
   8.1417050e+02   3.6616210e+00
   8.1465260e+02   3.2553710e+00
   8.1513470e+02   2.0363770e+00
   8.1561680e+02   4.6618650e+00
   8.1609890e+02   1.2631840e+00
   8.1658110e+02   5.1115720e+00
   8.1706320e+02   8.2150880e+00
   8.1754530e+02   8.3837890e+00
   8.1802740e+02   7.1506350e+00
   8.1850950e+02   3.2929690e+00
   8.1899160e+02   1.3525400e-01
   8.1947380e+02   1.1271970e+00
   8.1995590e+02   1.1181600e-01
   8.2043800e+02   1.6750490e+00
   8.2092010e+02   5.8010250e+00
   8.2140220e+02   8.3771970e+00
   8.2188430e+02   8.6281740e+00
   8.2236650e+02   6.9370120e+00
   8.2284860e+02   2.9768070e+00
   8.2333070e+02   3.4230960e+00
   8.2381280e+02   6.7163090e+00
   8.2429490e+02   4.1469730e+00
   8.2477700e+02   1.1398930e+00
   8.2525920e+02   5.7045900e+00
   8.2574130e+02   9.2446290e+00
   8.2622340e+02   1.1428470e+01
   8.2670550e+02   1.1600340e+01
   8.2718760e+02   1.1028810e+01
   8.2766970e+02   9.7790530e+00
   8.2815190e+02   8.0969240e+00
   8.2863400e+02   6.4721680e+00
   8.2911610e+02   3.9331050e+00
   8.2959820e+02   4.0683590e+00
   8.3008030e+02   8.5458980e+00
   8.3056240e+02   1.4652830e+01
   8.3104460e+02   1.6974610e+01
   8.3152670e+02   1.6084230e+01
   8.3200880e+02   1.5113040e+01
   8.3249090e+02   1.4807620e+01
   8.3297300e+02   1.5296880e+01
   8.3345510e+02   1.7655520e+01
   8.3393730e+02   2.0663090e+01
   8.3441940e+02   2.2325440e+01
   8.3490150e+02   2.2147220e+01
   8.3538360e+02   2.0337650e+01
   8.3586570e+02   1.3659910e+01
   8.3634780e+02   7.6833500e+00
   8.3683000e+02   1.3240970e+01
   8.3731210e+02   3.2137700e+01
   8.3779420e+02   4.2820800e+01
   8.3827630e+02   3.9763180e+01
   8.3875840e+02   3.3068120e+01
   8.3924050e+02   3.7574710e+01
   8.3972270e+02   4.8580080e+01
   8.4020480e+02   5.6164310e+01
   8.4068690e+02   5.5601070e+01
   8.4116900e+02   5.5897950e+01
   8.4165110e+02   6.2748540e+01
   8.4213320e+02   7.2216310e+01
   8.4261540e+02   7.9510010e+01
   8.4309750e+02   8.3155030e+01
   8.4357960e+02   8.7234130e+01
   8.4406170e+02   9.1681150e+01
   8.4454380e+02   9.7097170e+01
   8.4502590e+02   1.0448190e+02
   8.4550810e+02   1.1351460e+02
   8.4599020e+02   1.2257790e+02
   8.4647230e+02   1.3153690e+02
   8.4695440e+02   1.3963650e+02
   8.4743650e+02   1.4334130e+02
   8.4791860e+02   1.4748360e+02
   8.4840080e+02   1.5781570e+02
   8.4888290e+02   1.7816060e+02
   8.4936500e+02   1.9729390e+02
   8.4984710e+02   2.1425420e+02
   8.5032920e+02   2.2910690e+02
   8.5081130e+02   2.4069600e+02
   8.5129350e+02   2.4811300e+02
   8.5177560e+02   2.6187180e+02
   8.5225770e+02   2.8301560e+02
   8.5273980e+02   3.0457710e+02
   8.5322190e+02   3.2170430e+02
   8.5370400e+02   3.3461840e+02
   8.5418620e+02   3.4426030e+02
   8.5466830e+02   3.5068550e+02
   8.5515040e+02   3.5121530e+02
   8.5563250e+02   3.4168770e+02
   8.5611460e+02   3.2795730e+02
   8.5659670e+02   3.1392900e+02
   8.5707890e+02   3.0001710e+02
   8.5756100e+02   2.8112870e+02
   8.5804310e+02   2.5535640e+02
   8.5852520e+02   2.3046000e+02
   8.5900730e+02   2.1238990e+02
   8.5948940e+02   1.9897950e+02
   8.5997160e+02   1.8243550e+02
   8.6045370e+02   1.6318240e+02
   8.6093580e+02   1.4607960e+02
   8.6141790e+02   1.3469480e+02
   8.6190000e+02   1.2633940e+02
   8.6238210e+02   1.1988790e+02
   8.6286430e+02   1.1512180e+02
   8.6334640e+02   1.0969700e+02
   8.6382850e+02   1.0434250e+02
   8.6431060e+02   9.6864260e+01
   8.6479270e+02   8.5691650e+01
   8.6527480e+02   7.2084960e+01
   8.6575700e+02   6.1289060e+01
   8.6623910e+02   5.3427250e+01
   8.6672120e+02   5.0606930e+01
   8.6720330e+02   5.9347660e+01
   8.6768540e+02   6.9238280e+01
   8.6816750e+02   6.8426030e+01
   8.6864970e+02   5.9677980e+01
   8.6913180e+02   5.0818600e+01
   8.6961390e+02   4.1735600e+01
   8.7009600e+02   3.5952390e+01
   8.7057810e+02   3.6038570e+01
   8.7106020e+02   3.9212890e+01
   8.7154240e+02   3.7844730e+01
   8.7202450e+02   3.1218990e+01
   8.7250660e+02   2.5958500e+01
   8.7298870e+02   2.3931150e+01
   8.7347080e+02   2.3665040e+01
   8.7395290e+02   2.3738280e+01
   8.7443510e+02   2.4020020e+01
   8.7491720e+02   2.4458250e+01
   8.7539930e+02   2.6538330e+01
   8.7588140e+02   2.6903320e+01
   8.7636350e+02   2.2088620e+01
   8.7684560e+02   1.5681400e+01
   8.7732780e+02   1.2769040e+01
   8.7780990e+02   1.4460210e+01
   8.7829200e+02   1.7128660e+01
   8.7877410e+02   2.1305180e+01
   8.7925620e+02   2.4309080e+01
   8.7973830e+02   2.1124270e+01
   8.8022050e+02   1.4148190e+01
   8.8070260e+02   1.0512940e+01
   8.8118470e+02   1.1884280e+01
   8.8166680e+02   1.3575200e+01
   8.8214890e+02   1.1326420e+01
   8.8263100e+02   9.0158690e+00
   8.8311320e+02   1.1030760e+01
   8.8359530e+02   2.1553470e+01
   8.8407740e+02   2.4011470e+01
   8.8455950e+02   1.3931880e+01
   8.8504160e+02   3.6965330e+00
   8.8552370e+02   4.3798830e+00
   8.8600590e+02   1.3827880e+01
   8.8648800e+02   1.8348390e+01
   8.8697010e+02   1.7653320e+01
   8.8745220e+02   1.6199950e+01
   8.8793430e+02   1.6788330e+01
   8.8841640e+02   1.8230960e+01
   8.8889860e+02   1.9546630e+01
   8.8938070e+02   2.0687010e+01
   8.8986280e+02   2.2015140e+01
   8.9034490e+02   2.3031490e+01
   8.9082700e+02   2.5013430e+01
   8.9130910e+02   2.9558590e+01
   8.9179130e+02   3.5753910e+01
   8.9227340e+02   3.7014160e+01
   8.9275550e+02   3.3442380e+01
   8.9323760e+02   2.9899410e+01
   8.9371970e+02   2.9767090e+01
   8.9420180e+02   3.0393070e+01
   8.9468400e+02   2.8244870e+01
   8.9516610e+02   2.4368160e+01
   8.9564820e+02   2.2095210e+01
   8.9613030e+02   2.2360840e+01
   8.9661240e+02   2.4708250e+01
   8.9709450e+02   3.0013920e+01
   8.9757670e+02   3.6712400e+01
   8.9805880e+02   4.1517330e+01
   8.9854090e+02   4.4529540e+01
   8.9902300e+02   4.4933840e+01
   8.9950510e+02   4.1730220e+01
   8.9998720e+02   3.8348880e+01
   9.0046940e+02   3.9854980e+01
   9.0095150e+02   4.3977050e+01
   9.0143360e+02   4.7051510e+01
   9.0191570e+02   4.8622310e+01
   9.0239780e+02   4.8080810e+01
   9.0287990e+02   4.1859620e+01
   9.0336210e+02   3.5794920e+01
   9.0384420e+02   3.5872070e+01
   9.0432630e+02   4.3855470e+01
   9.0480840e+02   4.7150150e+01
   9.0529050e+02   4.4855710e+01
   9.0577260e+02   4.0356450e+01
   9.0625480e+02   3.4873540e+01
   9.0673690e+02   3.0268310e+01
   9.0721900e+02   3.0562010e+01
   9.0770110e+02   3.6258300e+01
   9.0818320e+02   4.1250730e+01
   9.0866530e+02   4.3841800e+01
   9.0914750e+02   4.3748540e+01
   9.0962960e+02   3.9507810e+01
   9.1011170e+02   3.1327390e+01
   9.1059380e+02   2.9266850e+01
   9.1107590e+02   3.4261230e+01
   9.1155800e+02   4.0573490e+01
   9.1204020e+02   4.6570560e+01
   9.1252230e+02   5.0982910e+01
   9.1300440e+02   4.8608150e+01
   9.1348650e+02   4.1823490e+01
   9.1396860e+02   3.9172850e+01
   9.1445070e+02   5.2370360e+01
   9.1493290e+02   6.2442630e+01
   9.1541500e+02   5.7877200e+01
   9.1589710e+02   4.4659180e+01
   9.1637920e+02   3.7914310e+01
   9.1686130e+02   3.9029300e+01
   9.1734340e+02   4.1274410e+01
   9.1782560e+02   4.3802730e+01
   9.1830770e+02   4.5480470e+01
   9.1878980e+02   4.3123050e+01
   9.1927190e+02   3.8587400e+01
   9.1975400e+02   3.6676510e+01
   9.2023610e+02   4.0416750e+01
   9.2071830e+02   4.3003170e+01
   9.2120040e+02   3.8871340e+01
   9.2168250e+02   3.3499510e+01
   9.2216460e+02   3.3127930e+01
   9.2264670e+02   4.1494870e+01
   9.2312880e+02   4.3001460e+01
   9.2361100e+02   3.6067630e+01
   9.2409310e+02   2.7350830e+01
   9.2457520e+02   2.3376220e+01
   9.2505730e+02   2.2333980e+01
   9.2553940e+02   1.9386470e+01
   9.2602150e+02   1.4322750e+01
   9.2650370e+02   1.2172360e+01
   9.2698580e+02   2.0998290e+01
   9.2746790e+02   2.9050780e+01
   9.2795000e+02   2.7065430e+01
   9.2843210e+02   1.6002930e+01
   9.2891420e+02   1.0420900e+01
   9.2939640e+02   1.1632570e+01
   9.2987850e+02   1.3295650e+01
   9.3036060e+02   1.1844480e+01
   9.3084270e+02   9.6743160e+00
   9.3132480e+02   1.4663090e+01
   9.3180690e+02   2.3882570e+01
   9.3228910e+02   2.7800780e+01
   9.3277120e+02   1.5096680e+01
   9.3325330e+02   3.9604490e+00
   9.3373540e+02   3.6079100e+00
   9.3421750e+02   9.4245610e+00
   9.3469960e+02   1.2181880e+01
   9.3518180e+02   1.1221680e+01
   9.3566390e+02   9.8464360e+00
   9.3614600e+02   8.5271000e+00
   9.3662810e+02   7.1750490e+00
   9.3711020e+02   5.6682130e+00
   9.3759230e+02   4.0786130e+00
   9.3807450e+02   2.3461910e+00
   9.3855660e+02   4.1455100e-01
   9.3903870e+02   9.0405300e-01
   9.3952080e+02   4.9853500e-01
   9.4000290e+02   5.1024999e-02
   9.4048500e+02   7.4536100e-01
   9.4096720e+02   3.2893070e+00
   9.4144930e+02   4.1457520e+00
   9.4193140e+02   3.1623540e+00
   9.4241350e+02   1.9306640e+00
   9.4289560e+02   1.0156250e+00
   9.4337770e+02   7.7954100e-01
   9.4385990e+02   2.3427730e+00
   9.4434200e+02   5.3586430e+00
   9.4482410e+02   7.7556150e+00
   9.4530620e+02   8.2487790e+00
   9.4578830e+02   8.2246090e+00
   9.4627040e+02   8.4035640e+00
   9.4675260e+02   8.3835450e+00
   9.4723470e+02   6.5083010e+00
   9.4771680e+02   2.1157230e+00
   9.4819890e+02   1.2500000e-01
   9.4868100e+02   1.5070800e+00
   9.4916310e+02   4.3901370e+00
   9.4964530e+02   4.6076660e+00
   9.5012740e+02   3.3767090e+00
   9.5060950e+02   3.2973630e+00
   9.5109160e+02   6.5378420e+00
   9.5157370e+02   7.7304690e+00
   9.5205580e+02   4.6467290e+00
   9.5253800e+02   5.9228500e-01
   9.5302010e+02   7.2575680e+00
   9.5350220e+02   1.6063720e+01
   9.5398430e+02   1.9140380e+01
   9.5446640e+02   1.5631840e+01
   9.5494850e+02   1.2933840e+01
   9.5543070e+02   2.1334230e+01
   9.5591280e+02   3.1687500e+01
   9.5639490e+02   3.0560550e+01
   9.5687700e+02   1.8343020e+01
   9.5735910e+02   7.8981930e+00
   9.5784120e+02   2.4196780e+00
   9.5832340e+02   1.1064450e+00
   9.5880550e+02   4.9377440e+00
   9.5928760e+02   1.2361820e+01
   9.5976970e+02   1.8032710e+01
   9.6025180e+02   2.1982670e+01
   9.6073390e+02   2.3213620e+01
   9.6121610e+02   1.9795650e+01
   9.6169820e+02   1.6389890e+01
   9.6218030e+02   1.8542240e+01
   9.6266240e+02   2.3889650e+01
   9.6314450e+02   2.8918700e+01
   9.6362660e+02   3.3626460e+01
   9.6410880e+02   3.6304440e+01
   9.6459090e+02   3.6507320e+01
   9.6507300e+02   3.5270020e+01
   9.6555510e+02   3.2083010e+01
   9.6603720e+02   2.7623290e+01
   9.6651930e+02   3.0173340e+01
   9.6700150e+02   4.0338380e+01
   9.6748360e+02   4.9056880e+01
   9.6796570e+02   4.7947020e+01
   9.6844780e+02   4.3241210e+01
   9.6892990e+02   3.7946290e+01
   9.6941200e+02   3.2648190e+01
   9.6989420e+02   3.5472170e+01
   9.7037630e+02   5.3530270e+01
   9.7085840e+02   6.4757320e+01
   9.7134050e+02   5.8562500e+01
   9.7182260e+02   4.2565920e+01
   9.7230470e+02   3.7575200e+01
   9.7278690e+02   4.1494140e+01
   9.7326900e+02   4.5833980e+01
   9.7375110e+02   4.7400880e+01
   9.7423320e+02   4.8032710e+01
   9.7471530e+02   4.7039060e+01
   9.7519740e+02   4.6612790e+01
   9.7567960e+02   5.0458500e+01
   9.7616170e+02   6.1574710e+01
   9.7664380e+02   6.7858400e+01
   9.7712590e+02   6.7614260e+01
   9.7760800e+02   6.6005860e+01
   9.7809010e+02   6.8055660e+01
   9.7857230e+02   7.2550780e+01
   9.7905440e+02   7.7123540e+01
   9.7953650e+02   8.1507320e+01
   9.8001860e+02   8.6855960e+01
   9.8050070e+02   9.4806640e+01
   9.8098280e+02   1.0259470e+02
   9.8146500e+02   1.0927490e+02
   9.8194710e+02   1.1469340e+02
   9.8242910e+02   1.1874710e+02
   9.8291130e+02   1.2160790e+02
   9.8339340e+02   1.2051510e+02
   9.8387550e+02   1.1133940e+02
   9.8435760e+02   1.0222610e+02
   9.8483970e+02   1.0548390e+02
   9.8532180e+02   1.1656300e+02
   9.8580400e+02   1.2685010e+02
   9.8628610e+02   1.3468460e+02
   9.8676820e+02   1.3964110e+02
   9.8725030e+02   1.3933500e+02
   9.8773240e+02   1.3903910e+02
   9.8821450e+02   1.4491410e+02
   9.8869670e+02   1.5659570e+02
   9.8917880e+02   1.6593460e+02
   9.8966090e+02   1.7243510e+02
   9.9014300e+02   1.7871830e+02
   9.9062510e+02   1.8444870e+02
   9.9110720e+02   1.9283500e+02
   9.9158940e+02   2.0784620e+02
   9.9207150e+02   2.2940580e+02
   9.9255360e+02   2.5100680e+02
   9.9303570e+02   2.7264890e+02
   9.9351780e+02   2.9294430e+02
   9.9399990e+02   3.0953560e+02
   9.9448210e+02   3.2612940e+02
   9.9496420e+02   3.5176420e+02
   9.9544630e+02   3.8486230e+02
   9.9592840e+02   4.2124370e+02
   9.9641050e+02   4.5901070e+02
   9.9689260e+02   4.9930620e+02
   9.9737480e+02   5.4116890e+02
   9.9785690e+02   5.8688960e+02
   9.9833900e+02   6.4013430e+02
   9.9882110e+02   7.0425540e+02
   9.9930320e+02   7.6192330e+02
   9.9978530e+02   8.1007230e+02
   1.0002670e+03   8.6211960e+02
   1.0007500e+03   9.2948000e+02
   1.0012320e+03   1.0070070e+03
   1.0017140e+03   1.0882590e+03
   1.0021960e+03   1.1717300e+03
   1.0026780e+03   1.2558600e+03
   1.0031600e+03   1.3328990e+03
   1.0036420e+03   1.4171880e+03
   1.0041240e+03   1.5120440e+03
   1.0046070e+03   1.6166100e+03
   1.0050890e+03   1.7225330e+03
   1.0055710e+03   1.8316110e+03
   1.0060530e+03   1.9586850e+03
   1.0065350e+03   2.1113970e+03
   1.0070170e+03   2.2775950e+03
   1.0074990e+03   2.4494970e+03
   1.0079810e+03   2.6299570e+03
   1.0084630e+03   2.8262720e+03
   1.0089460e+03   3.0456820e+03
   1.0094280e+03   3.2642370e+03
   1.0099100e+03   3.4898160e+03
   1.0103920e+03   3.7043830e+03
   1.0108740e+03   3.9010470e+03
   1.0113560e+03   4.0755120e+03
   1.0118380e+03   4.2134630e+03
   1.0123200e+03   4.3095740e+03
   1.0128020e+03   4.3370110e+03
   1.0132850e+03   4.2789820e+03
   1.0137670e+03   4.1498820e+03
   1.0142490e+03   3.9365390e+03
   1.0147310e+03   3.6609180e+03
   1.0152130e+03   3.3655610e+03
   1.0156950e+03   3.0456280e+03
   1.0161770e+03   2.7326800e+03
   1.0166590e+03   2.4311630e+03
   1.0171420e+03   2.1446750e+03
   1.0176240e+03   1.8718310e+03
   1.0181060e+03   1.6245910e+03
   1.0185880e+03   1.4184580e+03
   1.0190700e+03   1.2593220e+03
   1.0195520e+03   1.1198580e+03
   1.0200340e+03   9.9680220e+02
   1.0205160e+03   8.8832130e+02
   1.0209980e+03   7.9465230e+02
   1.0214810e+03   7.1473000e+02
   1.0219630e+03   6.4715330e+02
   1.0224450e+03   5.9066260e+02
   1.0229270e+03   5.3854690e+02
   1.0234090e+03   4.8392920e+02
   1.0238910e+03   4.3670510e+02
   1.0243730e+03   4.0676170e+02
   1.0248550e+03   3.8780570e+02
   1.0253380e+03   3.6903810e+02
   1.0258200e+03   3.5128120e+02
   1.0263020e+03   3.2862740e+02
   1.0267840e+03   2.9881300e+02
   1.0272660e+03   2.7059330e+02
   1.0277480e+03   2.5526220e+02
   1.0282300e+03   2.4731640e+02
   1.0287120e+03   2.3487300e+02
   1.0291940e+03   2.1757180e+02
   1.0296770e+03   2.0558540e+02
   1.0301590e+03   2.0938090e+02
   1.0306410e+03   2.1225590e+02
   1.0311230e+03   2.0822800e+02
   1.0316050e+03   1.9877050e+02
   1.0320870e+03   1.8809770e+02
   1.0325690e+03   1.7633980e+02
   1.0330510e+03   1.6495800e+02
   1.0335340e+03   1.5368800e+02
   1.0340160e+03   1.4489260e+02
   1.0344980e+03   1.3991940e+02
   1.0349800e+03   1.3902440e+02
   1.0354620e+03   1.4350980e+02
   1.0359440e+03   1.5809230e+02
   1.0364260e+03   1.6432130e+02
   1.0369080e+03   1.5956690e+02
   1.0373910e+03   1.5385350e+02
   1.0378730e+03   1.5542820e+02
   1.0383550e+03   1.6109280e+02
   1.0388370e+03   1.6142140e+02
   1.0393190e+03   1.5786430e+02
   1.0398010e+03   1.5672510e+02
   1.0402830e+03   1.6414840e+02
   1.0407650e+03   1.7064060e+02
   1.0412470e+03   1.7273880e+02
   1.0417290e+03   1.7237060e+02
   1.0422120e+03   1.7222750e+02
   1.0426940e+03   1.7223930e+02
   1.0431760e+03   1.7344730e+02
   1.0436580e+03   1.7622310e+02
   1.0441400e+03   1.8112740e+02
   1.0446220e+03   1.9113960e+02
   1.0451040e+03   2.0230570e+02
   1.0455860e+03   2.1202930e+02
   1.0460690e+03   2.2016600e+02
   1.0465510e+03   2.2127000e+02
   1.0470330e+03   2.1144820e+02
   1.0475150e+03   2.0398240e+02
   1.0479970e+03   2.0704740e+02
   1.0484790e+03   2.1323930e+02
   1.0489610e+03   2.0417380e+02
   1.0494430e+03   1.8494190e+02
   1.0499260e+03   1.6853860e+02
   1.0504080e+03   1.6215530e+02
   1.0508900e+03   1.5463920e+02
   1.0513720e+03   1.4070900e+02
   1.0518540e+03   1.2520900e+02
   1.0523360e+03   1.1217380e+02
   1.0528180e+03   1.0177690e+02
   1.0533000e+03   8.7847170e+01
   1.0537820e+03   7.0297850e+01
   1.0542650e+03   5.7000980e+01
   1.0547470e+03   5.7474120e+01
   1.0552290e+03   6.1246090e+01
   1.0557110e+03   6.0675290e+01
   1.0561930e+03   5.5932620e+01
   1.0566750e+03   4.8350100e+01
   1.0571570e+03   3.5400390e+01
   1.0576390e+03   2.6650390e+01
   1.0581210e+03   2.3918460e+01
   1.0586040e+03   2.4887700e+01
   1.0590860e+03   2.9950680e+01
   1.0595680e+03   3.5271480e+01
   1.0600500e+03   3.1845210e+01
   1.0605320e+03   1.7384770e+01
   1.0610140e+03   4.9360350e+00
   1.0614960e+03   6.7675800e-01
   1.0619780e+03   2.3906250e+00
   1.0624610e+03   2.4414100e-01
   1.0629430e+03   5.5546880e+00
   1.0634250e+03   4.6040040e+00
   1.0639070e+03   1.8906250e+00
   1.0643890e+03   7.0488280e+00
   1.0648710e+03   8.2802730e+00
   1.0653530e+03   7.0166020e+00
   1.0658350e+03   7.2509800e-01
   1.0663180e+03   5.6938480e+00
   1.0668000e+03   5.4848630e+00
   1.0672820e+03   4.5063480e+00
   1.0677640e+03   1.1207520e+01
   1.0682460e+03   1.4566410e+01
   1.0687280e+03   1.5105470e+01
   1.0692100e+03   1.2137210e+01
   1.0696920e+03   7.2797850e+00
   1.0701740e+03   1.3671880e+00
   1.0706560e+03   4.3593750e+00
   1.0711390e+03   5.8427730e+00
   1.0716210e+03   5.5346680e+00
   1.0721030e+03   1.1351560e+01
   1.0725850e+03   6.9609380e+00
   1.0730670e+03   1.9140630e+00
   1.0735490e+03   8.0747070e+00
   1.0740310e+03   1.1318850e+01
   1.0745130e+03   1.0670900e+01
   1.0749960e+03   5.7338870e+00
   1.0754780e+03   1.8808590e+00
   1.0759600e+03   1.4873050e+00
   1.0764420e+03   4.3613280e+00
   1.0769240e+03   1.3217290e+01
   1.0774060e+03   2.6015620e+01
   1.0778880e+03   2.7559080e+01
   1.0783700e+03   1.7113280e+01
   1.0788530e+03   1.1062010e+01
   1.0793350e+03   1.7007320e+01
   1.0798170e+03   2.4791990e+01
   1.0802990e+03   2.2759280e+01
   1.0807810e+03   1.5845700e+01
   1.0812630e+03   1.0559080e+01
   1.0817450e+03   8.5502930e+00
   1.0822270e+03   7.1669920e+00
   1.0827090e+03   6.5786130e+00
   1.0831920e+03   6.0981450e+00
   1.0836740e+03   5.1337890e+00
   1.0841560e+03   4.0727540e+00
   1.0846380e+03   2.6655270e+00
   1.0851200e+03   1.8779300e+00
   1.0856020e+03   5.0825200e+00
   1.0860840e+03   1.9641600e+01
   1.0865660e+03   3.0778320e+01
   1.0870480e+03   3.5902340e+01
   1.0875310e+03   3.5472660e+01
   1.0880130e+03   2.7232420e+01
   1.0884950e+03   1.2309080e+01
   1.0889770e+03   3.9282230e+00
   1.0894590e+03   3.0180660e+00
   1.0899410e+03   6.0649410e+00
   1.0904230e+03   1.4113770e+01
   1.0909050e+03   2.1993160e+01
   1.0913870e+03   2.7206050e+01
   1.0918700e+03   2.9307130e+01
   1.0923520e+03   2.5892580e+01
   1.0928340e+03   1.5719240e+01
   1.0933160e+03   9.0058590e+00
   1.0937980e+03   8.3945310e+00
   1.0942800e+03   1.0754390e+01
   1.0947620e+03   1.4843260e+01
   1.0952440e+03   1.8393550e+01
   1.0957270e+03   1.7839360e+01
   1.0962090e+03   1.1576170e+01
   1.0966910e+03   8.0971680e+00
   1.0971730e+03   8.8764650e+00
   1.0976550e+03   9.9741210e+00
   1.0981370e+03   9.4467770e+00
   1.0986190e+03   8.2705080e+00
   1.0991010e+03   1.0313960e+01
   1.0995830e+03   1.3490230e+01
   1.1000660e+03   1.2420410e+01
   1.1005480e+03   9.4775400e-01
   1.1010300e+03   7.1142580e+00
   1.1015120e+03   6.4780270e+00
   1.1019940e+03   2.8852540e+00
   1.1024760e+03   6.3818400e-01
   1.1029580e+03   3.8066410e+00
   1.1034400e+03   9.7168000e-01
   1.1039220e+03   7.0546880e+00
   1.1044050e+03   1.1341310e+01
   1.1048870e+03   3.3676760e+00
   1.1053690e+03   6.4736330e+00
   1.1058510e+03   1.4487790e+01
   1.1063330e+03   1.9604980e+01
   1.1068150e+03   1.9079590e+01
   1.1072970e+03   1.1477540e+01
   1.1077790e+03   9.3818360e+00
   1.1082620e+03   1.4684080e+01
   1.1087440e+03   1.9683590e+01
   1.1092260e+03   1.5282710e+01
   1.1097080e+03   8.6152340e+00
   1.1101900e+03   7.1840820e+00
   1.1106720e+03   1.0957520e+01
   1.1111540e+03   1.3967770e+01
   1.1116360e+03   1.6258790e+01
   1.1121190e+03   1.5934570e+01
   1.1126010e+03   1.1152340e+01
   1.1130830e+03   6.9804690e+00
   1.1135650e+03   1.4283690e+01
   1.1140470e+03   2.6673340e+01
   1.1145290e+03   3.1556150e+01
   1.1150110e+03   2.5453610e+01
   1.1154930e+03   2.2293460e+01
   1.1159750e+03   2.9063960e+01
   1.1164580e+03   3.3301760e+01
   1.1169400e+03   2.8742680e+01
   1.1174220e+03   1.8591310e+01
   1.1179040e+03   1.2309080e+01
   1.1183860e+03   9.4790040e+00
   1.1188680e+03   8.9804690e+00
   1.1193500e+03   1.2271970e+01
   1.1198320e+03   1.3630860e+01
   1.1203140e+03   4.4663090e+00
   1.1207970e+03   1.8027340e+00
   1.1212790e+03   7.9350590e+00
   1.1217610e+03   3.3112300e+01
   1.1222430e+03   4.2549320e+01
   1.1227250e+03   3.7297850e+01
   1.1232070e+03   3.0886720e+01
   1.1236890e+03   3.0258300e+01
   1.1241710e+03   3.2532710e+01
   1.1246540e+03   3.9755370e+01
   1.1251360e+03   4.6591310e+01
   1.1256180e+03   4.3746090e+01
   1.1261000e+03   2.8805180e+01
   1.1265820e+03   1.7791020e+01
   1.1270640e+03   1.1935060e+01
   1.1275460e+03   9.7333980e+00
   1.1280280e+03   1.0856450e+01
   1.1285100e+03   1.4028810e+01
   1.1289930e+03   1.9928220e+01
   1.1294750e+03   2.6654790e+01
   1.1299570e+03   2.7555660e+01
   1.1304390e+03   2.0692380e+01
   1.1309210e+03   1.4795410e+01
   1.1314030e+03   1.0154300e+01
   1.1318850e+03   8.6337890e+00
   1.1323670e+03   1.7163570e+01
   1.1328490e+03   2.8321290e+01
   1.1333320e+03   2.9304690e+01
   1.1338140e+03   1.8418460e+01
   1.1342960e+03   1.0590330e+01
   1.1347780e+03   1.0619140e+01
   1.1352600e+03   1.0919920e+01
   1.1357420e+03   8.5722660e+00
   1.1362240e+03   6.0019530e+00
   1.1367060e+03   1.0656740e+01
   1.1371890e+03   1.9176760e+01
   1.1376710e+03   2.1735840e+01
   1.1381530e+03   1.3932130e+01
   1.1386350e+03   9.3588870e+00
   1.1391170e+03   1.7194820e+01
   1.1395990e+03   2.5331050e+01
   1.1400810e+03   2.7961910e+01
   1.1405630e+03   2.6044430e+01
   1.1410460e+03   2.5225590e+01
   1.1415280e+03   2.4862300e+01
   1.1420100e+03   2.1247560e+01
   1.1424920e+03   8.2187500e+00
   1.1429740e+03   4.5898002e-02
   1.1434560e+03   7.8901370e+00
   1.1439380e+03   2.1290530e+01
   1.1444200e+03   3.1515140e+01
   1.1449020e+03   3.8688480e+01
   1.1453850e+03   4.1115720e+01
   1.1458670e+03   3.8887700e+01
   1.1463490e+03   3.5068360e+01
   1.1468310e+03   2.7738280e+01
   1.1473130e+03   2.3272950e+01
   1.1477950e+03   2.9173830e+01
   1.1482770e+03   3.9566890e+01
   1.1487590e+03   4.4831540e+01
   1.1492410e+03   4.4241700e+01
   1.1497240e+03   4.0687010e+01
   1.1502060e+03   3.4013670e+01
   1.1506880e+03   2.7986820e+01
   1.1511700e+03   2.7655270e+01
   1.1516520e+03   2.7836430e+01
   1.1521340e+03   2.1210940e+01
   1.1526160e+03   1.0826660e+01
   1.1530980e+03   8.6870120e+00
   1.1535810e+03   1.7571290e+01
   1.1540630e+03   2.7808590e+01
   1.1545450e+03   3.9250000e+01
   1.1550270e+03   4.6885740e+01
   1.1555090e+03   4.0593750e+01
   1.1559910e+03   2.9637700e+01
   1.1564730e+03   2.5803710e+01
   1.1569550e+03   2.9633790e+01
   1.1574380e+03   3.4147460e+01
   1.1579200e+03   4.2116210e+01
   1.1584020e+03   4.0834470e+01
   1.1588840e+03   2.3365720e+01
   1.1593660e+03   4.1738280e+00
   1.1598480e+03   7.8310550e+00
   1.1603300e+03   2.3289060e+01
   1.1608120e+03   3.1513670e+01
   1.1612940e+03   2.8782230e+01
   1.1617760e+03   2.6625980e+01
   1.1622590e+03   2.7176270e+01
   1.1627410e+03   2.9626950e+01
   1.1632230e+03   3.3742680e+01
   1.1637050e+03   3.8398440e+01
   1.1641870e+03   4.2066410e+01
   1.1646690e+03   4.4278320e+01
   1.1651510e+03   4.3562500e+01
   1.1656330e+03   3.7829100e+01
   1.1661160e+03   3.5130860e+01
   1.1665980e+03   4.1479980e+01
   1.1670800e+03   4.5848630e+01
   1.1675620e+03   4.1665530e+01
   1.1680440e+03   3.1907230e+01
   1.1685260e+03   2.7630860e+01
   1.1690080e+03   2.7321780e+01
   1.1694900e+03   2.5446780e+01
   1.1699730e+03   1.9539550e+01
   1.1704550e+03   1.3055660e+01
   1.1709370e+03   4.1791990e+00
   1.1714190e+03   1.4487300e+00
   1.1719010e+03   1.4907230e+00
   1.1723830e+03   1.1713380e+01
   1.1728650e+03   2.0114260e+01
   1.1733470e+03   2.6367190e+01
   1.1738290e+03   2.9830080e+01
   1.1743120e+03   2.8416020e+01
   1.1747940e+03   2.6097660e+01
   1.1752760e+03   2.2130370e+01
   1.1757580e+03   1.9720700e+01
   1.1762400e+03   2.4098630e+01
   1.1767220e+03   3.4766110e+01
   1.1772040e+03   3.5199220e+01
   1.1776860e+03   2.5938960e+01
   1.1781680e+03   1.8533200e+01
   1.1786510e+03   2.1616700e+01
   1.1791330e+03   2.6809080e+01
   1.1796150e+03   3.1459470e+01
   1.1800970e+03   3.4634280e+01
   1.1805790e+03   3.4040530e+01
   1.1810610e+03   2.9543460e+01
   1.1815430e+03   3.0267580e+01
   1.1820250e+03   3.6875000e+01
   1.1825080e+03   4.3400880e+01
   1.1829900e+03   4.6531250e+01
   1.1834720e+03   4.7139650e+01
   1.1839540e+03   4.4994630e+01
   1.1844360e+03   4.1011720e+01
   1.1849180e+03   3.6441410e+01
   1.1854000e+03   3.1051760e+01
   1.1858820e+03   2.5453120e+01
   1.1863650e+03   1.9485350e+01
   1.1868470e+03   1.6488770e+01
   1.1873290e+03   2.1993650e+01
   1.1878110e+03   2.9319340e+01
   1.1882930e+03   3.3429690e+01
   1.1887750e+03   3.4843750e+01
   1.1892570e+03   3.6280270e+01
   1.1897390e+03   3.7980960e+01
   1.1902210e+03   3.6281740e+01
   1.1907030e+03   2.9808590e+01
   1.1911860e+03   2.3938480e+01
   1.1916680e+03   2.4494140e+01
   1.1921500e+03   2.7285160e+01
   1.1926320e+03   2.9084960e+01
   1.1931140e+03   2.9609860e+01
   1.1935960e+03   2.8176760e+01
   1.1940780e+03   2.4187500e+01
   1.1945600e+03   2.3613280e+01
   1.1950430e+03   2.8593750e+01
   1.1955250e+03   3.5148930e+01
   1.1960070e+03   4.0341310e+01
   1.1964890e+03   4.4193360e+01
   1.1969710e+03   4.7320800e+01
   1.1974530e+03   4.9736330e+01
   1.1979350e+03   4.6819820e+01
   1.1984170e+03   3.7596190e+01
   1.1989000e+03   3.2637700e+01
   1.1993820e+03   3.7733400e+01
   1.1998640e+03   4.3737300e+01
   1.2003460e+03   3.8880860e+01
   1.2008280e+03   3.0996090e+01
   1.2013100e+03   3.0189940e+01
   1.2017920e+03   3.8372070e+01
   1.2022740e+03   4.1687010e+01
   1.2027560e+03   3.9630370e+01
   1.2032390e+03   3.7296880e+01
   1.2037210e+03   3.7312500e+01
   1.2042030e+03   3.7192870e+01
   1.2046850e+03   3.2210450e+01
   1.2051670e+03   2.6251950e+01
   1.2056490e+03   2.5292480e+01
   1.2061310e+03   3.1129880e+01
   1.2066130e+03   3.2836910e+01
   1.2070950e+03   2.9565430e+01
   1.2075780e+03   2.9605960e+01
   1.2080600e+03   4.1878420e+01
   1.2085420e+03   5.3802730e+01
   1.2090240e+03   4.8118650e+01
   1.2095060e+03   3.4159180e+01
   1.2099880e+03   2.6925290e+01
   1.2104700e+03   2.9699710e+01
   1.2109520e+03   3.0811520e+01
   1.2114350e+03   3.0532710e+01
   1.2119170e+03   2.7585450e+01
   1.2123990e+03   1.6555660e+01
   1.2128810e+03   7.0161130e+00
   1.2133630e+03   1.1491210e+01
   1.2138450e+03   2.3788570e+01
   1.2143270e+03   3.2041990e+01
   1.2148090e+03   3.2069340e+01
   1.2152920e+03   4.2073240e+01
   1.2157740e+03   6.3836910e+01
   1.2162560e+03   7.9488280e+01
   1.2167380e+03   6.8692380e+01
   1.2172200e+03   5.1478520e+01
   1.2177020e+03   4.5852540e+01
   1.2181840e+03   4.8881350e+01
   1.2186660e+03   5.3313480e+01
   1.2191480e+03   5.9539550e+01
   1.2196300e+03   6.1452150e+01
   1.2201130e+03   5.8369140e+01
   1.2205950e+03   5.5125490e+01
   1.2210770e+03   5.6649900e+01
   1.2215590e+03   5.8801760e+01
   1.2220410e+03   5.8259280e+01
   1.2225230e+03   5.5549800e+01
   1.2230050e+03   5.1575680e+01
   1.2234870e+03   4.5165530e+01
   1.2239700e+03   4.6210940e+01
   1.2244520e+03   5.6405760e+01
   1.2249340e+03   6.3097660e+01
   1.2254160e+03   4.9997560e+01
   1.2258980e+03   3.4743650e+01
   1.2263800e+03   3.2815920e+01
   1.2268620e+03   4.0889650e+01
   1.2273440e+03   4.7866210e+01
   1.2278270e+03   5.3891600e+01
   1.2283090e+03   5.7059080e+01
   1.2287910e+03   5.7227050e+01
   1.2292730e+03   5.4486820e+01
   1.2297550e+03   4.6252440e+01
   1.2302370e+03   3.7587400e+01
   1.2307190e+03   3.3095700e+01
   1.2312010e+03   3.1328120e+01
   1.2316830e+03   2.6629880e+01
   1.2321660e+03   1.8192380e+01
   1.2326480e+03   1.7816410e+01
   1.2331300e+03   2.7253910e+01
   1.2336120e+03   3.6870610e+01
   1.2340940e+03   3.9466310e+01
   1.2345760e+03   3.8764650e+01
   1.2350580e+03   3.5453120e+01
   1.2355400e+03   3.1296880e+01
   1.2360220e+03   3.2033690e+01
   1.2365050e+03   3.7882810e+01
   1.2369870e+03   3.3890140e+01
   1.2374690e+03   1.7610840e+01
   1.2379510e+03   2.2500000e+00
   1.2384330e+03   1.9858400e+00
   1.2389150e+03   1.6811520e+00
   1.2393970e+03   1.4404300e+00
   1.2398790e+03   5.2519530e+00
   1.2403620e+03   4.7045900e+00
   1.2408440e+03   1.4306600e-01
   1.2413260e+03   5.1772460e+00
   1.2418080e+03   1.1191410e+01
   1.2422900e+03   1.0017090e+01
   1.2427720e+03   1.4419430e+01
   1.2432540e+03   3.5602050e+01
   1.2437360e+03   3.6796390e+01
   1.2442190e+03   2.6561520e+01
   1.2447010e+03   2.4952150e+01
   1.2451830e+03   3.0652340e+01
   1.2456650e+03   3.6665530e+01
   1.2461470e+03   4.1667480e+01
   1.2466290e+03   4.4601070e+01
   1.2471110e+03   4.0182130e+01
   1.2475930e+03   3.9389160e+01
   1.2480750e+03   4.9289060e+01
   1.2485570e+03   6.3626460e+01
   1.2490400e+03   6.8745120e+01
   1.2495220e+03   6.5854980e+01
   1.2500040e+03   5.7626460e+01
   1.2504860e+03   4.4250490e+01
   1.2509680e+03   3.3171390e+01
   1.2514500e+03   3.0231930e+01
   1.2519320e+03   2.7540040e+01
   1.2524140e+03   2.1249020e+01
   1.2528970e+03   1.5128910e+01
   1.2533790e+03   2.0739750e+01
   1.2538610e+03   3.2410640e+01
   1.2543430e+03   3.2761230e+01
   1.2548250e+03   1.7802250e+01
   1.2553070e+03   1.0343750e+01
   1.2557890e+03   2.5815920e+01
   1.2562710e+03   3.6990720e+01
   1.2567540e+03   3.3936040e+01
   1.2572360e+03   2.5453120e+01
   1.2577180e+03   2.9143550e+01
   1.2582000e+03   3.8960940e+01
   1.2586820e+03   4.2708010e+01
   1.2591640e+03   3.7820310e+01
   1.2596460e+03   3.5462890e+01
   1.2601280e+03   3.7991700e+01
   1.2606100e+03   4.1679200e+01
   1.2610930e+03   4.6831540e+01
   1.2615750e+03   4.9842770e+01
   1.2620570e+03   4.0257320e+01
   1.2625390e+03   2.7418950e+01
   1.2630210e+03   2.4695800e+01
   1.2635030e+03   3.4024900e+01
   1.2639850e+03   3.8251950e+01
   1.2644670e+03   3.5573240e+01
   1.2649490e+03   3.1269530e+01
   1.2654320e+03   2.6429200e+01
   1.2659140e+03   2.2184080e+01
   1.2663960e+03   2.1342770e+01
   1.2668780e+03   2.1025390e+01
   1.2673600e+03   1.6960450e+01
   1.2678420e+03   8.7558590e+00
   1.2683240e+03   4.2553710e+00
   1.2688060e+03   3.6123050e+00
   1.2692890e+03   5.2314450e+00
   1.2697710e+03   9.4594730e+00
   1.2702530e+03   1.2564450e+01
   1.2707350e+03   6.8828130e+00
   1.2712170e+03   1.4160160e+00
   1.2716990e+03   7.2202150e+00
   1.2721810e+03   2.1880860e+01
   1.2726630e+03   3.0939940e+01
   1.2731460e+03   3.4295900e+01
   1.2736280e+03   3.3781250e+01
   1.2741100e+03   2.9703120e+01
   1.2745920e+03   2.2938960e+01
   1.2750740e+03   8.6474610e+00
   1.2755560e+03   2.2954100e+00
   1.2760380e+03   1.3999020e+00
   1.2765200e+03   7.9599610e+00
   1.2770020e+03   1.3614750e+01
   1.2774840e+03   1.6029790e+01
   1.2779670e+03   1.7401860e+01
   1.2784490e+03   1.7993650e+01
   1.2789310e+03   1.2805660e+01
   1.2794130e+03   5.2988280e+00
   1.2798950e+03   5.2026370e+00
   1.2803770e+03   8.2705080e+00
   1.2808590e+03   1.2041020e+01
   1.2813410e+03   8.4799800e+00
   1.2818230e+03   0.0000000e+00
   1.5000000e+03   0.0000000e+00
