   1.0000000e+02   0.0000000e+00
   1.1212030e+02   0.0000000e+00
   1.1260240e+02   7.9652000e-01
   1.1308450e+02   7.2706800e-01
   1.1356670e+02   5.7361000e-01
   1.1404880e+02   2.3804700e-01
   1.1453090e+02   7.2176002e-02
   1.1501300e+02   3.2987600e-01
   1.1549510e+02   3.3848800e-01
   1.1597720e+02   2.3461999e-02
   1.1645940e+02   7.4794800e-01
   1.1694150e+02   1.4973830e+00
   1.1742360e+02   2.1064640e+00
   1.1790570e+02   2.6746750e+00
   1.1838780e+02   3.3036690e+00
   1.1886990e+02   4.4830090e+00
   1.1935210e+02   5.4032780e+00
   1.1983420e+02   5.3161240e+00
   1.2031630e+02   4.0484540e+00
   1.2079840e+02   3.1601410e+00
   1.2128050e+02   3.9833980e+00
   1.2176260e+02   5.8018680e+00
   1.2224480e+02   7.3927760e+00
   1.2272690e+02   8.1768680e+00
   1.2320900e+02   8.4556540e+00
   1.2369110e+02   8.4245640e+00
   1.2417320e+02   8.0281830e+00
   1.2465530e+02   7.6319960e+00
   1.2513750e+02   7.6058850e+00
   1.2561960e+02   7.8685260e+00
   1.2610170e+02   8.1645700e+00
   1.2658380e+02   8.0220530e+00
   1.2706590e+02   7.8618930e+00
   1.2754800e+02   8.6294170e+00
   1.2803020e+02   1.0813430e+01
   1.2851230e+02   1.3227580e+01
   1.2899440e+02   1.3972960e+01
   1.2947650e+02   1.3210270e+01
   1.2995860e+02   1.2449730e+01
   1.3044070e+02   1.2779630e+01
   1.3092290e+02   1.4023550e+01
   1.3140500e+02   1.5531830e+01
   1.3188710e+02   1.7269500e+01
   1.3236920e+02   1.9070520e+01
   1.3285130e+02   2.0402440e+01
   1.3333340e+02   2.1106070e+01
   1.3381560e+02   2.1521060e+01
   1.3429770e+02   2.2278220e+01
   1.3477980e+02   2.3607060e+01
   1.3526190e+02   2.4900420e+01
   1.3574400e+02   2.6096240e+01
   1.3622610e+02   2.7146330e+01
   1.3670830e+02   2.7711040e+01
   1.3719040e+02   2.7551190e+01
   1.3767250e+02   2.7659570e+01
   1.3815460e+02   2.9433770e+01
   1.3863670e+02   3.3317160e+01
   1.3911880e+02   3.6426330e+01
   1.3960100e+02   3.7942650e+01
   1.4008310e+02   3.7868700e+01
   1.4056520e+02   3.7715080e+01
   1.4104730e+02   3.7358380e+01
   1.4152940e+02   3.7061920e+01
   1.4201150e+02   3.7135680e+01
   1.4249370e+02   3.7536980e+01
   1.4297580e+02   3.8386270e+01
   1.4345790e+02   3.9752080e+01
   1.4394000e+02   4.1674020e+01
   1.4442210e+02   4.3865820e+01
   1.4490420e+02   4.6391650e+01
   1.4538640e+02   4.9136260e+01
   1.4586850e+02   5.1814460e+01
   1.4635060e+02   5.4165020e+01
   1.4683270e+02   5.6826000e+01
   1.4731480e+02   6.0068080e+01
   1.4779690e+02   6.4108780e+01
   1.4827910e+02   6.8176450e+01
   1.4876120e+02   7.2065420e+01
   1.4924330e+02   7.5977790e+01
   1.4972540e+02   8.0460490e+01
   1.5020750e+02   8.5198430e+01
   1.5068960e+02   9.0740360e+01
   1.5117180e+02   9.7181100e+01
   1.5165390e+02   1.0373020e+02
   1.5213600e+02   1.1228350e+02
   1.5261810e+02   1.2364270e+02
   1.5310020e+02   1.3713130e+02
   1.5358230e+02   1.5068130e+02
   1.5406450e+02   1.6410020e+02
   1.5454660e+02   1.7773010e+02
   1.5502870e+02   1.9172640e+02
   1.5551080e+02   2.0757920e+02
   1.5599290e+02   2.2230650e+02
   1.5647500e+02   2.3432990e+02
   1.5695720e+02   2.4448030e+02
   1.5743930e+02   2.5588470e+02
   1.5792140e+02   2.7121670e+02
   1.5840350e+02   2.8691060e+02
   1.5888560e+02   3.0078870e+02
   1.5936770e+02   3.1036310e+02
   1.5984990e+02   3.2015350e+02
   1.6033200e+02   3.3114540e+02
   1.6081410e+02   3.4325820e+02
   1.6129620e+02   3.5619020e+02
   1.6177830e+02   3.7021300e+02
   1.6226040e+02   3.8472850e+02
   1.6274260e+02   3.9924390e+02
   1.6322470e+02   4.1167550e+02
   1.6370680e+02   4.2579810e+02
   1.6418890e+02   4.4404020e+02
   1.6467100e+02   4.6590780e+02
   1.6515310e+02   4.8832520e+02
   1.6563530e+02   5.0805150e+02
   1.6611740e+02   5.2784610e+02
   1.6659950e+02   5.5082570e+02
   1.6708160e+02   5.7908530e+02
   1.6756370e+02   6.1018790e+02
   1.6804580e+02   6.4191230e+02
   1.6852800e+02   6.7380430e+02
   1.6901010e+02   7.0934370e+02
   1.6949220e+02   7.5225240e+02
   1.6997430e+02   7.9986950e+02
   1.7045640e+02   8.4839860e+02
   1.7093850e+02   8.9859800e+02
   1.7142070e+02   9.4762760e+02
   1.7190280e+02   9.9473130e+02
   1.7238490e+02   1.0398530e+03
   1.7286700e+02   1.0781560e+03
   1.7334910e+02   1.1111180e+03
   1.7383120e+02   1.1348690e+03
   1.7431340e+02   1.1419310e+03
   1.7479550e+02   1.1288550e+03
   1.7527760e+02   1.0975390e+03
   1.7575970e+02   1.0467440e+03
   1.7624180e+02   9.7441460e+02
   1.7672390e+02   8.9451950e+02
   1.7720610e+02   8.1464920e+02
   1.7768820e+02   7.3536490e+02
   1.7817030e+02   6.5946390e+02
   1.7865240e+02   5.8504950e+02
   1.7913450e+02   5.1462760e+02
   1.7961660e+02   4.5398100e+02
   1.8009880e+02   4.0332370e+02
   1.8058090e+02   3.5958570e+02
   1.8106300e+02   3.1960920e+02
   1.8154510e+02   2.8322820e+02
   1.8202720e+02   2.5155520e+02
   1.8250930e+02   2.2577220e+02
   1.8299150e+02   2.0468920e+02
   1.8347360e+02   1.8605480e+02
   1.8395570e+02   1.6963190e+02
   1.8443780e+02   1.5525070e+02
   1.8491990e+02   1.4266460e+02
   1.8540200e+02   1.3197110e+02
   1.8588420e+02   1.2224110e+02
   1.8636630e+02   1.1323950e+02
   1.8684840e+02   1.0487770e+02
   1.8733050e+02   9.7129940e+01
   1.8781260e+02   8.9858090e+01
   1.8829470e+02   8.3333470e+01
   1.8877690e+02   7.8172570e+01
   1.8925900e+02   7.4326930e+01
   1.8974110e+02   7.0824470e+01
   1.9022320e+02   6.7215230e+01
   1.9070530e+02   6.3499770e+01
   1.9118740e+02   5.9461180e+01
   1.9166960e+02   5.4838360e+01
   1.9215170e+02   5.0266440e+01
   1.9263380e+02   4.7099140e+01
   1.9311590e+02   4.5382550e+01
   1.9359800e+02   4.3799200e+01
   1.9408010e+02   4.1483020e+01
   1.9456230e+02   3.8507980e+01
   1.9504440e+02   3.5722660e+01
   1.9552650e+02   3.3145830e+01
   1.9600860e+02   3.0900660e+01
   1.9649070e+02   2.9438770e+01
   1.9697280e+02   2.8857280e+01
   1.9745500e+02   2.8236120e+01
   1.9793710e+02   2.6917610e+01
   1.9841920e+02   2.4887760e+01
   1.9890130e+02   2.3080780e+01
   1.9938340e+02   2.1636950e+01
   1.9986550e+02   2.0404360e+01
   2.0034770e+02   1.8873570e+01
   2.0082980e+02   1.6919120e+01
   2.0131190e+02   1.5257730e+01
   2.0179400e+02   1.4465860e+01
   2.0227610e+02   1.4642820e+01
   2.0275820e+02   1.4579340e+01
   2.0324040e+02   1.4176190e+01
   2.0372250e+02   1.3466610e+01
   2.0420460e+02   1.2454230e+01
   2.0468670e+02   1.1037640e+01
   2.0516880e+02   9.6635210e+00
   2.0565090e+02   8.6710970e+00
   2.0613310e+02   8.1276020e+00
   2.0661520e+02   7.4981460e+00
   2.0709730e+02   6.7489090e+00
   2.0757940e+02   5.8797760e+00
   2.0806150e+02   4.8066020e+00
   2.0854360e+02   3.3835830e+00
   2.0902580e+02   2.1358950e+00
   2.0950790e+02   1.4522780e+00
   2.0999000e+02   1.4524920e+00
   2.1047210e+02   1.4514470e+00
   2.1095420e+02   1.3769530e+00
   2.1143630e+02   1.2695690e+00
   2.1191850e+02   1.2642210e+00
   2.1240060e+02   1.3654710e+00
   2.1288270e+02   1.5594410e+00
   2.1336480e+02   1.9661790e+00
   2.1384690e+02   2.8414610e+00
   2.1432900e+02   2.9227680e+00
   2.1481120e+02   1.6938480e+00
   2.1529330e+02   3.0430600e-01
   2.1577540e+02   9.9612400e-01
   2.1625750e+02   2.9696700e-01
   2.1673960e+02   1.6152270e+00
   2.1722170e+02   1.6510160e+00
   2.1770380e+02   1.8365500e-01
   2.1818600e+02   1.4806060e+00
   2.1866810e+02   1.9486080e+00
   2.1915020e+02   1.7813950e+00
   2.1963230e+02   1.6681210e+00
   2.2011440e+02   1.6662830e+00
   2.2059650e+02   1.6212010e+00
   2.2107870e+02   1.3720400e+00
   2.2156080e+02   6.7401100e-01
   2.2204290e+02   4.6869700e-01
   2.2252500e+02   1.0093920e+00
   2.2300710e+02   2.0623860e+00
   2.2348920e+02   2.7879710e+00
   2.2397140e+02   3.2456970e+00
   2.2445350e+02   3.2940370e+00
   2.2493560e+02   2.7272260e+00
   2.2541770e+02   1.0419240e+00
   2.2589980e+02   1.7525000e-02
   2.2638190e+02   2.3317700e-01
   2.2686410e+02   2.1390500e-01
   2.2734620e+02   7.4597900e-01
   2.2782830e+02   1.4417570e+00
   2.2831040e+02   2.1024780e+00
   2.2879250e+02   2.6324460e+00
   2.2927460e+02   3.0623470e+00
   2.2975680e+02   3.3106920e+00
   2.3023890e+02   3.4060820e+00
   2.3072100e+02   3.3170090e+00
   2.3120310e+02   2.8411330e+00
   2.3168520e+02   1.4697570e+00
   2.3216730e+02   4.6351600e-01
   2.3264950e+02   6.6098800e-01
   2.3313160e+02   3.2640460e+00
   2.3361370e+02   4.2998730e+00
   2.3409580e+02   3.0005570e+00
   2.3457790e+02   2.1060900e-01
   2.3506000e+02   1.7053300e+00
   2.3554220e+02   2.5613780e+00
   2.3602430e+02   2.8435520e+00
   2.3650640e+02   2.6945570e+00
   2.3698850e+02   1.8117600e+00
   2.3747060e+02   1.1371920e+00
   2.3795270e+02   5.1889800e-01
   2.3843490e+02   1.5900400e-01
   2.3891700e+02   6.6819000e-01
   2.3939910e+02   2.6375120e+00
   2.3988120e+02   4.5929870e+00
   2.4036330e+02   5.9089660e+00
   2.4084540e+02   6.3547820e+00
   2.4132760e+02   6.7416990e+00
   2.4180970e+02   7.1644740e+00
   2.4229180e+02   7.4872890e+00
   2.4277390e+02   7.2876360e+00
   2.4325600e+02   5.8834230e+00
   2.4373810e+02   5.0148160e+00
   2.4422030e+02   5.4708710e+00
   2.4470240e+02   7.8679500e+00
   2.4518450e+02   9.8582840e+00
   2.4566660e+02   1.1373040e+01
   2.4614870e+02   1.2510640e+01
   2.4663080e+02   1.3416400e+01
   2.4711300e+02   1.3754850e+01
   2.4759510e+02   1.4421640e+01
   2.4807720e+02   1.5838680e+01
   2.4855930e+02   1.8349520e+01
   2.4904140e+02   2.0389340e+01
   2.4952350e+02   2.1925600e+01
   2.5000570e+02   2.3007270e+01
   2.5048780e+02   2.3685950e+01
   2.5096990e+02   2.3726190e+01
   2.5145200e+02   2.3768010e+01
   2.5193410e+02   2.3862090e+01
   2.5241620e+02   2.3815160e+01
   2.5289840e+02   2.4877860e+01
   2.5338050e+02   2.7698500e+01
   2.5386260e+02   3.1148530e+01
   2.5434470e+02   3.3392050e+01
   2.5482680e+02   3.3762280e+01
   2.5530890e+02   3.4357560e+01
   2.5579110e+02   3.5794640e+01
   2.5627320e+02   3.8168050e+01
   2.5675530e+02   4.0620150e+01
   2.5723740e+02   4.3135600e+01
   2.5771950e+02   4.5756650e+01
   2.5820170e+02   4.8531130e+01
   2.5868380e+02   5.1481800e+01
   2.5916590e+02   5.4598070e+01
   2.5964800e+02   5.7976590e+01
   2.6013010e+02   6.1604350e+01
   2.6061220e+02   6.5018930e+01
   2.6109440e+02   6.8071460e+01
   2.6157650e+02   7.1114220e+01
   2.6205860e+02   7.4569160e+01
   2.6254070e+02   7.8566760e+01
   2.6302280e+02   8.2570010e+01
   2.6350490e+02   8.6302570e+01
   2.6398710e+02   8.9831140e+01
   2.6446920e+02   9.4019040e+01
   2.6495130e+02   9.9048110e+01
   2.6543340e+02   1.0450250e+02
   2.6591550e+02   1.1013240e+02
   2.6639760e+02   1.1583510e+02
   2.6687980e+02   1.2167320e+02
   2.6736190e+02   1.2740380e+02
   2.6784400e+02   1.3320660e+02
   2.6832610e+02   1.4030010e+02
   2.6880820e+02   1.4913000e+02
   2.6929030e+02   1.5827750e+02
   2.6977250e+02   1.6610580e+02
   2.7025460e+02   1.7179120e+02
   2.7073670e+02   1.7959520e+02
   2.7121880e+02   1.9061850e+02
   2.7170090e+02   2.0401950e+02
   2.7218300e+02   2.1632510e+02
   2.7266520e+02   2.2688950e+02
   2.7314730e+02   2.3785140e+02
   2.7362940e+02   2.5105860e+02
   2.7411150e+02   2.6699480e+02
   2.7459360e+02   2.8265400e+02
   2.7507570e+02   2.9742430e+02
   2.7555790e+02   3.1206390e+02
   2.7604000e+02   3.2852980e+02
   2.7652210e+02   3.4717180e+02
   2.7700420e+02   3.6643990e+02
   2.7748630e+02   3.8510650e+02
   2.7796840e+02   4.0300300e+02
   2.7845060e+02   4.2258720e+02
   2.7893270e+02   4.4429090e+02
   2.7941480e+02   4.6746290e+02
   2.7989690e+02   4.9079860e+02
   2.8037900e+02   5.1427100e+02
   2.8086110e+02   5.3778120e+02
   2.8134330e+02   5.6136380e+02
   2.8182540e+02   5.8513240e+02
   2.8230750e+02   6.0833000e+02
   2.8278960e+02   6.3060530e+02
   2.8327170e+02   6.5353560e+02
   2.8375380e+02   6.8080050e+02
   2.8423600e+02   7.1260750e+02
   2.8471810e+02   7.4233720e+02
   2.8520020e+02   7.6511600e+02
   2.8568230e+02   7.8210160e+02
   2.8616440e+02   8.0479960e+02
   2.8664650e+02   8.3402770e+02
   2.8712870e+02   8.6519930e+02
   2.8761080e+02   8.9162420e+02
   2.8809290e+02   9.1362180e+02
   2.8857500e+02   9.3708260e+02
   2.8905710e+02   9.6498410e+02
   2.8953920e+02   9.9629070e+02
   2.9002140e+02   1.0264240e+03
   2.9050350e+02   1.0552230e+03
   2.9098560e+02   1.0825460e+03
   2.9146770e+02   1.1085230e+03
   2.9194980e+02   1.1332980e+03
   2.9243190e+02   1.1562620e+03
   2.9291410e+02   1.1775910e+03
   2.9339620e+02   1.1968230e+03
   2.9387830e+02   1.2130930e+03
   2.9436040e+02   1.2263290e+03
   2.9484250e+02   1.2365080e+03
   2.9532460e+02   1.2457530e+03
   2.9580680e+02   1.2524220e+03
   2.9628890e+02   1.2504930e+03
   2.9677100e+02   1.2369600e+03
   2.9725310e+02   1.2160730e+03
   2.9773520e+02   1.1965450e+03
   2.9821730e+02   1.1776360e+03
   2.9869950e+02   1.1517930e+03
   2.9918160e+02   1.1113010e+03
   2.9966370e+02   1.0601540e+03
   3.0014580e+02   1.0075450e+03
   3.0062790e+02   9.5460640e+02
   3.0111000e+02   9.0071840e+02
   3.0159220e+02   8.4464740e+02
   3.0207430e+02   7.8705950e+02
   3.0255640e+02   7.3092330e+02
   3.0303850e+02   6.7625850e+02
   3.0352060e+02   6.2439140e+02
   3.0400270e+02   5.7610080e+02
   3.0448490e+02   5.3198980e+02
   3.0496700e+02   4.9134340e+02
   3.0544910e+02   4.5486210e+02
   3.0593120e+02   4.2187970e+02
   3.0641330e+02   3.9079350e+02
   3.0689540e+02   3.6053420e+02
   3.0737760e+02   3.3187010e+02
   3.0785970e+02   3.0604820e+02
   3.0834180e+02   2.8293010e+02
   3.0882390e+02   2.6228880e+02
   3.0930600e+02   2.4479080e+02
   3.0978810e+02   2.2933610e+02
   3.1027030e+02   2.1474490e+02
   3.1075240e+02   2.0021300e+02
   3.1123450e+02   1.8637020e+02
   3.1171660e+02   1.7385050e+02
   3.1219870e+02   1.6264750e+02
   3.1268080e+02   1.5240320e+02
   3.1316300e+02   1.4311970e+02
   3.1364510e+02   1.3447970e+02
   3.1412720e+02   1.2607540e+02
   3.1460930e+02   1.1713190e+02
   3.1509140e+02   1.0911960e+02
   3.1557350e+02   1.0350950e+02
   3.1605570e+02   9.9857680e+01
   3.1653780e+02   9.5780960e+01
   3.1701990e+02   8.9380150e+01
   3.1750200e+02   8.2624010e+01
   3.1798410e+02   7.6856580e+01
   3.1846620e+02   7.2958630e+01
   3.1894840e+02   6.9596060e+01
   3.1943050e+02   6.6120830e+01
   3.1991260e+02   6.2827420e+01
   3.2039470e+02   6.0568310e+01
   3.2087680e+02   6.0910270e+01
   3.2135890e+02   6.1351220e+01
   3.2184110e+02   6.0539990e+01
   3.2232320e+02   5.7630840e+01
   3.2280530e+02   5.5182730e+01
   3.2328740e+02   5.3894040e+01
   3.2376950e+02   5.3331310e+01
   3.2425160e+02   5.2854580e+01
   3.2473380e+02   5.2345560e+01
   3.2521590e+02   5.1822320e+01
   3.2569800e+02   5.1267910e+01
   3.2618010e+02   5.0690610e+01
   3.2666220e+02   5.0190710e+01
   3.2714430e+02   4.9487430e+01
   3.2762650e+02   4.8944400e+01
   3.2810860e+02   4.8953340e+01
   3.2859070e+02   5.0722180e+01
   3.2907280e+02   5.1773650e+01
   3.2955490e+02   5.1470240e+01
   3.3003700e+02   4.9738910e+01
   3.3051920e+02   4.8243200e+01
   3.3100130e+02   4.6706150e+01
   3.3148340e+02   4.5717030e+01
   3.3196550e+02   4.5709850e+01
   3.3244760e+02   4.7221640e+01
   3.3292970e+02   4.8779940e+01
   3.3341190e+02   5.0286170e+01
   3.3389400e+02   5.1753200e+01
   3.3437610e+02   5.3281610e+01
   3.3485820e+02   5.5180230e+01
   3.3534030e+02   5.6572620e+01
   3.3582240e+02   5.6766490e+01
   3.3630460e+02   5.4910160e+01
   3.3678670e+02   5.4591790e+01
   3.3726880e+02   5.6698300e+01
   3.3775090e+02   5.9854030e+01
   3.3823300e+02   6.1031330e+01
   3.3871510e+02   5.9674660e+01
   3.3919730e+02   5.7661930e+01
   3.3967940e+02   5.5751970e+01
   3.4016150e+02   5.4028650e+01
   3.4064360e+02   5.2131740e+01
   3.4112570e+02   5.0133580e+01
   3.4160780e+02   4.7867200e+01
   3.4208990e+02   4.4900700e+01
   3.4257210e+02   4.1216830e+01
   3.4305420e+02   3.7896420e+01
   3.4353630e+02   3.5409610e+01
   3.4401840e+02   3.3527100e+01
   3.4450050e+02   3.1267290e+01
   3.4498260e+02   2.8616790e+01
   3.4546480e+02   2.5949570e+01
   3.4594690e+02   2.3735550e+01
   3.4642900e+02   2.1849400e+01
   3.4691110e+02   1.9622670e+01
   3.4739320e+02   1.6684170e+01
   3.4787530e+02   1.3616580e+01
   3.4835750e+02   1.1790000e+01
   3.4883960e+02   1.1125850e+01
   3.4932170e+02   1.0582200e+01
   3.4980380e+02   9.3456840e+00
   3.5028590e+02   7.7329560e+00
   3.5076800e+02   6.4988710e+00
   3.5125020e+02   5.7474820e+00
   3.5173230e+02   5.3318820e+00
   3.5221440e+02   5.2484050e+00
   3.5269650e+02   5.3604580e+00
   3.5317860e+02   5.3314930e+00
   3.5366070e+02   4.8260190e+00
   3.5414290e+02   4.1846390e+00
   3.5462500e+02   3.8950580e+00
   3.5510710e+02   3.9928440e+00
   3.5558920e+02   4.0670470e+00
   3.5607130e+02   3.5927700e+00
   3.5655340e+02   2.9369430e+00
   3.5703560e+02   2.6503600e+00
   3.5751770e+02   3.5332220e+00
   3.5799980e+02   4.3477900e+00
   3.5848190e+02   4.0549810e+00
   3.5896400e+02   2.8185580e+00
   3.5944610e+02   1.5563770e+00
   3.5992830e+02   5.8634600e-01
   3.6041040e+02   1.0580400e-01
   3.6089250e+02   5.1909600e-01
   3.6137460e+02   5.6567800e-01
   3.6185670e+02   5.3716300e-01
   3.6233880e+02   4.7238900e-01
   3.6282100e+02   4.0954600e-01
   3.6330310e+02   4.4284100e-01
   3.6378520e+02   7.3561900e-01
   3.6426730e+02   1.0226750e+00
   3.6474940e+02   1.1886020e+00
   3.6523150e+02   1.2096980e+00
   3.6571370e+02   1.1167680e+00
   3.6619580e+02   8.2446300e-01
   3.6667790e+02   4.7697100e-01
   3.6716000e+02   2.2123300e-01
   3.6764210e+02   1.0469100e-01
   3.6812420e+02   3.7696999e-02
   3.6860640e+02   1.3706000e-02
   3.6908850e+02   3.5930999e-02
   3.6957060e+02   7.1727999e-02
   3.7005270e+02   2.7510100e-01
   3.7053480e+02   3.7438600e-01
   3.7101690e+02   1.5542600e-01
   3.7149910e+02   8.3771900e-01
   3.7198120e+02   1.3674930e+00
   3.7246330e+02   1.2011910e+00
   3.7294540e+02   5.2032500e-01
   3.7342750e+02   8.4297001e-02
   3.7390960e+02   7.5656100e-01
   3.7439180e+02   1.1225470e+00
   3.7487390e+02   8.2315100e-01
   3.7535600e+02   4.8028900e-01
   3.7583810e+02   8.2183800e-01
   3.7632020e+02   1.8911000e-01
   3.7680230e+02   1.6490140e+00
   3.7728450e+02   2.1353950e+00
   3.7776660e+02   1.5010950e+00
   3.7824870e+02   6.6544000e-01
   3.7873080e+02   1.8453600e-01
   3.7921290e+02   1.0048370e+00
   3.7969500e+02   1.4385070e+00
   3.8017720e+02   1.4765740e+00
   3.8065930e+02   1.1884610e+00
   3.8114140e+02   3.9436300e-01
   3.8162350e+02   8.0586600e-01
   3.8210560e+02   1.5215300e+00
   3.8258770e+02   1.4366340e+00
   3.8306990e+02   9.5348400e-01
   3.8355200e+02   8.5724600e-01
   3.8403410e+02   1.1046830e+00
   3.8451620e+02   1.2798230e+00
   3.8499830e+02   9.8061400e-01
   3.8548040e+02   4.4938300e-01
   3.8596260e+02   2.9695900e-01
   3.8644470e+02   6.6314300e-01
   3.8692680e+02   9.7650100e-01
   3.8740890e+02   4.5019900e-01
   3.8789100e+02   5.8026100e-01
   3.8837310e+02   1.3520700e+00
   3.8885530e+02   1.2360920e+00
   3.8933740e+02   8.8415100e-01
   3.8981950e+02   1.0108070e+00
   3.9030160e+02   1.5933650e+00
   3.9078370e+02   2.0390850e+00
   3.9126580e+02   1.6446690e+00
   3.9174800e+02   1.0497210e+00
   3.9223010e+02   9.8031600e-01
   3.9271220e+02   2.2613410e+00
   3.9319430e+02   3.2399410e+00
   3.9367640e+02   2.9374080e+00
   3.9415850e+02   1.6846810e+00
   3.9464070e+02   4.3514600e-01
   3.9512280e+02   1.0739670e+00
   3.9560490e+02   2.0386770e+00
   3.9608700e+02   1.8784290e+00
   3.9656910e+02   8.6433001e-02
   3.9705120e+02   1.3632390e+00
   3.9753340e+02   2.0068890e+00
   3.9801550e+02   2.1389470e+00
   3.9849760e+02   2.1242940e+00
   3.9897970e+02   1.9229810e+00
   3.9946180e+02   1.6616330e+00
   3.9994390e+02   1.2564850e+00
   4.0042610e+02   7.0917500e-01
   4.0090820e+02   5.3261600e-01
   4.0139030e+02   1.1386220e+00
   4.0187240e+02   1.7442020e+00
   4.0235450e+02   1.7661780e+00
   4.0283660e+02   8.1794700e-01
   4.0331880e+02   1.9790600e-01
   4.0380090e+02   1.6930001e-02
   4.0428300e+02   1.9279100e-01
   4.0476510e+02   5.7336400e-01
   4.0524720e+02   1.2484820e+00
   4.0572930e+02   1.8697090e+00
   4.0621150e+02   2.3557010e+00
   4.0669360e+02   2.7124820e+00
   4.0717570e+02   2.6127590e+00
   4.0765780e+02   1.9403150e+00
   4.0813990e+02   1.1210250e+00
   4.0862200e+02   5.5478300e-01
   4.0910420e+02   2.4271400e-01
   4.0958630e+02   2.7740500e-01
   4.1006840e+02   7.7530700e-01
   4.1055050e+02   1.5643390e+00
   4.1103260e+02   2.3296550e+00
   4.1151470e+02   3.0694010e+00
   4.1199690e+02   3.6536940e+00
   4.1247900e+02   3.9930730e+00
   4.1296110e+02   4.1140860e+00
   4.1344320e+02   4.0406650e+00
   4.1392530e+02   3.7377360e+00
   4.1440740e+02   3.3877560e+00
   4.1488960e+02   3.1759530e+00
   4.1537170e+02   3.0674900e+00
   4.1585380e+02   2.9833180e+00
   4.1633590e+02   2.9815790e+00
   4.1681800e+02   2.9268040e+00
   4.1730010e+02   2.5424690e+00
   4.1778230e+02   1.8432270e+00
   4.1826440e+02   1.4618230e+00
   4.1874650e+02   2.0349850e+00
   4.1922860e+02   3.0265690e+00
   4.1971070e+02   3.8150060e+00
   4.2019280e+02   4.3619460e+00
   4.2067500e+02   4.7127270e+00
   4.2115710e+02   4.9167140e+00
   4.2163920e+02   4.9234580e+00
   4.2212130e+02   4.6209450e+00
   4.2260340e+02   3.3498270e+00
   4.2308550e+02   2.3248410e+00
   4.2356770e+02   2.1681440e+00
   4.2404980e+02   3.2659840e+00
   4.2453190e+02   4.0689740e+00
   4.2501400e+02   4.1648520e+00
   4.2549610e+02   4.0387880e+00
   4.2597820e+02   4.1995200e+00
   4.2646040e+02   5.0083350e+00
   4.2694250e+02   5.5749930e+00
   4.2742460e+02   5.7536540e+00
   4.2790670e+02   5.5699270e+00
   4.2838880e+02   5.2355800e+00
   4.2887090e+02   4.7019000e+00
   4.2935310e+02   4.1548190e+00
   4.2983520e+02   3.6358150e+00
   4.3031730e+02   3.1039310e+00
   4.3079940e+02   2.8669400e+00
   4.3128150e+02   2.9628140e+00
   4.3176360e+02   3.2456360e+00
   4.3224580e+02   3.6776240e+00
   4.3272790e+02   4.3277210e+00
   4.3321000e+02   4.6792680e+00
   4.3369210e+02   4.3264200e+00
   4.3417420e+02   3.4595180e+00
   4.3465630e+02   2.7865910e+00
   4.3513850e+02   2.3578070e+00
   4.3562060e+02   2.1780620e+00
   4.3610270e+02   2.2349320e+00
   4.3658480e+02   2.5061680e+00
   4.3706690e+02   2.9627040e+00
   4.3754900e+02   3.7051540e+00
   4.3803120e+02   4.3501360e+00
   4.3851330e+02   4.3178830e+00
   4.3899540e+02   3.8106990e+00
   4.3947750e+02   3.3543660e+00
   4.3995960e+02   3.5580790e+00
   4.4044170e+02   3.8402560e+00
   4.4092390e+02   3.5176960e+00
   4.4140600e+02   2.5255360e+00
   4.4188810e+02   1.6828990e+00
   4.4237020e+02   1.4843600e+00
   4.4285230e+02   1.7048150e+00
   4.4333440e+02   2.1255070e+00
   4.4381660e+02   3.0454180e+00
   4.4429870e+02   3.6477660e+00
   4.4478080e+02   3.5065160e+00
   4.4526290e+02   2.8950460e+00
   4.4574500e+02   2.4811940e+00
   4.4622710e+02   2.6356470e+00
   4.4670930e+02   2.7150990e+00
   4.4719140e+02   2.3533170e+00
   4.4767350e+02   1.2181240e+00
   4.4815560e+02   7.7869000e-01
   4.4863770e+02   1.5261120e+00
   4.4911980e+02   2.6288410e+00
   4.4960200e+02   3.2133100e+00
   4.5008410e+02   2.9053310e+00
   4.5056620e+02   2.9255330e+00
   4.5104830e+02   3.7144430e+00
   4.5153040e+02   4.9444580e+00
   4.5201250e+02   4.9689830e+00
   4.5249470e+02   3.3820800e+00
   4.5297680e+02   1.6821100e+00
   4.5345890e+02   7.6903200e-01
   4.5394100e+02   7.2919500e-01
   4.5442310e+02   1.0120580e+00
   4.5490520e+02   1.6332090e+00
   4.5538740e+02   2.1989100e+00
   4.5586950e+02   2.1836090e+00
   4.5635160e+02   1.6551320e+00
   4.5683370e+02   1.1286390e+00
   4.5731580e+02   7.6422500e-01
   4.5779790e+02   4.9345400e-01
   4.5828010e+02   7.6168001e-02
   4.5876220e+02   4.2482000e-01
   4.5924430e+02   6.0008200e-01
   4.5972640e+02   1.5838999e-02
   4.6020850e+02   9.6424100e-01
   4.6069060e+02   1.9282420e+00
   4.6117280e+02   2.8695030e+00
   4.6165490e+02   3.5358700e+00
   4.6213700e+02   3.7266770e+00
   4.6261910e+02   3.5431400e+00
   4.6310120e+02   3.1129760e+00
   4.6358330e+02   1.8613620e+00
   4.6406550e+02   9.2417500e-01
   4.6454760e+02   9.2597600e-01
   4.6502970e+02   1.7810550e+00
   4.6551180e+02   2.7393340e+00
   4.6599390e+02   4.2687300e+00
   4.6647600e+02   5.3275640e+00
   4.6695820e+02   5.2382430e+00
   4.6744030e+02   2.7854000e+00
   4.6792240e+02   1.3606150e+00
   4.6840450e+02   1.6393010e+00
   4.6888660e+02   2.7053450e+00
   4.6936870e+02   3.2910770e+00
   4.6985090e+02   3.2450680e+00
   4.7033300e+02   2.9446220e+00
   4.7081510e+02   2.3547130e+00
   4.7129720e+02   1.5289880e+00
   4.7177930e+02   1.0221250e+00
   4.7226140e+02   8.3092500e-01
   4.7274360e+02   9.5187400e-01
   4.7322570e+02   1.6367870e+00
   4.7370780e+02   2.9082950e+00
   4.7418990e+02   3.3606340e+00
   4.7467200e+02   2.7897000e+00
   4.7515410e+02   1.6594430e+00
   4.7563630e+02   2.4404500e-01
   4.7611840e+02   1.3036960e+00
   4.7660050e+02   1.9584580e+00
   4.7708260e+02   6.9018900e-01
   4.7756470e+02   1.3355220e+00
   4.7804680e+02   2.0077670e+00
   4.7852900e+02   1.4705920e+00
   4.7901110e+02   1.0462910e+00
   4.7949320e+02   2.1814960e+00
   4.7997530e+02   3.7326850e+00
   4.8045740e+02   4.2464870e+00
   4.8093950e+02   3.2192340e+00
   4.8142170e+02   1.9566080e+00
   4.8190380e+02   1.0470770e+00
   4.8238590e+02   4.7689100e-01
   4.8286800e+02   2.4771900e-01
   4.8335010e+02   7.4464800e-01
   4.8383220e+02   1.2095150e+00
   4.8431440e+02   1.3322530e+00
   4.8479650e+02   1.1262860e+00
   4.8527860e+02   9.5518900e-01
   4.8576070e+02   9.4247100e-01
   4.8624280e+02   9.2165400e-01
   4.8672490e+02   7.9120600e-01
   4.8720710e+02   4.0455600e-01
   4.8768920e+02   2.2994200e-01
   4.8817130e+02   3.9843400e-01
   4.8865340e+02   6.8729800e-01
   4.8913550e+02   7.0301400e-01
   4.8961760e+02   2.3199800e-01
   4.9009980e+02   1.7020000e-01
   4.9058190e+02   9.1141500e-01
   4.9106400e+02   2.2202870e+00
   4.9154610e+02   2.8705290e+00
   4.9202820e+02   2.8167110e+00
   4.9251030e+02   2.4668960e+00
   4.9299250e+02   2.0209350e+00
   4.9347460e+02   1.4979550e+00
   4.9395670e+02   9.4963100e-01
   4.9443880e+02   3.2449000e-01
   4.9492090e+02   6.6246003e-02
   4.9540300e+02   4.4643400e-01
   4.9588520e+02   1.4772640e+00
   4.9636730e+02   2.0439190e+00
   4.9684940e+02   1.3000070e+00
   4.9733150e+02   3.8624600e-01
   4.9781360e+02   5.2764100e-01
   4.9829570e+02   1.4990620e+00
   4.9877790e+02   2.3656880e+00
   4.9926000e+02   2.6232490e+00
   4.9974210e+02   2.6128920e+00
   5.0022420e+02   2.6107640e+00
   5.0070630e+02   2.7128520e+00
   5.0118840e+02   2.5596050e+00
   5.0167060e+02   1.4994280e+00
   5.0215270e+02   3.6979300e-01
   5.0263480e+02   3.9799001e-02
   5.0311690e+02   1.8324890e+00
   5.0359900e+02   2.9710350e+00
   5.0408110e+02   2.8441280e+00
   5.0456330e+02   1.8165250e+00
   5.0504540e+02   1.2200010e+00
   5.0552750e+02   1.1577000e+00
   5.0600960e+02   1.3674240e+00
   5.0649170e+02   1.9300310e+00
   5.0697380e+02   2.9419670e+00
   5.0745600e+02   3.0173720e+00
   5.0793810e+02   1.8903880e+00
   5.0842020e+02   5.3993200e-01
   5.0890230e+02   2.3964001e-02
   5.0938440e+02   1.6293000e-01
   5.0986650e+02   4.8265500e-01
   5.1034870e+02   8.1160700e-01
   5.1083080e+02   1.2366750e+00
   5.1131290e+02   2.1186180e+00
   5.1179500e+02   3.3190500e+00
   5.1227720e+02   4.1616290e+00
   5.1275930e+02   4.1761820e+00
   5.1324140e+02   3.6936380e+00
   5.1372350e+02   2.9697380e+00
   5.1420560e+02   2.0320780e+00
   5.1468770e+02   1.2309570e+00
   5.1516990e+02   7.0274400e-01
   5.1565200e+02   4.5922500e-01
   5.1613410e+02   5.6547500e-01
   5.1661620e+02   1.2891160e+00
   5.1709830e+02   1.8276980e+00
   5.1758040e+02   1.7196240e+00
   5.1806260e+02   1.3238180e+00
   5.1854470e+02   1.2572060e+00
   5.1902680e+02   2.2674220e+00
   5.1950890e+02   2.9055180e+00
   5.1999100e+02   2.6058770e+00
   5.2047310e+02   1.4598010e+00
   5.2095530e+02   9.5478400e-01
   5.2143740e+02   1.3891720e+00
   5.2191950e+02   2.0234220e+00
   5.2240160e+02   2.4820480e+00
   5.2288370e+02   2.7502820e+00
   5.2336580e+02   2.9171750e+00
   5.2384800e+02   2.9965320e+00
   5.2433010e+02   2.9483490e+00
   5.2481220e+02   2.5587580e+00
   5.2529430e+02   1.8701520e+00
   5.2577640e+02   1.6068460e+00
   5.2625850e+02   2.1517220e+00
   5.2674070e+02   3.0169070e+00
   5.2722280e+02   3.1597290e+00
   5.2770490e+02   2.7277450e+00
   5.2818700e+02   2.5747380e+00
   5.2866910e+02   3.8242570e+00
   5.2915120e+02   5.3223110e+00
   5.2963340e+02   5.5459820e+00
   5.3011550e+02   4.3546910e+00
   5.3059760e+02   3.1008610e+00
   5.3107970e+02   2.3678320e+00
   5.3156180e+02   2.0676230e+00
   5.3204390e+02   2.1672290e+00
   5.3252610e+02   3.3291320e+00
   5.3300820e+02   3.9238430e+00
   5.3349030e+02   2.7899930e+00
   5.3397240e+02   8.2524500e-01
   5.3445450e+02   5.9006002e-02
   5.3493660e+02   2.3389740e+00
   5.3541880e+02   4.0994380e+00
   5.3590090e+02   4.2945400e+00
   5.3638300e+02   2.9723240e+00
   5.3686510e+02   2.2673070e+00
   5.3734720e+02   2.4151120e+00
   5.3782930e+02   2.7173350e+00
   5.3831150e+02   2.7271580e+00
   5.3879360e+02   2.4281960e+00
   5.3927570e+02   2.0371210e+00
   5.3975780e+02   1.4986340e+00
   5.4023990e+02   1.0631710e+00
   5.4072200e+02   1.1425860e+00
   5.4120420e+02   1.6605030e+00
   5.4168630e+02   2.1941950e+00
   5.4216840e+02   2.6729510e+00
   5.4265050e+02   3.0374110e+00
   5.4313260e+02   3.0819090e+00
   5.4361470e+02   2.9025800e+00
   5.4409690e+02   2.8712350e+00
   5.4457900e+02   3.3969960e+00
   5.4506110e+02   4.0332450e+00
   5.4554320e+02   4.4906270e+00
   5.4602530e+02   4.7509570e+00
   5.4650740e+02   4.6501310e+00
   5.4698960e+02   3.6865310e+00
   5.4747170e+02   2.5747910e+00
   5.4795380e+02   1.8886910e+00
   5.4843590e+02   1.7753300e+00
   5.4891800e+02   2.0342670e+00
   5.4940010e+02   3.0386770e+00
   5.4988230e+02   4.2847900e+00
   5.5036440e+02   4.8873980e+00
   5.5084650e+02   4.5311050e+00
   5.5132860e+02   4.1276400e+00
   5.5181070e+02   3.8697240e+00
   5.5229280e+02   3.7493740e+00
   5.5277500e+02   3.7999460e+00
   5.5325710e+02   4.1045110e+00
   5.5373920e+02   4.1846160e+00
   5.5422130e+02   3.5055350e+00
   5.5470340e+02   2.2541280e+00
   5.5518550e+02   1.5156900e+00
   5.5566770e+02   1.3736420e+00
   5.5614980e+02   1.5025750e+00
   5.5663190e+02   1.5742800e+00
   5.5711400e+02   1.6605610e+00
   5.5759610e+02   1.9335560e+00
   5.5807820e+02   2.5526730e+00
   5.5856040e+02   3.1875270e+00
   5.5904250e+02   3.6261670e+00
   5.5952460e+02   3.8744660e+00
   5.6000670e+02   3.9388660e+00
   5.6048880e+02   3.8001020e+00
   5.6097090e+02   3.4960370e+00
   5.6145310e+02   2.9125630e+00
   5.6193520e+02   2.0533410e+00
   5.6241730e+02   1.5067370e+00
   5.6289940e+02   1.3121570e+00
   5.6338150e+02   1.4806330e+00
   5.6386360e+02   2.1379050e+00
   5.6434580e+02   3.7827030e+00
   5.6482790e+02   4.4827460e+00
   5.6531000e+02   3.8724440e+00
   5.6579210e+02   2.7888150e+00
   5.6627420e+02   2.4296990e+00
   5.6675630e+02   2.9135550e+00
   5.6723850e+02   2.8347700e+00
   5.6772060e+02   1.5952720e+00
   5.6820270e+02   1.7900000e-04
   5.6868480e+02   8.0654003e-02
   5.6916690e+02   1.6312100e+00
   5.6964900e+02   3.1106110e+00
   5.7013120e+02   3.8093150e+00
   5.7061330e+02   3.9395290e+00
   5.7109540e+02   3.6094860e+00
   5.7157750e+02   2.8531760e+00
   5.7205960e+02   2.1795160e+00
   5.7254170e+02   1.8568730e+00
   5.7302390e+02   1.7860910e+00
   5.7350600e+02   1.9501230e+00
   5.7398810e+02   2.5608860e+00
   5.7447020e+02   2.9781270e+00
   5.7495230e+02   2.8342510e+00
   5.7543440e+02   2.4284480e+00
   5.7591660e+02   2.1416440e+00
   5.7639870e+02   2.0817410e+00
   5.7688080e+02   2.0340730e+00
   5.7736290e+02   1.8610610e+00
   5.7784500e+02   1.6345670e+00
   5.7832710e+02   1.8490300e+00
   5.7880930e+02   2.7524110e+00
   5.7929140e+02   3.4377630e+00
   5.7977350e+02   3.4920230e+00
   5.8025560e+02   2.9905470e+00
   5.8073770e+02   2.7154310e+00
   5.8121980e+02   2.7070240e+00
   5.8170200e+02   2.6838490e+00
   5.8218410e+02   2.1999780e+00
   5.8266620e+02   1.5308460e+00
   5.8314830e+02   1.4261470e+00
   5.8363040e+02   2.0764350e+00
   5.8411250e+02   2.8113250e+00
   5.8459470e+02   3.0715480e+00
   5.8507680e+02   3.0459330e+00
   5.8555890e+02   3.0019490e+00
   5.8604100e+02   2.9498100e+00
   5.8652310e+02   2.9893300e+00
   5.8700520e+02   3.2613980e+00
   5.8748730e+02   3.6655650e+00
   5.8796940e+02   3.9574620e+00
   5.8845150e+02   4.0933720e+00
   5.8893370e+02   4.0324250e+00
   5.8941580e+02   3.7159350e+00
   5.8989790e+02   3.1661870e+00
   5.9038000e+02   3.1049350e+00
   5.9086210e+02   3.8120190e+00
   5.9134420e+02   4.4415130e+00
   5.9182640e+02   4.4147640e+00
   5.9230850e+02   3.6818540e+00
   5.9279060e+02   3.2591510e+00
   5.9327270e+02   3.2359050e+00
   5.9375480e+02   3.3072930e+00
   5.9423690e+02   3.1290250e+00
   5.9471910e+02   2.6976660e+00
   5.9520120e+02   2.2811780e+00
   5.9568330e+02   1.8757400e+00
   5.9616540e+02   1.6246110e+00
   5.9664750e+02   1.8813780e+00
   5.9712960e+02   2.4132650e+00
   5.9761180e+02   2.7290120e+00
   5.9809390e+02   2.5279960e+00
   5.9857600e+02   2.1628490e+00
   5.9905810e+02   1.6982960e+00
   5.9954020e+02   1.1869350e+00
   6.0002230e+02   9.3903400e-01
   6.0050450e+02   1.1781270e+00
   6.0098660e+02   1.5700450e+00
   6.0146870e+02   2.0194470e+00
   6.0195080e+02   2.6069530e+00
   6.0243290e+02   2.8808900e+00
   6.0291500e+02   2.7412190e+00
   6.0339720e+02   2.4232600e+00
   6.0387930e+02   2.1404950e+00
   6.0436140e+02   1.9043730e+00
   6.0484350e+02   1.5120540e+00
   6.0532560e+02   8.6119800e-01
   6.0580770e+02   2.3763700e-01
   6.0628990e+02   1.7009400e-01
   6.0677200e+02   5.6246900e-01
   6.0725410e+02   9.6838400e-01
   6.0773620e+02   1.1903150e+00
   6.0821830e+02   1.3776280e+00
   6.0870040e+02   1.8396570e+00
   6.0918260e+02   2.4485890e+00
   6.0966470e+02   2.7452200e+00
   6.1014680e+02   2.2486040e+00
   6.1062890e+02   1.5723150e+00
   6.1111100e+02   1.0286940e+00
   6.1159310e+02   6.3075600e-01
   6.1207530e+02   4.4797900e-01
   6.1255740e+02   5.9213600e-01
   6.1303950e+02   8.8208000e-01
   6.1352160e+02   1.2448390e+00
   6.1400370e+02   1.8323060e+00
   6.1448580e+02   2.0831530e+00
   6.1496800e+02   1.8739090e+00
   6.1545010e+02   1.4944920e+00
   6.1593220e+02   1.2168730e+00
   6.1641430e+02   1.0296780e+00
   6.1689640e+02   1.2470470e+00
   6.1737850e+02   2.1395420e+00
   6.1786070e+02   3.0675890e+00
   6.1834280e+02   2.6454770e+00
   6.1882490e+02   1.1926460e+00
   6.1930700e+02   4.5391001e-02
   6.1978910e+02   4.8255999e-02
   6.2027120e+02   3.7313500e-01
   6.2075340e+02   1.0280460e+00
   6.2123550e+02   1.8137890e+00
   6.2171760e+02   2.2228810e+00
   6.2219970e+02   1.5595630e+00
   6.2268180e+02   8.1791300e-01
   6.2316390e+02   6.4275700e-01
   6.2364610e+02   1.2050400e+00
   6.2412820e+02   1.4961780e+00
   6.2461030e+02   1.2958110e+00
   6.2509240e+02   9.0186700e-01
   6.2557450e+02   4.4192100e-01
   6.2605660e+02   2.5517300e-01
   6.2653880e+02   5.0513800e-01
   6.2702090e+02   1.8141600e-01
   6.2750300e+02   4.0148900e-01
   6.2798510e+02   7.8978700e-01
   6.2846720e+02   9.9712000e-01
   6.2894930e+02   1.4813840e+00
   6.2943150e+02   2.6063000e+00
   6.2991360e+02   3.5871510e+00
   6.3039570e+02   2.8397290e+00
   6.3087780e+02   8.7782700e-01
   6.3135990e+02   7.5392500e-01
   6.3184200e+02   1.1236570e+00
   6.3232420e+02   1.0252950e+00
   6.3280630e+02   9.5335800e-01
   6.3328840e+02   9.1208300e-01
   6.3377050e+02   8.6290000e-01
   6.3425260e+02   1.0418890e+00
   6.3473470e+02   9.9453400e-01
   6.3521690e+02   2.4504500e-01
   6.3569900e+02   1.4981460e+00
   6.3618110e+02   2.0666730e+00
   6.3666320e+02   6.9687700e-01
   6.3714530e+02   8.8604400e-01
   6.3762740e+02   1.3734970e+00
   6.3810960e+02   5.8144000e-01
   6.3859170e+02   2.4498001e-02
   6.3907380e+02   3.8482300e-01
   6.3955590e+02   5.3746400e-01
   6.4003800e+02   4.2453400e-01
   6.4052010e+02   1.1955300e-01
   6.4100230e+02   3.8067002e-02
   6.4148440e+02   8.4259003e-02
   6.4196650e+02   2.8744900e-01
   6.4244860e+02   3.0060200e-01
   6.4293070e+02   2.3594700e-01
   6.4341280e+02   3.3609400e-01
   6.4389500e+02   1.2254410e+00
   6.4437710e+02   1.7982900e+00
   6.4485920e+02   1.1641540e+00
   6.4534130e+02   3.7643800e-01
   6.4582340e+02   1.2191540e+00
   6.4630550e+02   2.9737900e-01
   6.4678770e+02   5.2872800e-01
   6.4726980e+02   5.5239900e-01
   6.4775190e+02   2.7072500e-01
   6.4823400e+02   5.0514200e-01
   6.4871610e+02   3.2080000e-03
   6.4919820e+02   6.7430900e-01
   6.4968040e+02   1.2096980e+00
   6.5016250e+02   1.5818520e+00
   6.5064460e+02   1.3425790e+00
   6.5112670e+02   3.7661700e-01
   6.5160880e+02   4.4340500e-01
   6.5209090e+02   2.4225600e-01
   6.5257310e+02   1.6109810e+00
   6.5305520e+02   2.0925870e+00
   6.5353730e+02   8.9937200e-01
   6.5401940e+02   2.4776500e-01
   6.5450150e+02   1.9257000e-01
   6.5498360e+02   5.5239900e-01
   6.5546580e+02   1.2309990e+00
   6.5594790e+02   1.9055100e+00
   6.5643000e+02   2.1956410e+00
   6.5691210e+02   1.6560440e+00
   6.5739420e+02   6.9363000e-01
   6.5787630e+02   4.7554400e-01
   6.5835850e+02   1.3632010e+00
   6.5884060e+02   2.1402660e+00
   6.5932270e+02   2.3823320e+00
   6.5980480e+02   2.2045710e+00
   6.6028690e+02   2.1693040e+00
   6.6076900e+02   2.2775190e+00
   6.6125120e+02   2.4821820e+00
   6.6173330e+02   2.8475720e+00
   6.6221540e+02   3.2573780e+00
   6.6269750e+02   3.4572870e+00
   6.6317960e+02   3.4432260e+00
   6.6366170e+02   3.4045450e+00
   6.6414390e+02   3.5020330e+00
   6.6462600e+02   3.6159670e+00
   6.6510810e+02   3.6795270e+00
   6.6559020e+02   3.7471390e+00
   6.6607230e+02   3.5348240e+00
   6.6655440e+02   2.4242820e+00
   6.6703660e+02   1.3292430e+00
   6.6751870e+02   1.1216160e+00
   6.6800080e+02   2.4162670e+00
   6.6848290e+02   3.3339540e+00
   6.6896500e+02   3.7309380e+00
   6.6944710e+02   3.7517090e+00
   6.6992930e+02   3.4968030e+00
   6.7041140e+02   2.9605260e+00
   6.7089350e+02   2.6853600e+00
   6.7137560e+02   2.8983350e+00
   6.7185770e+02   3.3166350e+00
   6.7233980e+02   3.3588100e+00
   6.7282200e+02   3.1822430e+00
   6.7330410e+02   3.3214000e+00
   6.7378620e+02   4.6280440e+00
   6.7426830e+02   5.8500400e+00
   6.7475040e+02   5.8366240e+00
   6.7523250e+02   4.8395960e+00
   6.7571470e+02   4.1742860e+00
   6.7619680e+02   4.5548900e+00
   6.7667890e+02   5.0622290e+00
   6.7716100e+02   5.3230060e+00
   6.7764310e+02   5.3277890e+00
   6.7812520e+02   5.1969340e+00
   6.7860740e+02   4.7148550e+00
   6.7908950e+02   4.4873810e+00
   6.7957160e+02   5.0494230e+00
   6.8005370e+02   6.4054340e+00
   6.8053580e+02   7.4267880e+00
   6.8101790e+02   8.0908970e+00
   6.8150010e+02   8.4211270e+00
   6.8198220e+02   8.1088100e+00
   6.8246430e+02   7.5301670e+00
   6.8294640e+02   7.5936470e+00
   6.8342850e+02   8.6584740e+00
   6.8391060e+02   9.5215000e+00
   6.8439280e+02   8.8714710e+00
   6.8487490e+02   7.7687000e+00
   6.8535700e+02   7.4419630e+00
   6.8583910e+02   8.8422200e+00
   6.8632120e+02   1.0213080e+01
   6.8680330e+02   1.1391150e+01
   6.8728550e+02   1.2357500e+01
   6.8776760e+02   1.3036170e+01
   6.8824970e+02   1.3296590e+01
   6.8873180e+02   1.3633640e+01
   6.8921390e+02   1.4153000e+01
   6.8969600e+02   1.4746940e+01
   6.9017820e+02   1.4944880e+01
   6.9066030e+02   1.4777020e+01
   6.9114240e+02   1.4856480e+01
   6.9162450e+02   1.5610290e+01
   6.9210660e+02   1.6680910e+01
   6.9258870e+02   1.7678320e+01
   6.9307090e+02   1.8610570e+01
   6.9355300e+02   1.9291020e+01
   6.9403510e+02   1.9157420e+01
   6.9451720e+02   1.9080000e+01
   6.9499930e+02   1.9621770e+01
   6.9548140e+02   2.0869500e+01
   6.9596360e+02   2.2068310e+01
   6.9644570e+02   2.2784220e+01
   6.9692780e+02   2.3682690e+01
   6.9740990e+02   2.5243180e+01
   6.9789200e+02   2.7699970e+01
   6.9837410e+02   2.9051430e+01
   6.9885630e+02   2.8955090e+01
   6.9933840e+02   2.8801850e+01
   6.9982050e+02   2.9879810e+01
   7.0030260e+02   3.1970810e+01
   7.0078470e+02   3.4129040e+01
   7.0126680e+02   3.6250910e+01
   7.0174900e+02   3.8485570e+01
   7.0223110e+02   4.0837280e+01
   7.0271320e+02   4.3439560e+01
   7.0319530e+02   4.6523870e+01
   7.0367740e+02   5.0497980e+01
   7.0415950e+02   5.4290130e+01
   7.0464170e+02   5.6969960e+01
   7.0512380e+02   5.9342450e+01
   7.0560590e+02   6.2520770e+01
   7.0608800e+02   6.7000150e+01
   7.0657010e+02   7.1660340e+01
   7.0705220e+02   7.6425850e+01
   7.0753440e+02   8.1267550e+01
   7.0801650e+02   8.5804980e+01
   7.0849860e+02   8.9922420e+01
   7.0898070e+02   9.5257720e+01
   7.0946280e+02   1.0259490e+02
   7.0994490e+02   1.1104180e+02
   7.1042710e+02   1.1898810e+02
   7.1090920e+02   1.2644370e+02
   7.1139130e+02   1.3374600e+02
   7.1187340e+02   1.4095330e+02
   7.1235550e+02   1.4803110e+02
   7.1283760e+02   1.5478310e+02
   7.1331980e+02   1.6136470e+02
   7.1380190e+02   1.6842100e+02
   7.1428400e+02   1.7625770e+02
   7.1476610e+02   1.8459310e+02
   7.1524820e+02   1.9332620e+02
   7.1573030e+02   2.0244460e+02
   7.1621250e+02   2.1174170e+02
   7.1669460e+02   2.2131350e+02
   7.1717670e+02   2.3100260e+02
   7.1765880e+02   2.4055710e+02
   7.1814090e+02   2.5006700e+02
   7.1862300e+02   2.5970300e+02
   7.1910520e+02   2.6960230e+02
   7.1958730e+02   2.7967210e+02
   7.2006940e+02   2.9096170e+02
   7.2055150e+02   3.0208060e+02
   7.2103360e+02   3.1141620e+02
   7.2151570e+02   3.1863490e+02
   7.2199790e+02   3.2462830e+02
   7.2248000e+02   3.3102690e+02
   7.2296210e+02   3.3566490e+02
   7.2344420e+02   3.3680340e+02
   7.2392630e+02   3.3386010e+02
   7.2440840e+02   3.2822980e+02
   7.2489060e+02   3.1974030e+02
   7.2537270e+02   3.0866640e+02
   7.2585480e+02   2.9493330e+02
   7.2633690e+02   2.7830540e+02
   7.2681900e+02   2.6094350e+02
   7.2730110e+02   2.4318420e+02
   7.2778330e+02   2.2499190e+02
   7.2826540e+02   2.0592150e+02
   7.2874750e+02   1.8678200e+02
   7.2922960e+02   1.6950650e+02
   7.2971170e+02   1.5505450e+02
   7.3019380e+02   1.4180510e+02
   7.3067600e+02   1.2869500e+02
   7.3115810e+02   1.1622790e+02
   7.3164020e+02   1.0500570e+02
   7.3212230e+02   9.5548410e+01
   7.3260440e+02   8.6956330e+01
   7.3308650e+02   7.9135700e+01
   7.3356870e+02   7.2109680e+01
   7.3405080e+02   6.5878520e+01
   7.3453290e+02   6.0385320e+01
   7.3501500e+02   5.5599090e+01
   7.3549710e+02   5.1612500e+01
   7.3597920e+02   4.8232800e+01
   7.3646140e+02   4.5163090e+01
   7.3694350e+02   4.2352320e+01
   7.3742560e+02   3.9541880e+01
   7.3790770e+02   3.6409790e+01
   7.3838980e+02   3.3359530e+01
   7.3887190e+02   3.0818810e+01
   7.3935410e+02   2.8702080e+01
   7.3983620e+02   2.6821090e+01
   7.4031830e+02   2.5039250e+01
   7.4080040e+02   2.3269860e+01
   7.4128250e+02   2.1416810e+01
   7.4176460e+02   1.9555210e+01
   7.4224680e+02   1.8399770e+01
   7.4272890e+02   1.8245770e+01
   7.4321100e+02   1.8060630e+01
   7.4369310e+02   1.7306320e+01
   7.4417520e+02   1.6110290e+01
   7.4465730e+02   1.5302160e+01
   7.4513950e+02   1.4872340e+01
   7.4562160e+02   1.4246850e+01
   7.4610370e+02   1.2739940e+01
   7.4658580e+02   1.0972290e+01
   7.4706790e+02   9.6763150e+00
   7.4755000e+02   8.8838840e+00
   7.4803220e+02   8.4312060e+00
   7.4851430e+02   8.5913890e+00
   7.4899640e+02   8.7933850e+00
   7.4947850e+02   8.6819380e+00
   7.4996060e+02   8.2418330e+00
   7.5044270e+02   7.8172420e+00
   7.5092490e+02   7.2822420e+00
   7.5140700e+02   6.6993030e+00
   7.5188910e+02   6.0689810e+00
   7.5237120e+02   5.3978350e+00
   7.5285330e+02   5.2912140e+00
   7.5333540e+02   5.7436220e+00
   7.5381760e+02   6.2182270e+00
   7.5429970e+02   6.1867640e+00
   7.5478180e+02   5.8235440e+00
   7.5526390e+02   5.4210360e+00
   7.5574600e+02   5.0578960e+00
   7.5622810e+02   4.4527550e+00
   7.5671030e+02   2.9783060e+00
   7.5719240e+02   1.4848630e+00
   7.5767450e+02   7.3585900e-01
   7.5815660e+02   1.1259960e+00
   7.5863870e+02   1.7316670e+00
   7.5912080e+02   2.7873460e+00
   7.5960300e+02   3.7597270e+00
   7.6008510e+02   4.0426290e+00
   7.6056720e+02   3.6165960e+00
   7.6104930e+02   3.1470720e+00
   7.6153140e+02   2.7122380e+00
   7.6201350e+02   2.2230420e+00
   7.6249570e+02   1.3233990e+00
   7.6297780e+02   3.4504300e-01
   7.6345990e+02   6.1039001e-02
   7.6394200e+02   4.1124300e-01
   7.6442410e+02   1.1421850e+00
   7.6490630e+02   2.2829550e+00
   7.6538840e+02   3.2916340e+00
   7.6587050e+02   3.4870830e+00
   7.6635260e+02   1.7322430e+00
   7.6683470e+02   7.0118000e-01
   7.6731680e+02   7.4504100e-01
   7.6779900e+02   1.3351210e+00
   7.6828110e+02   1.7494620e+00
   7.6876320e+02   1.9909740e+00
   7.6924530e+02   1.9611320e+00
   7.6972740e+02   1.5799220e+00
   7.7020950e+02   1.0739020e+00
   7.7069170e+02   7.2333900e-01
   7.7117380e+02   4.9864200e-01
   7.7165590e+02   3.3462500e-01
   7.7213800e+02   2.5424200e-01
   7.7262010e+02   1.6921600e-01
   7.7310220e+02   1.2165000e-02
   7.7358440e+02   1.8315900e-01
   7.7406650e+02   3.6168700e-01
   7.7454860e+02   6.5356100e-01
   7.7503070e+02   7.1146800e-01
   7.7551280e+02   3.8945800e-01
   7.7599490e+02   1.2330200e-01
   7.7647710e+02   4.2128400e-01
   7.7695920e+02   5.0529900e-01
   7.7744130e+02   4.4680000e-01
   7.7792340e+02   1.5272500e-01
   7.7840550e+02   1.3133200e-01
   7.7888760e+02   7.2734997e-02
   7.7936980e+02   5.8842800e-01
   7.7985190e+02   9.6258900e-01
   7.8033400e+02   8.7424900e-01
   7.8081610e+02   7.1837600e-01
   7.8129820e+02   6.9250900e-01
   7.8178030e+02   7.3491300e-01
   7.8226250e+02   6.7114300e-01
   7.8274460e+02   4.8379500e-01
   7.8322670e+02   1.8513500e-01
   7.8370880e+02   3.3749800e-01
   7.8419090e+02   9.0805400e-01
   7.8467300e+02   9.4033800e-01
   7.8515520e+02   4.4063600e-01
   7.8563730e+02   8.8160001e-03
   7.8611940e+02   1.7923700e-01
   7.8660150e+02   1.7190600e-01
   7.8708360e+02   1.7262001e-02
   7.8756570e+02   2.0492900e-01
   7.8804790e+02   2.7019900e-01
   7.8853000e+02   1.1512000e-01
   7.8901210e+02   4.8799100e-01
   7.8949420e+02   7.2222500e-01
   7.8997630e+02   7.8305800e-01
   7.9045840e+02   5.2853000e-01
   7.9094060e+02   3.9443600e-01
   7.9142270e+02   9.1155600e-01
   7.9190480e+02   5.7782700e-01
   7.9238690e+02   2.8725400e-01
   7.9286900e+02   6.2158600e-01
   7.9335110e+02   4.6005200e-01
   7.9383330e+02   2.9672600e-01
   7.9431540e+02   3.3763900e-01
   7.9479750e+02   5.2283500e-01
   7.9527960e+02   1.0502660e+00
   7.9576170e+02   1.7041700e+00
   7.9624380e+02   1.7740630e+00
   7.9672600e+02   3.2368001e-02
   7.9720810e+02   1.3638190e+00
   7.9769020e+02   1.3161130e+00
   7.9817230e+02   1.9319900e-01
   7.9865440e+02   5.8455300e-01
   7.9913650e+02   9.3456300e-01
   7.9961870e+02   1.1412090e+00
   8.0010080e+02   1.2766340e+00
   8.0058290e+02   1.3466110e+00
   8.0106500e+02   1.3813130e+00
   8.0154710e+02   1.3733980e+00
   8.0202920e+02   1.2733690e+00
   8.0251140e+02   9.2208500e-01
   8.0299350e+02   5.7080100e-01
   8.0347560e+02   3.9991800e-01
   8.0395770e+02   4.1573700e-01
   8.0443980e+02   6.4006400e-01
   8.0492190e+02   1.5770110e+00
   8.0540410e+02   2.1608920e+00
   8.0588620e+02   2.0409970e+00
   8.0636830e+02   1.3399620e+00
   8.0685040e+02   3.8409800e-01
   8.0733250e+02   1.0224000e+00
   8.0781460e+02   1.6594490e+00
   8.0829680e+02   6.6999800e-01
   8.0877890e+02   1.0369380e+00
   8.0926100e+02   1.1721150e+00
   8.0974310e+02   1.2608000e-01
   8.1022520e+02   5.0904800e-01
   8.1070730e+02   7.4655900e-01
   8.1118950e+02   2.0812230e+00
   8.1167160e+02   2.2040140e+00
   8.1215370e+02   1.4247700e+00
   8.1263580e+02   9.4283700e-01
   8.1311790e+02   1.0569500e+00
   8.1360000e+02   1.3508640e+00
   8.1408220e+02   1.9239350e+00
   8.1456430e+02   2.5583420e+00
   8.1504640e+02   2.2151760e+00
   8.1552850e+02   8.6949900e-01
   8.1601060e+02   1.2920000e-02
   8.1649270e+02   5.1397300e-01
   8.1697490e+02   1.5797350e+00
   8.1745700e+02   2.1605610e+00
   8.1793910e+02   2.3138010e+00
   8.1842120e+02   2.2213710e+00
   8.1890330e+02   1.5731930e+00
   8.1938540e+02   1.1030540e+00
   8.1986760e+02   1.2703290e+00
   8.2034970e+02   1.8737180e+00
   8.2083180e+02   2.2097780e+00
   8.2131390e+02   2.1923870e+00
   8.2179600e+02   2.0872570e+00
   8.2227810e+02   1.9090120e+00
   8.2276030e+02   1.7261120e+00
   8.2324240e+02   1.7995410e+00
   8.2372450e+02   2.0637020e+00
   8.2420660e+02   2.0707020e+00
   8.2468870e+02   1.3411030e+00
   8.2517080e+02   6.5200400e-01
   8.2565300e+02   8.5170700e-01
   8.2613510e+02   1.6240960e+00
   8.2661720e+02   2.2553600e+00
   8.2709930e+02   2.3841630e+00
   8.2758140e+02   2.5639610e+00
   8.2806350e+02   3.1697120e+00
   8.2854570e+02   3.7874410e+00
   8.2902780e+02   3.3122330e+00
   8.2950990e+02   1.4771390e+00
   8.2999200e+02   4.4042600e-01
   8.3047410e+02   9.4786100e-01
   8.3095620e+02   2.0679360e+00
   8.3143840e+02   2.2471580e+00
   8.3192050e+02   1.8276290e+00
   8.3240260e+02   1.7293620e+00
   8.3288470e+02   2.8716770e+00
   8.3336680e+02   3.6346170e+00
   8.3384890e+02   2.5895160e+00
   8.3433110e+02   7.4615500e-01
   8.3481320e+02   7.6266997e-02
   8.3529530e+02   8.3201600e-01
   8.3577740e+02   1.5775720e+00
   8.3625950e+02   2.0190810e+00
   8.3674160e+02   2.1423230e+00
   8.3722380e+02   1.6918180e+00
   8.3770590e+02   7.6475100e-01
   8.3818800e+02   3.7123900e-01
   8.3867010e+02   8.5821500e-01
   8.3915220e+02   1.5474930e+00
   8.3963430e+02   1.8105960e+00
   8.4011650e+02   1.8140870e+00
   8.4059860e+02   1.7866780e+00
   8.4108070e+02   1.7864000e+00
   8.4156280e+02   1.7429730e+00
   8.4204490e+02   1.4902990e+00
   8.4252700e+02   1.3064880e+00
   8.4300920e+02   1.5885510e+00
   8.4349130e+02   2.5057110e+00
   8.4397340e+02   2.7430190e+00
   8.4445550e+02   2.0227890e+00
   8.4493760e+02   1.2181970e+00
   8.4541970e+02   1.6401790e+00
   8.4590190e+02   2.6959300e+00
   8.4638400e+02   3.0188560e+00
   8.4686610e+02   2.1382030e+00
   8.4734820e+02   1.4598120e+00
   8.4783030e+02   2.1676790e+00
   8.4831240e+02   3.2026860e+00
   8.4879460e+02   3.5156440e+00
   8.4927670e+02   2.5744820e+00
   8.4975880e+02   2.2149810e+00
   8.5024090e+02   2.6986240e+00
   8.5072300e+02   3.2775380e+00
   8.5120510e+02   3.2864340e+00
   8.5168730e+02   2.8121680e+00
   8.5216940e+02   2.3558350e+00
   8.5265150e+02   1.9391820e+00
   8.5313360e+02   1.7603000e+00
   8.5361570e+02   2.2842860e+00
   8.5409780e+02   2.9290280e+00
   8.5458000e+02   3.0799330e+00
   8.5506210e+02   2.5204350e+00
   8.5554420e+02   2.0009990e+00
   8.5602630e+02   1.7140580e+00
   8.5650840e+02   1.5234910e+00
   8.5699050e+02   1.3641930e+00
   8.5747270e+02   1.2359390e+00
   8.5795480e+02   1.3261530e+00
   8.5843690e+02   1.6611330e+00
   8.5891900e+02   1.9325140e+00
   8.5940110e+02   1.7564130e+00
   8.5988320e+02   1.4612580e+00
   8.6036540e+02   1.6356620e+00
   8.6084750e+02   2.2399180e+00
   8.6132960e+02   2.8082080e+00
   8.6181170e+02   3.2515180e+00
   8.6229380e+02   3.4980510e+00
   8.6277590e+02   3.3810270e+00
   8.6325810e+02   2.9770280e+00
   8.6374020e+02   2.8565180e+00
   8.6422230e+02   3.0881500e+00
   8.6470440e+02   3.4277080e+00
   8.6518650e+02   3.7805140e+00
   8.6566860e+02   4.0327340e+00
   8.6615080e+02   3.8333240e+00
   8.6663290e+02   3.3009950e+00
   8.6711500e+02   2.9371220e+00
   8.6759710e+02   2.8260190e+00
   8.6807920e+02   3.1046870e+00
   8.6856130e+02   4.3821070e+00
   8.6904350e+02   6.2022020e+00
   8.6952560e+02   7.1622390e+00
   8.7000770e+02   6.4451520e+00
   8.7048980e+02   6.2250670e+00
   8.7097190e+02   7.0752450e+00
   8.7145400e+02   8.4694820e+00
   8.7193620e+02   9.3634830e+00
   8.7241830e+02   9.7700270e+00
   8.7290040e+02   9.6765290e+00
   8.7338250e+02   8.8013840e+00
   8.7386460e+02   8.0089110e+00
   8.7434670e+02   8.3113170e+00
   8.7482890e+02   9.2040210e+00
   8.7531100e+02   9.9313130e+00
   8.7579310e+02   1.0013560e+01
   8.7627520e+02   1.0281120e+01
   8.7675730e+02   1.0829270e+01
   8.7723940e+02   1.1553250e+01
   8.7772160e+02   1.2405170e+01
   8.7820370e+02   1.3405600e+01
   8.7868580e+02   1.4094380e+01
   8.7916790e+02   1.4356840e+01
   8.7965000e+02   1.4564340e+01
   8.8013210e+02   1.5158550e+01
   8.8061430e+02   1.5960060e+01
   8.8109640e+02   1.6825350e+01
   8.8157850e+02   1.7871560e+01
   8.8206060e+02   1.8256580e+01
   8.8254270e+02   1.7542620e+01
   8.8302480e+02   1.6128190e+01
   8.8350700e+02   1.4139840e+01
   8.8398910e+02   1.1308230e+01
   8.8447120e+02   9.6782000e+00
   8.8495330e+02   9.4836650e+00
   8.8543540e+02   9.3655590e+00
   8.8591750e+02   8.1081810e+00
   8.8639970e+02   6.2033880e+00
   8.8688180e+02   4.4769130e+00
   8.8736390e+02   3.0208470e+00
   8.8784600e+02   2.2277950e+00
   8.8832810e+02   2.6943700e+00
   8.8881020e+02   3.4930460e+00
   8.8929240e+02   4.3042410e+00
   8.8977450e+02   5.0778730e+00
   8.9025660e+02   5.2682610e+00
   8.9073870e+02   4.7228090e+00
   8.9122080e+02   4.0433460e+00
   8.9170290e+02   3.4516370e+00
   8.9218510e+02   2.9098660e+00
   8.9266720e+02   2.1300740e+00
   8.9314930e+02   1.2956620e+00
   8.9363140e+02   9.7010000e-01
   8.9411350e+02   1.8874930e+00
   8.9459560e+02   2.8322980e+00
   8.9507780e+02   3.0499800e+00
   8.9555990e+02   2.7840730e+00
   8.9604200e+02   2.6623460e+00
   8.9652410e+02   2.8604930e+00
   8.9700620e+02   3.0135880e+00
   8.9748830e+02   3.0518380e+00
   8.9797050e+02   2.9607810e+00
   8.9845260e+02   2.6377790e+00
   8.9893470e+02   2.1787910e+00
   8.9941680e+02   1.8716740e+00
   8.9989890e+02   1.7628440e+00
   9.0038100e+02   1.8940580e+00
   9.0086320e+02   2.5933950e+00
   9.0134530e+02   3.3913350e+00
   9.0182740e+02   3.7471470e+00
   9.0230950e+02   3.2304840e+00
   9.0279160e+02   2.8346100e+00
   9.0327370e+02   2.5803680e+00
   9.0375590e+02   2.4313050e+00
   9.0423800e+02   2.3106610e+00
   9.0472010e+02   2.2413250e+00
   9.0520220e+02   2.6496850e+00
   9.0568430e+02   3.6022490e+00
   9.0616640e+02   4.2161900e+00
   9.0664860e+02   3.2316780e+00
   9.0713070e+02   1.9532170e+00
   9.0761280e+02   1.6536750e+00
   9.0809490e+02   2.5130230e+00
   9.0857700e+02   3.0959700e+00
   9.0905910e+02   3.0849230e+00
   9.0954130e+02   2.9484060e+00
   9.1002340e+02   2.8943710e+00
   9.1050550e+02   2.8895570e+00
   9.1098760e+02   2.5759160e+00
   9.1146970e+02   1.9939350e+00
   9.1195180e+02   1.5697100e+00
   9.1243400e+02   1.5778920e+00
   9.1291610e+02   1.8359180e+00
   9.1339820e+02   2.3181920e+00
   9.1388030e+02   2.9027710e+00
   9.1436240e+02   3.2646640e+00
   9.1484450e+02   2.9709010e+00
   9.1532670e+02   2.8334310e+00
   9.1580880e+02   3.0167030e+00
   9.1629090e+02   3.3910790e+00
   9.1677300e+02   3.7961240e+00
   9.1725510e+02   4.2173080e+00
   9.1773720e+02   4.1809960e+00
   9.1821940e+02   3.4626460e+00
   9.1870150e+02   2.6343880e+00
   9.1918360e+02   2.3003460e+00
   9.1966570e+02   2.2622380e+00
   9.2014780e+02   2.2845310e+00
   9.2062990e+02   2.5146450e+00
   9.2111210e+02   2.3740310e+00
   9.2159420e+02   1.3739090e+00
   9.2207630e+02   4.5658100e-01
   9.2255840e+02   5.6700100e-01
   9.2304050e+02   1.7357690e+00
   9.2352260e+02   2.2082350e+00
   9.2400480e+02   1.8659320e+00
   9.2448690e+02   1.5346370e+00
   9.2496900e+02   2.1727940e+00
   9.2545110e+02   3.0956150e+00
   9.2593320e+02   3.4405800e+00
   9.2641530e+02   3.1622010e+00
   9.2689750e+02   2.9281480e+00
   9.2737960e+02   2.9187370e+00
   9.2786170e+02   3.0170170e+00
   9.2834380e+02   3.3060650e+00
   9.2882590e+02   3.6995050e+00
   9.2930800e+02   3.6237620e+00
   9.2979020e+02   3.0323330e+00
   9.3027230e+02   2.3928030e+00
   9.3075440e+02   1.9082180e+00
   9.3123650e+02   1.6214580e+00
   9.3171860e+02   1.6038700e+00
   9.3220070e+02   1.7710020e+00
   9.3268290e+02   1.9485420e+00
   9.3316500e+02   1.8781360e+00
   9.3364710e+02   2.1394620e+00
   9.3412920e+02   3.1329400e+00
   9.3461130e+02   4.1774620e+00
   9.3509340e+02   4.1276470e+00
   9.3557560e+02   3.0223500e+00
   9.3605770e+02   2.5012510e+00
   9.3653980e+02   2.8279710e+00
   9.3702190e+02   3.2572060e+00
   9.3750400e+02   3.0221480e+00
   9.3798610e+02   2.5576570e+00
   9.3846830e+02   2.3617060e+00
   9.3895040e+02   2.5568470e+00
   9.3943250e+02   2.7752570e+00
   9.3991460e+02   2.9469850e+00
   9.4039670e+02   3.1379950e+00
   9.4087880e+02   3.3839760e+00
   9.4136100e+02   3.6829360e+00
   9.4184310e+02   4.1000750e+00
   9.4232520e+02   4.6256560e+00
   9.4280730e+02   4.8758660e+00
   9.4328940e+02   4.5414200e+00
   9.4377150e+02   3.8954280e+00
   9.4425370e+02   2.8578890e+00
   9.4473580e+02   1.6531930e+00
   9.4521790e+02   1.0840230e+00
   9.4570000e+02   1.9302460e+00
   9.4618210e+02   2.5814590e+00
   9.4666420e+02   2.6990200e+00
   9.4714640e+02   2.5555270e+00
   9.4762850e+02   2.7590070e+00
   9.4811060e+02   3.2541660e+00
   9.4859270e+02   3.6716960e+00
   9.4907480e+02   4.0122110e+00
   9.4955690e+02   3.9678000e+00
   9.5003910e+02   2.6741140e+00
   9.5052120e+02   1.1021160e+00
   9.5100330e+02   4.5845400e-01
   9.5148540e+02   1.4706420e+00
   9.5196750e+02   2.2487870e+00
   9.5244960e+02   2.8537060e+00
   9.5293180e+02   3.0540280e+00
   9.5341390e+02   2.4315490e+00
   9.5389600e+02   1.1848720e+00
   9.5437810e+02   3.9930700e-01
   9.5486020e+02   1.0518600e-01
   9.5534230e+02   2.9975900e-01
   9.5582450e+02   1.6208570e+00
   9.5630660e+02   2.8762170e+00
   9.5678870e+02   3.0579800e+00
   9.5727080e+02   2.2884410e+00
   9.5775290e+02   1.8983120e+00
   9.5823500e+02   2.0902100e+00
   9.5871720e+02   2.3055990e+00
   9.5919930e+02   2.4190370e+00
   9.5968140e+02   2.4351160e+00
   9.6016350e+02   2.3634340e+00
   9.6064560e+02   2.2024080e+00
   9.6112770e+02   1.8927230e+00
   9.6160990e+02   1.1717870e+00
   9.6209200e+02   8.0101000e-01
   9.6257410e+02   1.7750930e+00
   9.6305620e+02   3.0229570e+00
   9.6353830e+02   3.2321320e+00
   9.6402040e+02   1.7958870e+00
   9.6450260e+02   1.0489310e+00
   9.6498470e+02   1.1132810e+00
   9.6546680e+02   1.4906120e+00
   9.6594890e+02   1.9445190e+00
   9.6643100e+02   2.3144260e+00
   9.6691310e+02   2.0801620e+00
   9.6739530e+02   1.2860110e+00
   9.6787740e+02   8.7998200e-01
   9.6835950e+02   1.9968110e+00
   9.6884160e+02   2.9519730e+00
   9.6932370e+02   2.7678870e+00
   9.6980580e+02   1.7224660e+00
   9.7028800e+02   1.0985150e+00
   9.7077010e+02   9.5304900e-01
   9.7125220e+02   6.8685200e-01
   9.7173430e+02   5.0953001e-02
   9.7221640e+02   7.6646400e-01
   9.7269850e+02   5.7471800e-01
   9.7318070e+02   1.2542000e-01
   9.7366280e+02   5.4948800e-01
   9.7414490e+02   1.8352100e-01
   9.7462700e+02   1.0529000e-02
   9.7510910e+02   1.6413900e-01
   9.7559120e+02   5.6483100e-01
   9.7607340e+02   1.2550280e+00
   9.7655550e+02   2.2553290e+00
   9.7703760e+02   2.2520870e+00
   9.7751970e+02   1.1314620e+00
   9.7800180e+02   4.4426002e-02
   9.7848390e+02   2.2689100e-01
   9.7896610e+02   6.9522100e-01
   9.7944820e+02   3.1543400e-01
   9.7993030e+02   9.2514400e-01
   9.8041240e+02   1.7574500e+00
   9.8089450e+02   1.9527550e+00
   9.8137660e+02   1.7337950e+00
   9.8185880e+02   9.3312100e-01
   9.8234090e+02   6.0017001e-02
   9.8282300e+02   5.5187002e-02
   9.8330510e+02   1.0479890e+00
   9.8378720e+02   1.6783180e+00
   9.8426930e+02   1.3456340e+00
   9.8475150e+02   8.3144400e-01
   9.8523360e+02   4.9095200e-01
   9.8571570e+02   3.7361100e-01
   9.8619780e+02   6.1667300e-01
   9.8667990e+02   1.7484970e+00
   9.8716200e+02   1.9079630e+00
   9.8764420e+02   8.2711000e-01
   9.8812630e+02   4.6492800e-01
   9.8860840e+02   1.0999570e+00
   9.8909050e+02   1.2214320e+00
   9.8957260e+02   1.0329320e+00
   9.9005470e+02   5.9107600e-01
   9.9053690e+02   2.7420000e-01
   9.9101900e+02   5.3427500e-01
   9.9150110e+02   7.0232800e-01
   9.9198320e+02   4.2166100e-01
   9.9246530e+02   2.1033500e-01
   9.9294740e+02   9.7654700e-01
   9.9342960e+02   1.9412500e+00
   9.9391170e+02   2.3695830e+00
   9.9439380e+02   1.8828050e+00
   9.9487590e+02   1.0925180e+00
   9.9535800e+02   7.6744800e-01
   9.9584010e+02   7.3181500e-01
   9.9632230e+02   6.8303300e-01
   9.9680440e+02   5.3384400e-01
   9.9728650e+02   3.7646100e-01
   9.9776860e+02   2.6676200e-01
   9.9825070e+02   1.0436200e-01
   9.9873280e+02   3.1104300e-01
   9.9921500e+02   9.4198600e-01
   9.9969710e+02   9.3174700e-01
   1.0001790e+03   2.9215200e-01
   1.0006610e+03   3.9331100e-01
   1.0011430e+03   8.2442100e-01
   1.0016260e+03   1.0543750e+00
   1.0021080e+03   1.0942420e+00
   1.0025900e+03   9.8431000e-01
   1.0030720e+03   8.1153500e-01
   1.0035540e+03   5.1535400e-01
   1.0040360e+03   1.8269000e-01
   1.0045180e+03   2.1639300e-01
   1.0050000e+03   5.1887100e-01
   1.0054820e+03   3.4497500e-01
   1.0059650e+03   1.3797800e-01
   1.0064470e+03   5.5637000e-01
   1.0069290e+03   9.0160400e-01
   1.0074110e+03   8.5151700e-01
   1.0078930e+03   3.6653900e-01
   1.0083750e+03   1.4945070e+00
   1.0088570e+03   1.5367240e+00
   1.0093390e+03   4.4767800e-01
   1.0098220e+03   4.4043999e-02
   1.0103040e+03   8.0340996e-02
   1.0107860e+03   4.5175600e-01
   1.0112680e+03   8.7216200e-01
   1.0117500e+03   1.3457760e+00
   1.0122320e+03   2.2036290e+00
   1.0127140e+03   3.1750300e+00
   1.0131960e+03   3.4757650e+00
   1.0136780e+03   2.0776630e+00
   1.0141610e+03   1.1026880e+00
   1.0146430e+03   9.1785000e-01
   1.0151250e+03   1.1780430e+00
   1.0156070e+03   1.4449040e+00
   1.0160890e+03   1.7300110e+00
   1.0165710e+03   2.0222850e+00
   1.0170530e+03   2.3026700e+00
   1.0175350e+03   2.7357980e+00
   1.0180180e+03   3.7383190e+00
   1.0185000e+03   4.7201000e+00
   1.0189820e+03   5.2021140e+00
   1.0194640e+03   5.1318020e+00
   1.0199460e+03   4.8432730e+00
   1.0204280e+03   4.2274360e+00
   1.0209100e+03   4.0062750e+00
   1.0213920e+03   4.7190670e+00
   1.0218740e+03   5.7738840e+00
   1.0223570e+03   5.9696120e+00
   1.0228390e+03   5.5970230e+00
   1.0233210e+03   5.2901880e+00
   1.0238030e+03   5.3824350e+00
   1.0242850e+03   5.3856240e+00
   1.0247670e+03   4.8422360e+00
   1.0252490e+03   4.4426160e+00
   1.0257310e+03   5.0089800e+00
   1.0262140e+03   6.5860980e+00
   1.0266960e+03   7.6383400e+00
   1.0271780e+03   8.0877530e+00
   1.0276600e+03   8.4761770e+00
   1.0281420e+03   9.4996600e+00
   1.0286240e+03   1.0437210e+01
   1.0291060e+03   1.0506480e+01
   1.0295880e+03   9.7663080e+00
   1.0300700e+03   9.1847380e+00
   1.0305530e+03   8.7281760e+00
   1.0310350e+03   8.9454350e+00
   1.0315170e+03   1.0201380e+01
   1.0319990e+03   1.1692430e+01
   1.0324810e+03   1.1853680e+01
   1.0329630e+03   1.1203460e+01
   1.0334450e+03   1.1121330e+01
   1.0339270e+03   1.2179170e+01
   1.0344100e+03   1.2886220e+01
   1.0348920e+03   1.2104830e+01
   1.0353740e+03   1.1130570e+01
   1.0358560e+03   1.0763800e+01
   1.0363380e+03   1.1047410e+01
   1.0368200e+03   1.1904320e+01
   1.0373020e+03   1.3302540e+01
   1.0377840e+03   1.4595260e+01
   1.0382660e+03   1.5305980e+01
   1.0387490e+03   1.5896310e+01
   1.0392310e+03   1.6877750e+01
   1.0397130e+03   1.8121960e+01
   1.0401950e+03   1.9219270e+01
   1.0406770e+03   2.0241380e+01
   1.0411590e+03   2.0523890e+01
   1.0416410e+03   1.9735260e+01
   1.0421230e+03   1.8874190e+01
   1.0426050e+03   1.9303240e+01
   1.0430880e+03   2.0566500e+01
   1.0435700e+03   2.1306570e+01
   1.0440520e+03   2.1363420e+01
   1.0445340e+03   2.1415580e+01
   1.0450160e+03   2.1727120e+01
   1.0454980e+03   2.2468770e+01
   1.0459800e+03   2.3881680e+01
   1.0464620e+03   2.5690240e+01
   1.0469450e+03   2.6804110e+01
   1.0474270e+03   2.7206750e+01
   1.0479090e+03   2.7694200e+01
   1.0483910e+03   2.8578520e+01
   1.0488730e+03   2.9514900e+01
   1.0493550e+03   2.9860770e+01
   1.0498370e+03   3.0155960e+01
   1.0503190e+03   3.1197530e+01
   1.0508020e+03   3.3761820e+01
   1.0512840e+03   3.5444950e+01
   1.0517660e+03   3.5918080e+01
   1.0522480e+03   3.6285870e+01
   1.0527300e+03   3.7175840e+01
   1.0532120e+03   3.8545000e+01
   1.0536940e+03   4.0755790e+01
   1.0541760e+03   4.3512530e+01
   1.0546580e+03   4.5465120e+01
   1.0551410e+03   4.4506130e+01
   1.0556230e+03   4.4309810e+01
   1.0561050e+03   4.6490410e+01
   1.0565870e+03   5.0047860e+01
   1.0570690e+03   5.3909050e+01
   1.0575510e+03   5.8109690e+01
   1.0580330e+03   6.1151450e+01
   1.0585150e+03   6.2748680e+01
   1.0589970e+03   6.4055850e+01
   1.0594800e+03   6.5964910e+01
   1.0599620e+03   6.8241570e+01
   1.0604440e+03   7.0544880e+01
   1.0609260e+03   7.2858060e+01
   1.0614080e+03   7.6166020e+01
   1.0618900e+03   8.0895470e+01
   1.0623720e+03   8.5479840e+01
   1.0628540e+03   8.9249050e+01
   1.0633370e+03   9.2729340e+01
   1.0638190e+03   9.6586370e+01
   1.0643010e+03   1.0090250e+02
   1.0647830e+03   1.0596160e+02
   1.0652650e+03   1.1238230e+02
   1.0657470e+03   1.1830070e+02
   1.0662290e+03   1.2234940e+02
   1.0667110e+03   1.2652370e+02
   1.0671930e+03   1.3243400e+02
   1.0676760e+03   1.3989890e+02
   1.0681580e+03   1.4593510e+02
   1.0686400e+03   1.5069400e+02
   1.0691220e+03   1.5603360e+02
   1.0696040e+03   1.6371410e+02
   1.0700860e+03   1.7181170e+02
   1.0705680e+03   1.7845850e+02
   1.0710500e+03   1.8490690e+02
   1.0715320e+03   1.9395410e+02
   1.0720150e+03   2.0677300e+02
   1.0724970e+03   2.1822700e+02
   1.0729790e+03   2.2764960e+02
   1.0734610e+03   2.3685680e+02
   1.0739430e+03   2.4798820e+02
   1.0744250e+03   2.6001860e+02
   1.0749070e+03   2.7152980e+02
   1.0753890e+03   2.8235780e+02
   1.0758720e+03   2.9389140e+02
   1.0763540e+03   3.0562350e+02
   1.0768360e+03   3.1918400e+02
   1.0773180e+03   3.3485320e+02
   1.0778000e+03   3.5261880e+02
   1.0782820e+03   3.7268760e+02
   1.0787640e+03   3.9531200e+02
   1.0792460e+03   4.2139300e+02
   1.0797290e+03   4.5115030e+02
   1.0802110e+03   4.8538960e+02
   1.0806930e+03   5.2258690e+02
   1.0811750e+03   5.6675170e+02
   1.0816570e+03   6.1931860e+02
   1.0821390e+03   6.8038790e+02
   1.0826210e+03   7.4745750e+02
   1.0831030e+03   8.2102390e+02
   1.0835850e+03   9.0253830e+02
   1.0840680e+03   9.9388630e+02
   1.0845500e+03   1.0929430e+03
   1.0850320e+03   1.1973470e+03
   1.0855140e+03   1.3074380e+03
   1.0859960e+03   1.4216420e+03
   1.0864780e+03   1.5409400e+03
   1.0869600e+03   1.6611810e+03
   1.0874420e+03   1.7817880e+03
   1.0879240e+03   1.9048550e+03
   1.0884060e+03   2.0281460e+03
   1.0888890e+03   2.1568220e+03
   1.0893710e+03   2.3005630e+03
   1.0898530e+03   2.4603670e+03
   1.0903350e+03   2.6388960e+03
   1.0908170e+03   2.8404520e+03
   1.0912990e+03   3.0578280e+03
   1.0917810e+03   3.2863830e+03
   1.0922630e+03   3.5325330e+03
   1.0927460e+03   3.8150440e+03
   1.0932280e+03   4.1253680e+03
   1.0937100e+03   4.4228740e+03
   1.0941920e+03   4.7028350e+03
   1.0946740e+03   4.9472950e+03
   1.0951560e+03   5.1705170e+03
   1.0956380e+03   5.3298490e+03
   1.0961200e+03   5.4001520e+03
   1.0966030e+03   5.3844810e+03
   1.0970850e+03   5.2724200e+03
   1.0975670e+03   5.0629170e+03
   1.0980490e+03   4.7775780e+03
   1.0985310e+03   4.4112730e+03
   1.0990130e+03   3.9979090e+03
   1.0994950e+03   3.5326910e+03
   1.0999770e+03   3.0570750e+03
   1.1004590e+03   2.6144380e+03
   1.1009420e+03   2.2106440e+03
   1.1014240e+03   1.8571480e+03
   1.1019060e+03   1.5544230e+03
   1.1023880e+03   1.2984370e+03
   1.1028700e+03   1.0894300e+03
   1.1033520e+03   9.1990470e+02
   1.1038340e+03   7.7876290e+02
   1.1043160e+03   6.6275690e+02
   1.1047980e+03   5.6668650e+02
   1.1052810e+03   4.9454400e+02
   1.1057630e+03   4.3372850e+02
   1.1062450e+03   3.8436970e+02
   1.1067270e+03   3.4233180e+02
   1.1072090e+03   3.0492330e+02
   1.1076910e+03   2.7166240e+02
   1.1081730e+03   2.4286330e+02
   1.1086550e+03   2.1815830e+02
   1.1091380e+03   1.9691620e+02
   1.1096200e+03   1.7928120e+02
   1.1101020e+03   1.6416500e+02
   1.1105840e+03   1.5132650e+02
   1.1110660e+03   1.4026710e+02
   1.1115480e+03   1.3003230e+02
   1.1120300e+03   1.2052920e+02
   1.1125120e+03   1.1091270e+02
   1.1129950e+03   1.0078790e+02
   1.1134770e+03   9.1439010e+01
   1.1139590e+03   8.3850300e+01
   1.1144410e+03   7.7590390e+01
   1.1149230e+03   7.2594070e+01
   1.1154050e+03   6.8779720e+01
   1.1158870e+03   6.4994450e+01
   1.1163690e+03   6.1184020e+01
   1.1168510e+03   5.7534630e+01
   1.1173330e+03   5.4160680e+01
   1.1178160e+03   5.0872500e+01
   1.1182980e+03   4.7348930e+01
   1.1187800e+03   4.3782100e+01
   1.1192620e+03   4.0403500e+01
   1.1197440e+03   3.7109010e+01
   1.1202260e+03   3.4727640e+01
   1.1207080e+03   3.3703350e+01
   1.1211900e+03   3.2413820e+01
   1.1216730e+03   2.9360660e+01
   1.1221550e+03   2.5662120e+01
   1.1226370e+03   2.4275740e+01
   1.1231190e+03   2.4396870e+01
   1.1236010e+03   2.3788160e+01
   1.1240830e+03   2.0491950e+01
   1.1245650e+03   1.7949310e+01
   1.1250470e+03   1.6918720e+01
   1.1255300e+03   1.6455430e+01
   1.1260120e+03   1.5755110e+01
   1.1264940e+03   1.4851440e+01
   1.1269760e+03   1.3977230e+01
   1.1274580e+03   1.3120550e+01
   1.1279400e+03   1.2045970e+01
   1.1284220e+03   1.0037780e+01
   1.1289040e+03   8.4249190e+00
   1.1293860e+03   8.1141620e+00
   1.1298690e+03   8.3665120e+00
   1.1303510e+03   8.0008320e+00
   1.1308330e+03   7.0373610e+00
   1.1313150e+03   6.5847240e+00
   1.1317970e+03   6.8057370e+00
   1.1322790e+03   6.8713680e+00
   1.1327610e+03   5.6772120e+00
   1.1332430e+03   4.5126270e+00
   1.1337250e+03   4.7007410e+00
   1.1342080e+03   5.8341670e+00
   1.1346900e+03   5.5017240e+00
   1.1351720e+03   3.4082070e+00
   1.1356540e+03   2.1461300e+00
   1.1361360e+03   2.4780650e+00
   1.1366180e+03   3.2066270e+00
   1.1371000e+03   3.1937410e+00
   1.1375820e+03   2.7580490e+00
   1.1380650e+03   2.0904770e+00
   1.1385470e+03   1.1599690e+00
   1.1390290e+03   7.8654500e-01
   1.1395110e+03   1.1303830e+00
   1.1399930e+03   1.5320590e+00
   1.1404750e+03   1.7582970e+00
   1.1409570e+03   1.8578380e+00
   1.1414390e+03   2.0981060e+00
   1.1419220e+03   2.2070920e+00
   1.1424040e+03   1.5839000e+00
   1.1428860e+03   5.6426200e-01
   1.1433680e+03   1.5915150e+00
   1.1438500e+03   1.0199810e+00
   1.1443320e+03   3.4584001e-02
   1.1448140e+03   1.1925010e+00
   1.1452960e+03   2.1732180e+00
   1.1457780e+03   1.9209400e+00
   1.1462600e+03   8.6226300e-01
   1.1467430e+03   2.3963900e-01
   1.1472250e+03   1.1152000e+00
   1.1477070e+03   1.6943210e+00
   1.1481890e+03   1.7317730e+00
   1.1486710e+03   1.4033740e+00
   1.1491530e+03   6.3497200e-01
   1.1496350e+03   4.0609000e-01
   1.1501170e+03   7.3388700e-01
   1.1506000e+03   4.3746200e-01
   1.1510820e+03   3.3583100e-01
   1.1515640e+03   1.3368570e+00
   1.1520460e+03   2.0064050e+00
   1.1525280e+03   1.4781190e+00
   1.1530100e+03   6.2509500e-01
   1.1534920e+03   7.4528100e-01
   1.1539740e+03   1.7230070e+00
   1.1544570e+03   2.2900200e+00
   1.1549390e+03   2.3273280e+00
   1.1554210e+03   2.0345610e+00
   1.1559030e+03   1.1978260e+00
   1.1563850e+03   4.1054200e-01
   1.1568670e+03   2.9011000e-02
   1.1573490e+03   3.6617000e-02
   1.1578310e+03   5.2604999e-02
   1.1583130e+03   2.9976700e-01
   1.1587960e+03   7.0093200e-01
   1.1592780e+03   1.3054200e+00
   1.1597600e+03   1.6665460e+00
   1.1602420e+03   9.6421800e-01
   1.1607240e+03   2.2344600e-01
   1.1612060e+03   5.2738200e-01
   1.1616880e+03   1.6825980e+00
   1.1621700e+03   1.9409180e+00
   1.1626520e+03   1.2293550e+00
   1.1631350e+03   5.7476000e-01
   1.1636170e+03   1.9894400e-01
   1.1640990e+03   1.1588700e-01
   1.1645810e+03   8.2650400e-01
   1.1650630e+03   1.5313530e+00
   1.1655450e+03   1.1387710e+00
   1.1660270e+03   6.0284400e-01
   1.1665090e+03   1.3288310e+00
   1.1669920e+03   8.7282600e-01
   1.1674740e+03   3.4836600e-01
   1.1679560e+03   1.9913500e-01
   1.1684380e+03   2.0833200e-01
   1.1689200e+03   8.2705997e-02
   1.1694020e+03   6.8085000e-02
   1.1698840e+03   7.4211001e-02
   1.1703660e+03   1.7213400e-01
   1.1708490e+03   3.1338100e-01
   1.1713310e+03   3.3448800e-01
   1.1718130e+03   2.9793500e-01
   1.1722950e+03   1.3822600e-01
   1.1727770e+03   3.8368002e-02
   1.1732590e+03   4.1194200e-01
   1.1737410e+03   1.0430830e+00
   1.1742230e+03   1.5030360e+00
   1.1747050e+03   1.6630900e+00
   1.1751880e+03   1.6607130e+00
   1.1756700e+03   1.5023310e+00
   1.1761520e+03   1.1740040e+00
   1.1766340e+03   4.6059200e-01
   1.1771160e+03   3.3278800e-01
   1.1775980e+03   6.4877500e-01
   1.1780800e+03   5.4309100e-01
   1.1785620e+03   2.1078900e-01
   1.1790440e+03   6.1432500e-01
   1.1795270e+03   1.1493420e+00
   1.1800090e+03   1.2479630e+00
   1.1804910e+03   1.2382760e+00
   1.1809730e+03   1.4480460e+00
   1.1814550e+03   1.7860760e+00
   1.1819370e+03   2.0307880e+00
   1.1824190e+03   2.1971040e+00
   1.1829010e+03   2.4035550e+00
   1.1833840e+03   2.9817960e+00
   1.1838660e+03   3.1464080e+00
   1.1843480e+03   2.6248470e+00
   1.1848300e+03   1.9221080e+00
   1.1853120e+03   1.6490800e+00
   1.1857940e+03   1.7030810e+00
   1.1862760e+03   1.8373680e+00
   1.1867580e+03   2.0302260e+00
   1.1872400e+03   2.2821080e+00
   1.1877230e+03   2.6759070e+00
   1.1882050e+03   3.0448930e+00
   1.1886870e+03   3.4790100e+00
   1.1891690e+03   3.6935350e+00
   1.1896510e+03   2.8345010e+00
   1.1901330e+03   1.3943330e+00
   1.1906150e+03   1.0621340e+00
   1.1910970e+03   2.0602910e+00
   1.1915790e+03   3.0460990e+00
   1.1920620e+03   3.4636670e+00
   1.1925440e+03   3.7272820e+00
   1.1930260e+03   4.0517160e+00
   1.1935080e+03   4.2384620e+00
   1.1939900e+03   3.5897660e+00
   1.1944720e+03   2.4202460e+00
   1.1949540e+03   1.9012320e+00
   1.1954360e+03   2.2964690e+00
   1.1959190e+03   2.8114530e+00
   1.1964010e+03   3.2157330e+00
   1.1968830e+03   3.4995860e+00
   1.1973650e+03   3.5892260e+00
   1.1978470e+03   3.6105900e+00
   1.1983290e+03   3.9834310e+00
   1.1988110e+03   4.6235310e+00
   1.1992930e+03   5.2355420e+00
   1.1997760e+03   5.8029100e+00
   1.2002580e+03   6.0282900e+00
   1.2007400e+03   5.4475250e+00
   1.2012220e+03   4.7747990e+00
   1.2017040e+03   4.4487130e+00
   1.2021860e+03   4.3812540e+00
   1.2026680e+03   4.0994910e+00
   1.2031500e+03   3.7272050e+00
   1.2036320e+03   3.8794100e+00
   1.2041150e+03   5.1211780e+00
   1.2045970e+03   5.8236120e+00
   1.2050790e+03   4.6230240e+00
   1.2055610e+03   3.2426970e+00
   1.2060430e+03   2.6319370e+00
   1.2065250e+03   2.6933420e+00
   1.2070070e+03   3.1849310e+00
   1.2074890e+03   3.9706820e+00
   1.2079710e+03   4.4768350e+00
   1.2084540e+03   4.3291950e+00
   1.2089360e+03   4.2299860e+00
   1.2094180e+03   4.4687080e+00
   1.2099000e+03   4.7913190e+00
   1.2103820e+03   5.2196900e+00
   1.2108640e+03   5.6874450e+00
   1.2113460e+03   5.3726430e+00
   1.2118280e+03   4.3991870e+00
   1.2123110e+03   3.6488210e+00
   1.2127930e+03   3.7488750e+00
   1.2132750e+03   3.8452930e+00
   1.2137570e+03   3.3765560e+00
   1.2142390e+03   3.0892910e+00
   1.2147210e+03   3.7769360e+00
   1.2152030e+03   5.1967980e+00
   1.2156850e+03   5.4451830e+00
   1.2161670e+03   4.6964510e+00
   1.2166500e+03   3.9306550e+00
   1.2171320e+03   3.5210900e+00
   1.2176140e+03   3.3277680e+00
   1.2180960e+03   3.7296490e+00
   1.2185780e+03   4.0105710e+00
   1.2190600e+03   3.1410240e+00
   1.2195420e+03   1.3705520e+00
   1.2200240e+03   9.2033400e-01
   1.2205060e+03   1.6889080e+00
   1.2209890e+03   2.5631220e+00
   1.2214710e+03   3.0373950e+00
   1.2219530e+03   3.2179740e+00
   1.2224350e+03   3.5402680e+00
   1.2229170e+03   3.6730960e+00
   1.2233990e+03   3.3585830e+00
   1.2238810e+03   2.7247310e+00
   1.2243630e+03   2.4600260e+00
   1.2248460e+03   2.5641060e+00
   1.2253280e+03   2.6829590e+00
   1.2258100e+03   2.6612240e+00
   1.2262920e+03   2.7650740e+00
   1.2267740e+03   3.0395850e+00
   1.2272560e+03   3.2745970e+00
   1.2277380e+03   3.0810660e+00
   1.2282200e+03   2.5781140e+00
   1.2287030e+03   2.3009610e+00
   1.2291850e+03   2.2499770e+00
   1.2296670e+03   2.2150590e+00
   1.2301490e+03   2.0444200e+00
   1.2306310e+03   2.0732120e+00
   1.2311130e+03   2.4341510e+00
   1.2315950e+03   2.8918650e+00
   1.2320770e+03   3.2053380e+00
   1.2325590e+03   3.3986610e+00
   1.2330420e+03   3.3990920e+00
   1.2335240e+03   3.2107680e+00
   1.2340060e+03   2.9783420e+00
   1.2344880e+03   2.4685710e+00
   1.2349700e+03   2.3161240e+00
   1.2354520e+03   2.6367400e+00
   1.2359340e+03   3.1008000e+00
   1.2364160e+03   3.2575130e+00
   1.2368980e+03   3.2078530e+00
   1.2373810e+03   3.4048670e+00
   1.2378630e+03   3.7941860e+00
   1.2383450e+03   3.8392680e+00
   1.2388270e+03   2.7780080e+00
   1.2393090e+03   2.3385300e+00
   1.2397910e+03   3.0310730e+00
   1.2402730e+03   3.9548530e+00
   1.2407550e+03   3.7708420e+00
   1.2412380e+03   3.0155280e+00
   1.2417200e+03   2.7260130e+00
   1.2422020e+03   2.9037690e+00
   1.2426840e+03   2.8390830e+00
   1.2431660e+03   2.1527810e+00
   1.2436480e+03   1.8301960e+00
   1.2441300e+03   2.1611230e+00
   1.2446120e+03   2.6445290e+00
   1.2450940e+03   2.5496460e+00
   1.2455770e+03   2.2174930e+00
   1.2460590e+03   2.2321410e+00
   1.2465410e+03   2.5985390e+00
   1.2470230e+03   2.6370180e+00
   1.2475050e+03   2.0174870e+00
   1.2479870e+03   1.9107550e+00
   1.2484690e+03   2.6944810e+00
   1.2489510e+03   3.5477750e+00
   1.2494330e+03   3.5490380e+00
   1.2499160e+03   3.1676310e+00
   1.2503980e+03   2.5904810e+00
   1.2508800e+03   1.8730090e+00
   1.2513620e+03   1.4047930e+00
   1.2518440e+03   1.2285880e+00
   1.2523260e+03   1.1928750e+00
   1.2528080e+03   1.2838540e+00
   1.2532900e+03   1.4175990e+00
   1.2537730e+03   1.5872420e+00
   1.2542550e+03   1.6791040e+00
   1.2547370e+03   1.5749840e+00
   1.2552190e+03   1.2744260e+00
   1.2557010e+03   8.2156800e-01
   1.2561830e+03   1.4803100e-01
   1.2566650e+03   9.9999998e-03
   1.2571470e+03   5.9719800e-01
   1.2576300e+03   1.2723810e+00
   1.2581120e+03   1.3479500e+00
   1.2585940e+03   1.2282510e+00
   1.2590760e+03   1.2176900e+00
   1.2595580e+03   1.3161280e+00
   1.2600400e+03   1.5173950e+00
   1.2605220e+03   1.8190060e+00
   1.2610040e+03   1.9579300e+00
   1.2614860e+03   1.8609540e+00
   1.2619690e+03   1.6982900e+00
   1.2624510e+03   1.4311700e+00
   1.2629330e+03   1.3123860e+00
   1.2634150e+03   1.5324150e+00
   1.2638970e+03   2.0190140e+00
   1.2643790e+03   2.7779850e+00
   1.2648610e+03   3.6792180e+00
   1.2653430e+03   3.5242420e+00
   1.2658250e+03   1.8945500e+00
   1.2663080e+03   5.4845400e-01
   1.2667900e+03   8.0480400e-01
   1.2672720e+03   1.2766400e+00
   1.2677540e+03   1.3839910e+00
   1.2682360e+03   1.2669720e+00
   1.2687180e+03   8.8329900e-01
   1.2692000e+03   3.4035700e-01
   1.2696820e+03   2.6700000e-04
   1.2701650e+03   8.2126997e-02
   1.2706470e+03   1.4456000e-01
   1.2711290e+03   1.1995390e+00
   1.2716110e+03   1.9206560e+00
   1.2720930e+03   1.8688720e+00
   1.2725750e+03   1.3677100e+00
   1.2730570e+03   9.6612500e-01
   1.2735390e+03   6.6572800e-01
   1.2740210e+03   4.4324100e-01
   1.2745040e+03   2.9694000e-01
   1.2749860e+03   3.0983700e-01
   1.2754680e+03   4.3924300e-01
   1.2759500e+03   4.5473500e-01
   1.2764320e+03   2.0363200e-01
   1.2769140e+03   5.8120000e-03
   1.2773960e+03   3.9350100e-01
   1.2778780e+03   0.0000000e+00
   1.5000000e+03   0.0000000e+00
