   1.0000000e+02   0.0000000e+00
   1.6316110e+02   0.0000000e+00
   1.6364320e+02   1.0763180e+01
   1.6412530e+02   2.0882570e+01
   1.6460750e+02   2.3729740e+01
   1.6508960e+02   9.5070800e+00
   1.6557170e+02   7.5585900e-01
   1.6605380e+02   1.4321290e+00
   1.6653590e+02   8.7441410e+00
   1.6701800e+02   1.3292720e+01
   1.6750020e+02   4.2392580e+00
   1.6798230e+02   4.6735840e+00
   1.6846440e+02   4.0673800e-01
   1.6894650e+02   2.2898440e+01
   1.6942860e+02   4.2533690e+01
   1.6991070e+02   3.9539310e+01
   1.7039290e+02   2.2484860e+01
   1.7087500e+02   9.5024410e+00
   1.7135710e+02   1.5812010e+01
   1.7183920e+02   2.8358640e+01
   1.7232130e+02   3.0368900e+01
   1.7280340e+02   6.5660230e-01
   1.7328560e+02   2.0654320e+01
   1.7376770e+02   3.2541810e+01
   1.7424980e+02   3.6755130e+01
   1.7473190e+02   1.0309330e+01
   1.7521400e+02   2.3453430e+01
   1.7569610e+02   2.0731700e+01
   1.7617830e+02   1.7359660e+01
   1.7666040e+02   3.6075860e+01
   1.7714250e+02   1.4089370e+01
   1.7762460e+02   3.2455280e+01
   1.7810670e+02   3.4713250e+01
   1.7858880e+02   4.4343430e+01
   1.7907100e+02   3.8010070e+01
   1.7955310e+02   3.6607140e+01
   1.8003520e+02   5.1173150e+01
   1.8051730e+02   5.6897040e+01
   1.8099940e+02   4.8725700e+01
   1.8148150e+02   5.8824500e+01
   1.8196370e+02   3.6280640e+01
   1.8244580e+02   4.2381140e+01
   1.8292790e+02   6.0840500e+01
   1.8341000e+02   5.4288570e+01
   1.8389210e+02   6.1001710e+01
   1.8437420e+02   6.5798830e+01
   1.8485640e+02   6.8697750e+01
   1.8533850e+02   6.9327150e+01
   1.8582060e+02   6.7682130e+01
   1.8630270e+02   6.4361820e+01
   1.8678480e+02   5.8195310e+01
   1.8726690e+02   4.9902830e+01
   1.8774910e+02   4.4912840e+01
   1.8823120e+02   4.6487060e+01
   1.8871330e+02   5.2860840e+01
   1.8919540e+02   5.7909180e+01
   1.8967750e+02   6.1523190e+01
   1.9015960e+02   6.4029050e+01
   1.9064180e+02   6.6342290e+01
   1.9112390e+02   6.8365970e+01
   1.9160600e+02   6.8126460e+01
   1.9208810e+02   6.1833740e+01
   1.9257020e+02   5.0907470e+01
   1.9305240e+02   4.9523680e+01
   1.9353450e+02   5.9826170e+01
   1.9401660e+02   7.4045900e+01
   1.9449870e+02   7.9200440e+01
   1.9498080e+02   7.4674560e+01
   1.9546290e+02   7.0431640e+01
   1.9594510e+02   7.1677250e+01
   1.9642720e+02   7.8350590e+01
   1.9690930e+02   8.4260740e+01
   1.9739140e+02   8.9976320e+01
   1.9787350e+02   9.3732180e+01
   1.9835560e+02   9.0414060e+01
   1.9883780e+02   7.8683110e+01
   1.9931990e+02   6.8360110e+01
   1.9980200e+02   6.5043460e+01
   2.0028410e+02   6.9089600e+01
   2.0076620e+02   7.5791990e+01
   2.0124830e+02   8.7413330e+01
   2.0173050e+02   9.9238530e+01
   2.0221260e+02   9.6271970e+01
   2.0269470e+02   7.3796390e+01
   2.0317680e+02   5.4146970e+01
   2.0365890e+02   5.3031980e+01
   2.0414100e+02   7.3422360e+01
   2.0462320e+02   9.1456300e+01
   2.0510530e+02   1.0590650e+02
   2.0558740e+02   1.1628520e+02
   2.0606950e+02   1.1973020e+02
   2.0655160e+02   1.1406910e+02
   2.0703370e+02   1.0717940e+02
   2.0751590e+02   1.0583200e+02
   2.0799800e+02   1.1238180e+02
   2.0848010e+02   1.1215550e+02
   2.0896220e+02   9.9738280e+01
   2.0944430e+02   7.9242430e+01
   2.0992640e+02   7.2096190e+01
   2.1040860e+02   8.2566160e+01
   2.1089070e+02   9.7891600e+01
   2.1137280e+02   1.0842630e+02
   2.1185490e+02   1.1333030e+02
   2.1233700e+02   1.1653540e+02
   2.1281910e+02   1.1787130e+02
   2.1330130e+02   1.1772390e+02
   2.1378340e+02   1.1985080e+02
   2.1426550e+02   1.2486470e+02
   2.1474760e+02   1.3129960e+02
   2.1522970e+02   1.3946340e+02
   2.1571180e+02   1.5249460e+02
   2.1619400e+02   1.5851200e+02
   2.1667610e+02   1.5445530e+02
   2.1715820e+02   1.3993290e+02
   2.1764030e+02   1.2764280e+02
   2.1812240e+02   1.1932740e+02
   2.1860450e+02   1.1308940e+02
   2.1908670e+02   1.0692750e+02
   2.1956880e+02   9.9888920e+01
   2.2005090e+02   9.5646730e+01
   2.2053300e+02   9.5895750e+01
   2.2101510e+02   1.0073950e+02
   2.2149720e+02   1.0004540e+02
   2.2197940e+02   9.0201660e+01
   2.2246150e+02   7.8846680e+01
   2.2294360e+02   7.5644530e+01
   2.2342570e+02   8.7382570e+01
   2.2390780e+02   9.2899410e+01
   2.2438990e+02   8.5171140e+01
   2.2487210e+02   6.2712400e+01
   2.2535420e+02   4.5262450e+01
   2.2583630e+02   3.1538090e+01
   2.2631840e+02   2.3900390e+01
   2.2680050e+02   2.6362300e+01
   2.2728270e+02   4.6830570e+01
   2.2776480e+02   6.2062260e+01
   2.2824690e+02   6.4503420e+01
   2.2872900e+02   5.1851320e+01
   2.2921110e+02   4.4484130e+01
   2.2969320e+02   4.5182370e+01
   2.3017540e+02   4.8944090e+01
   2.3065750e+02   4.8465090e+01
   2.3113960e+02   3.8553710e+01
   2.3162170e+02   3.3812740e+01
   2.3210380e+02   4.0885250e+01
   2.3258590e+02   6.4048100e+01
   2.3306810e+02   7.5222170e+01
   2.3355020e+02   6.8364260e+01
   2.3403230e+02   5.3856200e+01
   2.3451440e+02   4.7180180e+01
   2.3499650e+02   5.3781010e+01
   2.3547860e+02   5.9017580e+01
   2.3596080e+02   5.7669190e+01
   2.3644290e+02   4.7501710e+01
   2.3692500e+02   4.1082030e+01
   2.3740710e+02   3.9477540e+01
   2.3788920e+02   4.0996090e+01
   2.3837130e+02   4.2736570e+01
   2.3885350e+02   4.3078860e+01
   2.3933560e+02   4.6434570e+01
   2.3981770e+02   5.5354000e+01
   2.4029980e+02   7.2583250e+01
   2.4078190e+02   8.5083010e+01
   2.4126400e+02   9.3426030e+01
   2.4174620e+02   9.6975590e+01
   2.4222830e+02   9.3641600e+01
   2.4271040e+02   7.7595460e+01
   2.4319250e+02   6.4250000e+01
   2.4367460e+02   5.8779050e+01
   2.4415670e+02   6.2723880e+01
   2.4463890e+02   7.0289310e+01
   2.4512100e+02   8.5707280e+01
   2.4560310e+02   1.0222120e+02
   2.4608520e+02   1.0677320e+02
   2.4656730e+02   9.2827390e+01
   2.4704940e+02   7.7998540e+01
   2.4753160e+02   6.7850830e+01
   2.4801370e+02   6.2391850e+01
   2.4849580e+02   6.2063230e+01
   2.4897790e+02   6.9054200e+01
   2.4946000e+02   7.9946290e+01
   2.4994210e+02   8.9088130e+01
   2.5042430e+02   9.9396000e+01
   2.5090640e+02   1.0284420e+02
   2.5138850e+02   9.4389650e+01
   2.5187060e+02   6.8022220e+01
   2.5235270e+02   4.9914790e+01
   2.5283480e+02   4.2122310e+01
   2.5331700e+02   4.1287110e+01
   2.5379910e+02   4.2154300e+01
   2.5428120e+02   4.7321290e+01
   2.5476330e+02   4.9075200e+01
   2.5524540e+02   4.2536870e+01
   2.5572750e+02   2.2942870e+01
   2.5620970e+02   1.3294680e+01
   2.5669180e+02   1.6665770e+01
   2.5717390e+02   2.7928710e+01
   2.5765600e+02   3.8644530e+01
   2.5813810e+02   5.0451660e+01
   2.5862020e+02   5.8296140e+01
   2.5910240e+02   5.8985600e+01
   2.5958450e+02   4.9621580e+01
   2.6006660e+02   4.5801760e+01
   2.6054870e+02   5.1353270e+01
   2.6103080e+02   5.9532470e+01
   2.6151290e+02   5.6597660e+01
   2.6199510e+02   3.7000730e+01
   2.6247720e+02   1.9587650e+01
   2.6295930e+02   1.3544190e+01
   2.6344140e+02   2.2730220e+01
   2.6392350e+02   2.3606450e+01
   2.6440560e+02   1.1630860e+01
   2.6488780e+02   4.3598630e+00
   2.6536990e+02   7.1220700e+00
   2.6585200e+02   8.8352050e+00
   2.6633410e+02   2.2290770e+01
   2.6681620e+02   2.2771000e+01
   2.6729830e+02   6.7644040e+00
   2.6778050e+02   2.0024410e+00
   2.6826260e+02   1.4433590e+01
   2.6874470e+02   3.1498780e+01
   2.6922680e+02   2.7548580e+01
   2.6970890e+02   5.3474120e+00
   2.7019100e+02   3.0692630e+01
   2.7067320e+02   3.0545170e+01
   2.7115530e+02   1.2165530e+00
   2.7163740e+02   1.7002930e+01
   2.7211950e+02   2.1832760e+01
   2.7260160e+02   1.8932130e+01
   2.7308370e+02   1.5928710e+01
   2.7356590e+02   1.2337400e+01
   2.7404800e+02   1.1152100e+01
   2.7453010e+02   1.6117430e+01
   2.7501220e+02   2.7700440e+01
   2.7549430e+02   2.7729490e+01
   2.7597640e+02   1.1815430e+01
   2.7645860e+02   7.3994140e+00
   2.7694070e+02   7.4296880e+00
   2.7742280e+02   1.4487550e+01
   2.7790490e+02   3.0964840e+01
   2.7838700e+02   2.5331540e+01
   2.7886910e+02   6.8432600e-01
   2.7935130e+02   4.1145020e+00
   2.7983340e+02   2.0245610e+01
   2.8031550e+02   5.3784910e+01
   2.8079760e+02   7.3663090e+01
   2.8127980e+02   7.9517580e+01
   2.8176190e+02   7.5255130e+01
   2.8224400e+02   5.3132810e+01
   2.8272610e+02   1.8264650e+01
   2.8320820e+02   1.6178470e+01
   2.8369030e+02   5.3922120e+01
   2.8417250e+02   9.8509280e+01
   2.8465460e+02   9.9033450e+01
   2.8513670e+02   3.5366050e+01
   2.8561880e+02   6.8401020e+01
   2.8610090e+02   8.9230550e+01
   2.8658300e+02   9.8511120e+01
   2.8706520e+02   6.1651740e+01
   2.8754730e+02   8.4372730e+01
   2.8802940e+02   8.3216030e+01
   2.8851150e+02   8.1080560e+01
   2.8899360e+02   1.1218700e+02
   2.8947570e+02   8.2038020e+01
   2.8995790e+02   1.1261830e+02
   2.9044000e+02   1.1895620e+02
   2.9092210e+02   1.3638850e+02
   2.9140420e+02   1.2371970e+02
   2.9188630e+02   1.2408520e+02
   2.9236840e+02   1.3425050e+02
   2.9285060e+02   1.5068920e+02
   2.9333270e+02   1.5688260e+02
   2.9381480e+02   1.3982370e+02
   2.9429690e+02   1.1397580e+02
   2.9477900e+02   1.0824490e+02
   2.9526110e+02   1.2275590e+02
   2.9574330e+02   1.4500540e+02
   2.9622540e+02   1.7059470e+02
   2.9670750e+02   1.9578420e+02
   2.9718960e+02   2.0872560e+02
   2.9767170e+02   1.9915840e+02
   2.9815380e+02   1.8211130e+02
   2.9863600e+02   1.8135500e+02
   2.9911810e+02   1.9584470e+02
   2.9960020e+02   2.1261040e+02
   3.0008230e+02   2.2426390e+02
   3.0056440e+02   2.3128490e+02
   3.0104650e+02   2.3352220e+02
   3.0152870e+02   2.2822530e+02
   3.0201080e+02   2.2149880e+02
   3.0249290e+02   2.2425220e+02
   3.0297500e+02   2.3400810e+02
   3.0345710e+02   2.3608670e+02
   3.0393920e+02   2.0744680e+02
   3.0442140e+02   1.6915330e+02
   3.0490350e+02   1.5141480e+02
   3.0538560e+02   1.7169290e+02
   3.0586770e+02   1.9905030e+02
   3.0634980e+02   2.0698360e+02
   3.0683190e+02   1.9876030e+02
   3.0731410e+02   1.8658330e+02
   3.0779620e+02   1.7496480e+02
   3.0827830e+02   1.6484420e+02
   3.0876040e+02   1.5564380e+02
   3.0924250e+02   1.4467500e+02
   3.0972460e+02   1.4077420e+02
   3.1020680e+02   1.5929220e+02
   3.1068890e+02   1.9065210e+02
   3.1117100e+02   2.1039160e+02
   3.1165310e+02   1.9197270e+02
   3.1213520e+02   1.6613480e+02
   3.1261730e+02   1.5626810e+02
   3.1309950e+02   1.7276270e+02
   3.1358160e+02   1.9011870e+02
   3.1406370e+02   1.9950420e+02
   3.1454580e+02   2.0149980e+02
   3.1502790e+02   1.9683200e+02
   3.1551000e+02   1.7693580e+02
   3.1599220e+02   1.5795140e+02
   3.1647430e+02   1.5052470e+02
   3.1695640e+02   1.6002470e+02
   3.1743850e+02   1.6567290e+02
   3.1792060e+02   1.5576270e+02
   3.1840270e+02   1.3858590e+02
   3.1888490e+02   1.2572270e+02
   3.1936700e+02   1.2078270e+02
   3.1984910e+02   1.1974830e+02
   3.2033120e+02   1.2463330e+02
   3.2081330e+02   1.3835550e+02
   3.2129540e+02   1.4237280e+02
   3.2177760e+02   1.2215010e+02
   3.2225970e+02   9.5705320e+01
   3.2274180e+02   8.0956790e+01
   3.2322390e+02   9.1586910e+01
   3.2370600e+02   1.0371000e+02
   3.2418810e+02   1.1315530e+02
   3.2467030e+02   1.1989010e+02
   3.2515240e+02   1.2233150e+02
   3.2563450e+02   1.1809940e+02
   3.2611660e+02   1.1047900e+02
   3.2659870e+02   1.0213600e+02
   3.2708080e+02   8.7596920e+01
   3.2756300e+02   7.8975830e+01
   3.2804510e+02   8.0096440e+01
   3.2852720e+02   9.1015140e+01
   3.2900930e+02   9.7032710e+01
   3.2949140e+02   9.2718510e+01
   3.2997350e+02   8.9304440e+01
   3.3045570e+02   8.8802980e+01
   3.3093780e+02   9.7875490e+01
   3.3141990e+02   1.0114280e+02
   3.3190200e+02   9.7857670e+01
   3.3238410e+02   8.6598630e+01
   3.3286620e+02   7.7724850e+01
   3.3334840e+02   6.9714840e+01
   3.3383050e+02   6.4638180e+01
   3.3431260e+02   6.9790770e+01
   3.3479470e+02   8.5702640e+01
   3.3527680e+02   9.6595210e+01
   3.3575890e+02   9.9076420e+01
   3.3624110e+02   9.7697750e+01
   3.3672320e+02   1.0121850e+02
   3.3720530e+02   1.1089500e+02
   3.3768740e+02   1.1689060e+02
   3.3816950e+02   1.1109080e+02
   3.3865160e+02   9.1065430e+01
   3.3913380e+02   8.3516850e+01
   3.3961590e+02   9.3462650e+01
   3.4009800e+02   1.1051610e+02
   3.4058010e+02   1.1415580e+02
   3.4106220e+02   1.0154960e+02
   3.4154430e+02   8.9266600e+01
   3.4202650e+02   8.9308350e+01
   3.4250860e+02   1.0020090e+02
   3.4299070e+02   1.0483250e+02
   3.4347280e+02   1.0273800e+02
   3.4395490e+02   9.7250980e+01
   3.4443700e+02   9.3415280e+01
   3.4491920e+02   9.1710940e+01
   3.4540130e+02   9.0954590e+01
   3.4588340e+02   9.0895260e+01
   3.4636550e+02   8.9952390e+01
   3.4684760e+02   8.2652830e+01
   3.4732970e+02   6.8781740e+01
   3.4781190e+02   5.8051510e+01
   3.4829400e+02   6.6128910e+01
   3.4877610e+02   8.6117190e+01
   3.4925820e+02   9.5264400e+01
   3.4974030e+02   7.9731200e+01
   3.5022250e+02   5.7943850e+01
   3.5070460e+02   6.2428470e+01
   3.5118670e+02   8.9538330e+01
   3.5166880e+02   1.1061910e+02
   3.5215090e+02   9.6612300e+01
   3.5263310e+02   6.5319820e+01
   3.5311520e+02   4.3999270e+01
   3.5359730e+02   4.1042720e+01
   3.5407940e+02   4.5478520e+01
   3.5456150e+02   5.0171390e+01
   3.5504360e+02   5.4686280e+01
   3.5552580e+02   5.7696780e+01
   3.5600790e+02   6.0086910e+01
   3.5649000e+02   5.9948970e+01
   3.5697210e+02   5.3280270e+01
   3.5745420e+02   3.5869630e+01
   3.5793630e+02   2.3390620e+01
   3.5841850e+02   2.8770260e+01
   3.5890060e+02   4.4496580e+01
   3.5938270e+02   5.7577390e+01
   3.5986480e+02   6.2297120e+01
   3.6034690e+02   6.3579590e+01
   3.6082900e+02   6.4776370e+01
   3.6131120e+02   6.6848630e+01
   3.6179330e+02   6.3784180e+01
   3.6227540e+02   4.8332760e+01
   3.6275750e+02   2.8789060e+01
   3.6323960e+02   1.4126460e+01
   3.6372170e+02   3.5012210e+00
   3.6420390e+02   9.4287100e-01
   3.6468600e+02   1.2581790e+01
   3.6516810e+02   3.8629390e+01
   3.6565020e+02   5.5782230e+01
   3.6613230e+02   5.7282960e+01
   3.6661440e+02   5.1771000e+01
   3.6709660e+02   4.5129390e+01
   3.6757870e+02   3.7710210e+01
   3.6806080e+02   2.8861570e+01
   3.6854290e+02   1.3585450e+01
   3.6902500e+02   4.7351070e+00
   3.6950710e+02   7.6105960e+00
   3.6998930e+02   1.9182620e+01
   3.7047140e+02   4.4849610e+01
   3.7095350e+02   5.2731200e+01
   3.7143560e+02   2.9145020e+01
   3.7191770e+02   1.9865970e+01
   3.7239980e+02   3.3397460e+01
   3.7288200e+02   5.7530520e+01
   3.7336410e+02   6.3172850e+01
   3.7384620e+02   4.2986330e+01
   3.7432830e+02   2.3359380e+01
   3.7481040e+02   1.5684080e+01
   3.7529250e+02   2.1178470e+01
   3.7577470e+02   2.3116700e+01
   3.7625680e+02   1.9561770e+01
   3.7673890e+02   1.6388920e+01
   3.7722100e+02   2.5939210e+01
   3.7770310e+02   4.9899410e+01
   3.7818520e+02   6.1338870e+01
   3.7866740e+02   4.5155270e+01
   3.7914950e+02   1.0253420e+01
   3.7963160e+02   3.2983400e+00
   3.8011370e+02   6.2895510e+00
   3.8059580e+02   2.1655760e+01
   3.8107790e+02   2.7114750e+01
   3.8156010e+02   2.4457030e+01
   3.8204220e+02   2.1541020e+01
   3.8252430e+02   1.9469240e+01
   3.8300640e+02   1.8948240e+01
   3.8348850e+02   2.2367680e+01
   3.8397060e+02   2.9223140e+01
   3.8445280e+02   3.5245120e+01
   3.8493490e+02   3.8901370e+01
   3.8541700e+02   3.9559570e+01
   3.8589910e+02   3.5937500e+01
   3.8638120e+02   2.7167480e+01
   3.8686330e+02   1.6350100e+01
   3.8734550e+02   3.0943360e+01
   3.8782760e+02   3.1767580e+00
   3.8830970e+02   1.1938960e+01
   3.8879180e+02   1.5092770e+01
   3.8927390e+02   2.9524900e+01
   3.8975600e+02   1.2492680e+01
   3.9023820e+02   2.0195800e+01
   3.9072030e+02   2.8933590e+01
   3.9120240e+02   3.2861330e+00
   3.9168450e+02   4.1061040e+01
   3.9216660e+02   1.6001950e+01
   3.9264870e+02   1.6053220e+01
   3.9313090e+02   4.6372070e+00
   3.9361300e+02   1.8103030e+01
   3.9409510e+02   2.3906740e+01
   3.9457720e+02   4.8500980e+00
   3.9505930e+02   4.2041000e-01
   3.9554140e+02   4.3383790e+00
   3.9602360e+02   1.8722170e+01
   3.9650570e+02   7.3994140e+00
   3.9698780e+02   5.2436520e+00
   3.9746990e+02   2.4291500e+01
   3.9795200e+02   4.4052730e+01
   3.9843410e+02   4.6089360e+01
   3.9891630e+02   5.5317380e+00
   3.9939840e+02   2.6882810e+01
   3.9988050e+02   2.9495120e+01
   4.0036260e+02   1.3674800e+01
   4.0084470e+02   3.8245120e+01
   4.0132680e+02   3.4601560e+01
   4.0180900e+02   1.9449710e+01
   4.0229110e+02   1.7715820e+01
   4.0277320e+02   3.6716310e+01
   4.0325530e+02   5.0055660e+01
   4.0373740e+02   4.9451170e+01
   4.0421950e+02   3.5717770e+01
   4.0470170e+02   2.2698240e+01
   4.0518380e+02   9.4599610e+00
   4.0566590e+02   5.2685500e-01
   4.0614800e+02   2.3198240e+00
   4.0663010e+02   4.2597660e+00
   4.0711220e+02   6.5629880e+00
   4.0759440e+02   2.4413999e-02
   4.0807650e+02   9.6289060e+00
   4.0855860e+02   6.4033200e+00
   4.0904070e+02   9.3876950e+00
   4.0952280e+02   2.3076660e+01
   4.1000490e+02   2.4163090e+01
   4.1048710e+02   1.5634770e+01
   4.1096920e+02   3.7529300e+00
   4.1145130e+02   1.2933110e+01
   4.1193340e+02   2.6198730e+01
   4.1241550e+02   2.3116210e+01
   4.1289760e+02   8.4389650e+00
   4.1337980e+02   4.1137700e+00
   4.1386190e+02   1.2166990e+01
   4.1434400e+02   1.2864260e+01
   4.1482610e+02   3.5068360e+00
   4.1530820e+02   3.6644530e+01
   4.1579030e+02   5.9827150e+01
   4.1627250e+02   4.5229000e+01
   4.1675460e+02   1.6176760e+01
   4.1723670e+02   1.5507810e+00
   4.1771880e+02   6.1323240e+00
   4.1820090e+02   2.0162600e+01
   4.1868300e+02   3.3432620e+01
   4.1916520e+02   4.6384770e+01
   4.1964730e+02   5.9930180e+01
   4.2012940e+02   8.2791990e+01
   4.2061150e+02   9.9763670e+01
   4.2109370e+02   1.0088380e+02
   4.2157580e+02   7.3892090e+01
   4.2205790e+02   5.4854490e+01
   4.2254000e+02   5.4062500e+01
   4.2302210e+02   6.3926270e+01
   4.2350420e+02   7.1035640e+01
   4.2398640e+02   6.7347660e+01
   4.2446850e+02   6.8733400e+01
   4.2495060e+02   8.0966310e+01
   4.2543270e+02   1.0502000e+02
   4.2591480e+02   1.2406350e+02
   4.2639690e+02   1.3825390e+02
   4.2687910e+02   1.4616110e+02
   4.2736120e+02   1.4516360e+02
   4.2784330e+02   1.3106300e+02
   4.2832540e+02   1.2762840e+02
   4.2880750e+02   1.4113040e+02
   4.2928960e+02   1.6525490e+02
   4.2977180e+02   1.7775630e+02
   4.3025390e+02   1.7674710e+02
   4.3073600e+02   1.7846920e+02
   4.3121810e+02   1.9833840e+02
   4.3170020e+02   2.3402490e+02
   4.3218230e+02   2.4781690e+02
   4.3266450e+02   2.3379490e+02
   4.3314660e+02   2.1258540e+02
   4.3362870e+02   2.1252780e+02
   4.3411080e+02   2.2994380e+02
   4.3459290e+02   2.4776420e+02
   4.3507500e+02   2.5726810e+02
   4.3555720e+02   2.6388130e+02
   4.3603930e+02   2.7793160e+02
   4.3652140e+02   2.9912110e+02
   4.3700350e+02   3.2047710e+02
   4.3748560e+02   3.3944970e+02
   4.3796770e+02   3.5590330e+02
   4.3844990e+02   3.6736960e+02
   4.3893200e+02   3.7069240e+02
   4.3941410e+02   3.7165380e+02
   4.3989620e+02   3.7079000e+02
   4.4037830e+02   3.7049460e+02
   4.4086040e+02   3.7707180e+02
   4.4134260e+02   3.9669240e+02
   4.4182470e+02   4.2138720e+02
   4.4230680e+02   4.4869190e+02
   4.4278890e+02   4.8026070e+02
   4.4327100e+02   5.0504300e+02
   4.4375310e+02   5.2072560e+02
   4.4423530e+02   5.2779540e+02
   4.4471740e+02   5.2705130e+02
   4.4519950e+02   4.9820700e+02
   4.4568160e+02   4.8288570e+02
   4.4616370e+02   4.8994190e+02
   4.4664580e+02   5.1668650e+02
   4.4712800e+02   5.4148780e+02
   4.4761010e+02   5.6881690e+02
   4.4809220e+02   5.9503660e+02
   4.4857430e+02   6.1829440e+02
   4.4905640e+02   6.3953610e+02
   4.4953850e+02   6.6006590e+02
   4.5002070e+02   6.8485740e+02
   4.5050280e+02   7.1005180e+02
   4.5098490e+02   7.3036230e+02
   4.5146700e+02   7.4252830e+02
   4.5194910e+02   7.5735990e+02
   4.5243120e+02   7.8464600e+02
   4.5291340e+02   8.2026370e+02
   4.5339550e+02   8.3630570e+02
   4.5387760e+02   8.3047360e+02
   4.5435970e+02   8.2027880e+02
   4.5484180e+02   8.2474320e+02
   4.5532390e+02   8.3920800e+02
   4.5580610e+02   8.4406980e+02
   4.5628820e+02   8.3006540e+02
   4.5677030e+02   8.1738720e+02
   4.5725240e+02   8.3607230e+02
   4.5773450e+02   8.7838480e+02
   4.5821660e+02   9.1421000e+02
   4.5869880e+02   9.2093460e+02
   4.5918090e+02   9.1488820e+02
   4.5966300e+02   9.1168120e+02
   4.6014510e+02   9.1237550e+02
   4.6062720e+02   9.1256100e+02
   4.6110930e+02   9.0899610e+02
   4.6159150e+02   9.0513720e+02
   4.6207360e+02   9.0498490e+02
   4.6255570e+02   9.1505660e+02
   4.6303780e+02   9.2340670e+02
   4.6351990e+02   9.2519970e+02
   4.6400200e+02   9.2056640e+02
   4.6448420e+02   9.1307230e+02
   4.6496630e+02   9.0030470e+02
   4.6544840e+02   8.8752880e+02
   4.6593050e+02   8.7724850e+02
   4.6641260e+02   8.7052200e+02
   4.6689470e+02   8.6424410e+02
   4.6737690e+02   8.5878710e+02
   4.6785900e+02   8.5371090e+02
   4.6834110e+02   8.4839360e+02
   4.6882320e+02   8.4475630e+02
   4.6930530e+02   8.3618800e+02
   4.6978740e+02   8.1735500e+02
   4.7026960e+02   7.8950540e+02
   4.7075170e+02   7.7984520e+02
   4.7123380e+02   7.9494290e+02
   4.7171590e+02   8.0776370e+02
   4.7219800e+02   7.8861910e+02
   4.7268010e+02   7.3872710e+02
   4.7316230e+02   7.0639110e+02
   4.7364440e+02   7.0343990e+02
   4.7412650e+02   7.1068800e+02
   4.7460860e+02   6.9108250e+02
   4.7509070e+02   6.4901660e+02
   4.7557280e+02   6.1310110e+02
   4.7605500e+02   6.0738380e+02
   4.7653710e+02   6.1427290e+02
   4.7701920e+02   6.0393260e+02
   4.7750130e+02   5.7518310e+02
   4.7798340e+02   5.4349900e+02
   4.7846550e+02   5.1807420e+02
   4.7894770e+02   4.9765480e+02
   4.7942980e+02   4.8115670e+02
   4.7991190e+02   4.7156540e+02
   4.8039400e+02   4.6135110e+02
   4.8087610e+02   4.4570260e+02
   4.8135820e+02   4.2625440e+02
   4.8184040e+02   4.0785550e+02
   4.8232250e+02   3.9756740e+02
   4.8280460e+02   3.8417240e+02
   4.8328670e+02   3.6000590e+02
   4.8376880e+02   3.1858690e+02
   4.8425090e+02   2.8675630e+02
   4.8473310e+02   2.7113230e+02
   4.8521520e+02   2.6399850e+02
   4.8569730e+02   2.5907130e+02
   4.8617940e+02   2.6368210e+02
   4.8666150e+02   2.5724510e+02
   4.8714360e+02   2.3219870e+02
   4.8762580e+02   1.9366940e+02
   4.8810790e+02   1.6512210e+02
   4.8859000e+02   1.4692870e+02
   4.8907210e+02   1.3826070e+02
   4.8955420e+02   1.4241110e+02
   4.9003630e+02   1.5956880e+02
   4.9051850e+02   1.6976510e+02
   4.9100060e+02   1.7186040e+02
   4.9148270e+02   1.6872950e+02
   4.9196480e+02   1.6027390e+02
   4.9244700e+02   1.4827640e+02
   4.9292910e+02   1.4307320e+02
   4.9341120e+02   1.5106150e+02
   4.9389330e+02   1.6532570e+02
   4.9437540e+02   1.7389650e+02
   4.9485750e+02   1.7813280e+02
   4.9533970e+02   1.8594970e+02
   4.9582180e+02   2.1299170e+02
   4.9630390e+02   2.4147070e+02
   4.9678600e+02   2.4685940e+02
   4.9726810e+02   2.1758840e+02
   4.9775020e+02   1.9752980e+02
   4.9823240e+02   2.1416160e+02
   4.9871450e+02   2.5275490e+02
   4.9919660e+02   2.9366110e+02
   4.9967870e+02   3.2831540e+02
   5.0016080e+02   3.6695610e+02
   5.0064290e+02   4.2046190e+02
   5.0112510e+02   4.8668650e+02
   5.0160720e+02   5.3134030e+02
   5.0208930e+02   5.2431590e+02
   5.0257140e+02   5.2040580e+02
   5.0305350e+02   5.4616550e+02
   5.0353560e+02   6.1413180e+02
   5.0401780e+02   6.8252830e+02
   5.0449990e+02   7.5438530e+02
   5.0498200e+02   8.2328470e+02
   5.0546410e+02   8.7730760e+02
   5.0594620e+02   9.1197750e+02
   5.0642830e+02   9.5460890e+02
   5.0691050e+02   1.0157260e+03
   5.0739260e+02   1.0898290e+03
   5.0787470e+02   1.1534050e+03
   5.0835680e+02   1.2060700e+03
   5.0883890e+02   1.2596020e+03
   5.0932100e+02   1.3250900e+03
   5.0980320e+02   1.3991100e+03
   5.1028530e+02   1.4728570e+03
   5.1076740e+02   1.5449860e+03
   5.1124950e+02   1.6178740e+03
   5.1173160e+02   1.6982700e+03
   5.1221370e+02   1.7813170e+03
   5.1269590e+02   1.8558870e+03
   5.1317800e+02   1.9054470e+03
   5.1366010e+02   1.9557970e+03
   5.1414220e+02   2.0285180e+03
   5.1462430e+02   2.1199750e+03
   5.1510640e+02   2.2044980e+03
   5.1558860e+02   2.2629040e+03
   5.1607070e+02   2.3179610e+03
   5.1655280e+02   2.3836560e+03
   5.1703490e+02   2.4695520e+03
   5.1751700e+02   2.5509630e+03
   5.1799910e+02   2.6195360e+03
   5.1848130e+02   2.6841960e+03
   5.1896340e+02   2.7573900e+03
   5.1944550e+02   2.8536620e+03
   5.1992760e+02   2.9332670e+03
   5.2040970e+02   2.9840400e+03
   5.2089180e+02   3.0090270e+03
   5.2137400e+02   3.0399400e+03
   5.2185610e+02   3.0784060e+03
   5.2233820e+02   3.1190200e+03
   5.2282030e+02   3.1593410e+03
   5.2330240e+02   3.1977470e+03
   5.2378450e+02   3.2245070e+03
   5.2426670e+02   3.2369180e+03
   5.2474880e+02   3.2464790e+03
   5.2523090e+02   3.2731990e+03
   5.2571300e+02   3.3107080e+03
   5.2619510e+02   3.3356420e+03
   5.2667720e+02   3.3340060e+03
   5.2715940e+02   3.3213440e+03
   5.2764150e+02   3.3175000e+03
   5.2812360e+02   3.3204610e+03
   5.2860570e+02   3.3172960e+03
   5.2908780e+02   3.2990280e+03
   5.2956990e+02   3.2715520e+03
   5.3005210e+02   3.2388530e+03
   5.3053420e+02   3.2002940e+03
   5.3101630e+02   3.1600940e+03
   5.3149840e+02   3.1208500e+03
   5.3198050e+02   3.0796650e+03
   5.3246260e+02   3.0336910e+03
   5.3294480e+02   2.9713480e+03
   5.3342690e+02   2.9189160e+03
   5.3390900e+02   2.8814790e+03
   5.3439110e+02   2.8561990e+03
   5.3487320e+02   2.8351530e+03
   5.3535530e+02   2.8249770e+03
   5.3583750e+02   2.8026260e+03
   5.3631960e+02   2.7518530e+03
   5.3680170e+02   2.6699010e+03
   5.3728380e+02   2.6250350e+03
   5.3776590e+02   2.6265390e+03
   5.3824800e+02   2.6330580e+03
   5.3873020e+02   2.5974990e+03
   5.3921230e+02   2.5247530e+03
   5.3969440e+02   2.4489870e+03
   5.4017650e+02   2.3738570e+03
   5.4065860e+02   2.3072860e+03
   5.4114070e+02   2.2630350e+03
   5.4162290e+02   2.2358850e+03
   5.4210500e+02   2.2068540e+03
   5.4258710e+02   2.1613330e+03
   5.4306920e+02   2.1114730e+03
   5.4355130e+02   2.0703750e+03
   5.4403340e+02   2.0397710e+03
   5.4451560e+02   2.0057070e+03
   5.4499770e+02   1.9541250e+03
   5.4547980e+02   1.8993140e+03
   5.4596190e+02   1.8537660e+03
   5.4644400e+02   1.8292010e+03
   5.4692610e+02   1.8007410e+03
   5.4740830e+02   1.7706210e+03
   5.4789040e+02   1.7344770e+03
   5.4837250e+02   1.6813370e+03
   5.4885460e+02   1.5944000e+03
   5.4933670e+02   1.5163180e+03
   5.4981880e+02   1.4587890e+03
   5.5030100e+02   1.4204800e+03
   5.5078310e+02   1.3842590e+03
   5.5126520e+02   1.3506140e+03
   5.5174730e+02   1.3161110e+03
   5.5222940e+02   1.2770760e+03
   5.5271150e+02   1.2344800e+03
   5.5319370e+02   1.1947850e+03
   5.5367580e+02   1.1562920e+03
   5.5415790e+02   1.1299550e+03
   5.5464000e+02   1.1542650e+03
   5.5512210e+02   1.2046290e+03
   5.5560420e+02   1.2084150e+03
   5.5608640e+02   1.1118560e+03
   5.5656850e+02   9.8551070e+02
   5.5705060e+02   8.8901070e+02
   5.5753270e+02   8.1849800e+02
   5.5801480e+02   7.6148190e+02
   5.5849690e+02   7.1932670e+02
   5.5897910e+02   6.8300050e+02
   5.5946120e+02   6.4775100e+02
   5.5994330e+02   6.1312650e+02
   5.6042540e+02   5.7990720e+02
   5.6090750e+02   5.4893210e+02
   5.6138960e+02   5.1915670e+02
   5.6187180e+02   4.8883540e+02
   5.6235390e+02   4.5332910e+02
   5.6283600e+02   4.2579790e+02
   5.6331810e+02   4.1179100e+02
   5.6380020e+02   4.0444630e+02
   5.6428230e+02   3.8507180e+02
   5.6476450e+02   3.5054440e+02
   5.6524660e+02   3.1889750e+02
   5.6572870e+02   2.9871580e+02
   5.6621080e+02   2.8752100e+02
   5.6669290e+02   2.7399410e+02
   5.6717500e+02   2.5824410e+02
   5.6765720e+02   2.4116460e+02
   5.6813930e+02   2.2319190e+02
   5.6862140e+02   2.0455220e+02
   5.6910350e+02   1.8676460e+02
   5.6958560e+02   1.7027930e+02
   5.7006770e+02   1.5363230e+02
   5.7054990e+02   1.3504100e+02
   5.7103200e+02   1.1608060e+02
   5.7151410e+02   9.7673830e+01
   5.7199620e+02   7.5500980e+01
   5.7247830e+02   5.8871090e+01
   5.7296040e+02   5.4548340e+01
   5.7344260e+02   6.0283200e+01
   5.7392470e+02   6.4237790e+01
   5.7440680e+02   6.3678710e+01
   5.7488890e+02   6.1924320e+01
   5.7537100e+02   6.1958010e+01
   5.7585310e+02   6.6546880e+01
   5.7633530e+02   5.6462890e+01
   5.7681740e+02   2.1954590e+01
   5.7729950e+02   1.2591310e+01
   5.7778160e+02   1.8721190e+01
   5.7826370e+02   7.6450200e+00
   5.7874580e+02   1.6901860e+01
   5.7922800e+02   2.7167970e+00
   5.7971010e+02   3.4082030e+01
   5.8019220e+02   4.7447750e+01
   5.8067430e+02   4.4972660e+01
   5.8115640e+02   3.8795410e+01
   5.8163850e+02   3.2489260e+01
   5.8212070e+02   2.6743650e+01
   5.8260280e+02   2.3086910e+01
   5.8308490e+02   2.1247070e+01
   5.8356700e+02   1.9009770e+01
   5.8404910e+02   1.0956540e+01
   5.8453130e+02   4.6147460e+00
   5.8501340e+02   7.4931640e+00
   5.8549550e+02   2.4823730e+01
   5.8597760e+02   3.7783690e+01
   5.8645970e+02   3.9661130e+01
   5.8694180e+02   3.5433590e+01
   5.8742400e+02   3.0549800e+01
   5.8790610e+02   2.4418950e+01
   5.8838820e+02   1.8732910e+01
   5.8887030e+02   1.2142580e+01
   5.8935240e+02   6.5205080e+00
   5.8983450e+02   8.4301760e+00
   5.9031670e+02   1.9639160e+01
   5.9079880e+02   3.1428710e+01
   5.9128090e+02   4.2799320e+01
   5.9176300e+02   5.1841800e+01
   5.9224510e+02   4.6495120e+01
   5.9272720e+02   2.6413090e+01
   5.9320940e+02   6.3671900e-01
   5.9369150e+02   3.1968750e+01
   5.9417360e+02   6.3186520e+01
   5.9465570e+02   7.4726070e+01
   5.9513780e+02   5.9979980e+01
   5.9561990e+02   4.0384770e+01
   5.9610210e+02   3.1787600e+01
   5.9658420e+02   2.8935550e+01
   5.9706630e+02   2.3341800e+01
   5.9754850e+02   8.2416990e+00
   5.9803060e+02   4.6665040e+00
   5.9851270e+02   1.3138180e+01
   5.9899480e+02   1.6737300e+01
   5.9947690e+02   1.3588380e+01
   5.9995900e+02   6.7290040e+00
   6.0044120e+02   2.1086910e+01
   6.0092330e+02   1.9216800e+01
   6.0140540e+02   5.3027300e-01
   6.0188750e+02   9.9565430e+00
   6.0236960e+02   6.6499020e+00
   6.0285170e+02   1.2661130e+00
   6.0333390e+02   1.0146000e+01
   6.0381600e+02   1.9355470e+01
   6.0429810e+02   1.4849610e+01
   6.0478020e+02   9.3173830e+00
   6.0526230e+02   3.1731930e+01
   6.0574440e+02   1.5650880e+01
   6.0622660e+02   2.5281250e+01
   6.0670870e+02   5.3509280e+01
   6.0719080e+02   4.6624510e+01
   6.0767290e+02   3.1275880e+01
   6.0815500e+02   2.3851070e+01
   6.0863710e+02   2.4674800e+01
   6.0911930e+02   3.4524900e+01
   6.0960140e+02   7.2380370e+01
   6.1008350e+02   1.0330620e+02
   6.1056560e+02   1.0646920e+02
   6.1104770e+02   7.6387210e+01
   6.1152980e+02   5.1945800e+01
   6.1201200e+02   3.1771970e+01
   6.1249410e+02   2.0427250e+01
   6.1297620e+02   2.3271970e+01
   6.1345830e+02   4.5972170e+01
   6.1394040e+02   6.1749020e+01
   6.1442250e+02   6.7673830e+01
   6.1490470e+02   6.9624020e+01
   6.1538680e+02   7.8157710e+01
   6.1586890e+02   9.2388670e+01
   6.1635100e+02   9.8867680e+01
   6.1683310e+02   9.0077640e+01
   6.1731520e+02   7.6268550e+01
   6.1779740e+02   7.3330080e+01
   6.1827950e+02   7.9258790e+01
   6.1876160e+02   8.5989750e+01
   6.1924370e+02   8.9605470e+01
   6.1972580e+02   9.1937010e+01
   6.2020790e+02   9.4456050e+01
   6.2069010e+02   9.7220210e+01
   6.2117220e+02   9.9103030e+01
   6.2165430e+02   9.7850100e+01
   6.2213640e+02   9.6899410e+01
   6.2261850e+02   9.9414060e+01
   6.2310060e+02   1.1160940e+02
   6.2358280e+02   1.1319480e+02
   6.2406490e+02   9.8185060e+01
   6.2454700e+02   7.8063960e+01
   6.2502910e+02   6.5759280e+01
   6.2551120e+02   6.1560060e+01
   6.2599330e+02   6.5510250e+01
   6.2647550e+02   8.2310060e+01
   6.2695760e+02   1.0087700e+02
   6.2743970e+02   9.1235840e+01
   6.2792180e+02   5.7705570e+01
   6.2840390e+02   3.3232420e+01
   6.2888600e+02   4.2268550e+01
   6.2936820e+02   6.5414550e+01
   6.2985030e+02   7.6000000e+01
   6.3033240e+02   7.5573240e+01
   6.3081450e+02   7.6399410e+01
   6.3129660e+02   8.6124510e+01
   6.3177870e+02   9.9276370e+01
   6.3226090e+02   1.1358150e+02
   6.3274300e+02   1.3088670e+02
   6.3322510e+02   1.4076460e+02
   6.3370720e+02   1.3664940e+02
   6.3418930e+02   1.2686330e+02
   6.3467140e+02   1.1793900e+02
   6.3515360e+02   1.0867190e+02
   6.3563570e+02   1.0112550e+02
   6.3611780e+02   9.4644530e+01
   6.3659990e+02   9.2122070e+01
   6.3708200e+02   1.0425100e+02
   6.3756410e+02   1.3060300e+02
   6.3804630e+02   1.4704540e+02
   6.3852840e+02   1.4219190e+02
   6.3901050e+02   1.2751170e+02
   6.3949260e+02   1.2733840e+02
   6.3997470e+02   1.3907810e+02
   6.4045680e+02   1.4776420e+02
   6.4093900e+02   1.4098680e+02
   6.4142110e+02   1.2917090e+02
   6.4190320e+02   1.2210740e+02
   6.4238530e+02   1.2037990e+02
   6.4286740e+02   1.1907960e+02
   6.4334950e+02   1.1192720e+02
   6.4383170e+02   1.0642090e+02
   6.4431380e+02   1.0928420e+02
   6.4479590e+02   1.3198190e+02
   6.4527800e+02   1.4317870e+02
   6.4576010e+02   1.4084080e+02
   6.4624220e+02   1.2895210e+02
   6.4672440e+02   1.0827880e+02
   6.4720650e+02   7.4571290e+01
   6.4768860e+02   5.5512210e+01
   6.4817070e+02   5.9165040e+01
   6.4865280e+02   7.4085450e+01
   6.4913490e+02   7.4404790e+01
   6.4961710e+02   6.3089840e+01
   6.5009920e+02   6.1382810e+01
   6.5058130e+02   9.1684570e+01
   6.5106340e+02   1.3035690e+02
   6.5154550e+02   1.5092430e+02
   6.5202760e+02   1.5327930e+02
   6.5250980e+02   1.3917820e+02
   6.5299190e+02   8.4532710e+01
   6.5347400e+02   3.3171880e+01
   6.5395610e+02   1.5672360e+01
   6.5443820e+02   4.0774410e+01
   6.5492030e+02   6.4308110e+01
   6.5540250e+02   7.9047360e+01
   6.5588460e+02   9.0960450e+01
   6.5636670e+02   1.0595460e+02
   6.5684880e+02   1.3104930e+02
   6.5733090e+02   1.3715920e+02
   6.5781300e+02   1.1807520e+02
   6.5829520e+02   9.1588380e+01
   6.5877730e+02   8.5735350e+01
   6.5925940e+02   9.7581050e+01
   6.5974150e+02   1.0183790e+02
   6.6022360e+02   8.9358400e+01
   6.6070570e+02   7.2788570e+01
   6.6118790e+02   7.1161620e+01
   6.6167000e+02   8.0018550e+01
   6.6215210e+02   8.6797360e+01
   6.6263420e+02   8.0553710e+01
   6.6311630e+02   7.2472660e+01
   6.6359840e+02   7.2383300e+01
   6.6408060e+02   8.0804690e+01
   6.6456270e+02   8.9708500e+01
   6.6504480e+02   1.0090870e+02
   6.6552690e+02   1.0800440e+02
   6.6600900e+02   1.0749850e+02
   6.6649110e+02   9.8311040e+01
   6.6697330e+02   9.1035160e+01
   6.6745540e+02   8.4561040e+01
   6.6793750e+02   8.1977050e+01
   6.6841960e+02   9.0097660e+01
   6.6890170e+02   1.0830910e+02
   6.6938390e+02   1.1278270e+02
   6.6986600e+02   9.7776860e+01
   6.7034810e+02   7.8624020e+01
   6.7083020e+02   7.4302250e+01
   6.7131230e+02   8.0794430e+01
   6.7179440e+02   8.8177730e+01
   6.7227660e+02   9.4642580e+01
   6.7275870e+02   9.8937500e+01
   6.7324080e+02   1.0011770e+02
   6.7372290e+02   9.9424800e+01
   6.7420500e+02   9.7257810e+01
   6.7468710e+02   9.1329590e+01
   6.7516930e+02   8.6963380e+01
   6.7565140e+02   8.7277830e+01
   6.7613350e+02   9.0704590e+01
   6.7661560e+02   8.8252440e+01
   6.7709770e+02   7.6584470e+01
   6.7757980e+02   6.6587890e+01
   6.7806200e+02   6.2806150e+01
   6.7854410e+02   6.4950200e+01
   6.7902620e+02   7.2240230e+01
   6.7950830e+02   8.5174320e+01
   6.7999040e+02   9.6218750e+01
   6.8047250e+02   9.8902830e+01
   6.8095470e+02   9.5647950e+01
   6.8143680e+02   8.9403810e+01
   6.8191890e+02   8.1502440e+01
   6.8240100e+02   7.6077640e+01
   6.8288310e+02   7.3785160e+01
   6.8336520e+02   7.5368650e+01
   6.8384740e+02   8.0896480e+01
   6.8432950e+02   9.7466800e+01
   6.8481160e+02   1.0662010e+02
   6.8529370e+02   9.8130370e+01
   6.8577580e+02   8.3855470e+01
   6.8625790e+02   8.1262700e+01
   6.8674010e+02   1.0036570e+02
   6.8722220e+02   1.0560300e+02
   6.8770430e+02   8.4025390e+01
   6.8818640e+02   5.0409670e+01
   6.8866850e+02   4.1997070e+01
   6.8915060e+02   5.7507320e+01
   6.8963280e+02   7.6405760e+01
   6.9011490e+02   9.8066410e+01
   6.9059700e+02   1.1237010e+02
   6.9107910e+02   9.5220700e+01
   6.9156120e+02   5.3271970e+01
   6.9204330e+02   2.0905760e+01
   6.9252550e+02   2.0523930e+01
   6.9300760e+02   3.1930180e+01
   6.9348970e+02   4.4467770e+01
   6.9397180e+02   5.6641600e+01
   6.9445390e+02   6.8849120e+01
   6.9493600e+02   8.8946290e+01
   6.9541820e+02   1.0309860e+02
   6.9590030e+02   1.0138870e+02
   6.9638240e+02   7.7737300e+01
   6.9686450e+02   6.5187990e+01
   6.9734660e+02   6.6567380e+01
   6.9782870e+02   7.1623540e+01
   6.9831090e+02   6.9001950e+01
   6.9879300e+02   6.0138180e+01
   6.9927510e+02   5.1442380e+01
   6.9975720e+02   4.2778320e+01
   7.0023930e+02   3.9344240e+01
   7.0072140e+02   5.3619140e+01
   7.0120360e+02   7.5432620e+01
   7.0168570e+02   8.7572750e+01
   7.0216780e+02   6.9471680e+01
   7.0264990e+02   5.7526370e+01
   7.0313200e+02   7.9876950e+01
   7.0361410e+02   1.1803520e+02
   7.0409630e+02   1.2348000e+02
   7.0457840e+02   5.8188960e+01
   7.0506050e+02   1.6442870e+01
   7.0554260e+02   2.9225100e+01
   7.0602470e+02   8.0167970e+01
   7.0650680e+02   8.8924320e+01
   7.0698900e+02   4.9634770e+01
   7.0747110e+02   1.7062500e+01
   7.0795320e+02   2.7179200e+01
   7.0843530e+02   6.3181150e+01
   7.0891740e+02   8.4011230e+01
   7.0939950e+02   9.0320800e+01
   7.0988170e+02   8.7033690e+01
   7.1036380e+02   6.3663090e+01
   7.1084590e+02   4.1167480e+01
   7.1132800e+02   4.2237790e+01
   7.1181010e+02   7.2483890e+01
   7.1229220e+02   9.5963380e+01
   7.1277440e+02   1.0039450e+02
   7.1325650e+02   9.5223140e+01
   7.1373860e+02   8.6757320e+01
   7.1422070e+02   7.2519040e+01
   7.1470280e+02   6.1153810e+01
   7.1518490e+02   5.2199220e+01
   7.1566710e+02   4.6762700e+01
   7.1614920e+02   4.8979490e+01
   7.1663130e+02   5.7704590e+01
   7.1711340e+02   5.7712400e+01
   7.1759550e+02   4.4157710e+01
   7.1807760e+02   2.8304690e+01
   7.1855980e+02   2.2615720e+01
   7.1904190e+02   2.4907710e+01
   7.1952400e+02   3.1170900e+01
   7.2000610e+02   4.5677250e+01
   7.2048820e+02   5.6938480e+01
   7.2097030e+02   5.6140620e+01
   7.2145250e+02   4.8580080e+01
   7.2193460e+02   4.6467770e+01
   7.2241670e+02   6.3131350e+01
   7.2289880e+02   6.9202150e+01
   7.2338090e+02   5.2021970e+01
   7.2386300e+02   2.0891600e+01
   7.2434520e+02   1.9356930e+01
   7.2482730e+02   5.3125000e+01
   7.2530940e+02   7.5137210e+01
   7.2579150e+02   5.3672360e+01
   7.2627360e+02   7.9423830e+00
   7.2675570e+02   1.1769530e+01
   7.2723790e+02   7.9282230e+00
   7.2772000e+02   9.8145001e-02
   7.2820210e+02   2.6328130e+00
   7.2868420e+02   2.3125000e+00
   7.2916630e+02   4.4946290e+00
   7.2964840e+02   1.0554200e+01
   7.3013060e+02   1.1949710e+01
   7.3061270e+02   5.3671880e+00
   7.3109480e+02   1.8114260e+01
   7.3157690e+02   1.1415040e+01
   7.3205900e+02   2.1358400e+01
   7.3254110e+02   4.2822270e+01
   7.3302330e+02   5.0760740e+01
   7.3350540e+02   5.2747070e+01
   7.3398750e+02   5.3580080e+01
   7.3446960e+02   5.3905270e+01
   7.3495170e+02   6.1581050e+01
   7.3543380e+02   7.9821290e+01
   7.3591600e+02   9.1537110e+01
   7.3639810e+02   6.9922360e+01
   7.3688020e+02   3.3542480e+01
   7.3736230e+02   1.1066410e+01
   7.3784440e+02   1.9386720e+01
   7.3832660e+02   2.4461910e+01
   7.3880870e+02   2.4277340e+00
   7.3929080e+02   2.6968260e+01
   7.3977290e+02   3.3882810e+01
   7.4025510e+02   3.3515630e+00
   7.4073720e+02   2.3826170e+01
   7.4121930e+02   4.2889160e+01
   7.4170140e+02   5.6282230e+01
   7.4218350e+02   7.1187010e+01
   7.4266560e+02   8.7630370e+01
   7.4314780e+02   9.3392580e+01
   7.4362990e+02   8.1916020e+01
   7.4411200e+02   6.1095210e+01
   7.4459410e+02   3.8084470e+01
   7.4507620e+02   1.5545410e+01
   7.4555830e+02   1.0507810e+00
   7.4604050e+02   2.0849610e+00
   7.4652260e+02   8.9472660e+00
   7.4700470e+02   1.8310550e+01
   7.4748680e+02   2.9510740e+01
   7.4796890e+02   3.9854000e+01
   7.4845100e+02   5.5627930e+01
   7.4893320e+02   6.1668460e+01
   7.4941530e+02   4.9835450e+01
   7.4989740e+02   2.2113770e+01
   7.5037950e+02   7.6171900e-01
   7.5086160e+02   1.4610350e+01
   7.5134380e+02   1.9949220e+01
   7.5182590e+02   7.4531250e+00
   7.5230800e+02   1.5988280e+01
   7.5279010e+02   3.7013670e+01
   7.5327220e+02   5.4878910e+01
   7.5375430e+02   6.4915040e+01
   7.5423650e+02   5.8176270e+01
   7.5471860e+02   4.6353520e+01
   7.5520070e+02   4.0010740e+01
   7.5568280e+02   4.2258300e+01
   7.5616490e+02   1.6161620e+01
   7.5664700e+02   4.5481930e+01
   7.5712920e+02   6.2056640e+01
   7.5761130e+02   6.6570310e+01
   7.5809340e+02   2.2895020e+01
   7.5857550e+02   4.1443850e+01
   7.5905760e+02   3.5055660e+01
   7.5953970e+02   2.7645510e+01
   7.6002190e+02   5.4953120e+01
   7.6050400e+02   1.8285160e+01
   7.6098610e+02   4.5041020e+01
   7.6146820e+02   4.6479000e+01
   7.6195030e+02   5.9503420e+01
   7.6243240e+02   4.7437500e+01
   7.6291460e+02   4.3059080e+01
   7.6339670e+02   6.3841800e+01
   7.6387880e+02   7.0726560e+01
   7.6436090e+02   5.5771970e+01
   7.6484300e+02   5.3905270e+01
   7.6532510e+02   7.1204590e+01
   7.6580730e+02   6.8412110e+01
   7.6628940e+02   3.7117190e+01
   7.6677150e+02   1.9828610e+01
   7.6725360e+02   2.5676270e+01
   7.6773570e+02   4.1895020e+01
   7.6821780e+02   4.9652340e+01
   7.6870000e+02   4.9622070e+01
   7.6918210e+02   4.3667970e+01
   7.6966420e+02   2.7692870e+01
   7.7014630e+02   1.3685550e+01
   7.7062840e+02   1.1716800e+01
   7.7111050e+02   1.9192870e+01
   7.7159270e+02   3.1092290e+01
   7.7207480e+02   6.2028320e+01
   7.7255690e+02   7.8063960e+01
   7.7303900e+02   6.2070800e+01
   7.7352110e+02   2.7680660e+01
   7.7400320e+02   8.2680660e+00
   7.7448540e+02   5.3461910e+00
   7.7496750e+02   1.3390140e+01
   7.7544960e+02   3.7275880e+01
   7.7593170e+02   6.5367190e+01
   7.7641380e+02   6.0793460e+01
   7.7689590e+02   3.0227540e+01
   7.7737810e+02   9.7080080e+00
   7.7786020e+02   2.7180180e+01
   7.7834230e+02   5.5441890e+01
   7.7882440e+02   7.5661130e+01
   7.7930650e+02   8.7820800e+01
   7.7978860e+02   9.3340330e+01
   7.8027080e+02   8.7200200e+01
   7.8075290e+02   7.9982420e+01
   7.8123500e+02   7.4399900e+01
   7.8171710e+02   7.0556640e+01
   7.8219920e+02   6.8914550e+01
   7.8268130e+02   6.8767580e+01
   7.8316350e+02   7.4090820e+01
   7.8364560e+02   9.8566890e+01
   7.8412770e+02   1.2824610e+02
   7.8460980e+02   1.0334720e+02
   7.8509190e+02   3.1235840e+01
   7.8557400e+02   2.5032230e+01
   7.8605620e+02   1.2616700e+01
   7.8653830e+02   2.3005860e+01
   7.8702040e+02   4.9888180e+01
   7.8750250e+02   6.5710940e+01
   7.8798460e+02   6.6458500e+01
   7.8846670e+02   2.5618650e+01
   7.8894890e+02   6.5664060e+00
   7.8943100e+02   2.4760740e+00
   7.8991310e+02   4.1236820e+01
   7.9039520e+02   6.1377930e+01
   7.9087730e+02   5.3705570e+01
   7.9135940e+02   4.1457520e+01
   7.9184160e+02   4.5745120e+01
   7.9232370e+02   5.8601560e+01
   7.9280580e+02   5.4541500e+01
   7.9328790e+02   3.1699220e+01
   7.9377000e+02   1.1706050e+01
   7.9425210e+02   8.4921880e+00
   7.9473430e+02   1.4697270e+01
   7.9521640e+02   2.7141600e+01
   7.9569850e+02   4.9086430e+01
   7.9618060e+02   6.0058590e+01
   7.9666270e+02   4.8482910e+01
   7.9714480e+02   3.5220700e+01
   7.9762700e+02   3.5427250e+01
   7.9810910e+02   5.4491700e+01
   7.9859120e+02   6.9492190e+01
   7.9907330e+02   8.0443360e+01
   7.9955540e+02   8.5442380e+01
   8.0003750e+02   7.6240230e+01
   8.0051970e+02   6.1452150e+01
   8.0100180e+02   6.0107420e+01
   8.0148390e+02   7.6576660e+01
   8.0196600e+02   9.0996580e+01
   8.0244810e+02   8.8252440e+01
   8.0293020e+02   8.0140140e+01
   8.0341240e+02   7.6701660e+01
   8.0389450e+02   8.3831050e+01
   8.0437660e+02   8.5604490e+01
   8.0485870e+02   7.8271970e+01
   8.0534080e+02   7.0451660e+01
   8.0582290e+02   7.2043460e+01
   8.0630510e+02   8.2945800e+01
   8.0678720e+02   8.5434570e+01
   8.0726930e+02   7.6469730e+01
   8.0775140e+02   6.8093260e+01
   8.0823350e+02   7.9158200e+01
   8.0871560e+02   9.6882320e+01
   8.0919780e+02   1.0204150e+02
   8.0967990e+02   8.7673830e+01
   8.1016200e+02   7.5419920e+01
   8.1064410e+02   7.5691410e+01
   8.1112620e+02   8.0658690e+01
   8.1160830e+02   8.2467770e+01
   8.1209050e+02   7.8880860e+01
   8.1257260e+02   7.6237300e+01
   8.1305470e+02   7.6751460e+01
   8.1353680e+02   7.6289060e+01
   8.1401890e+02   6.5033690e+01
   8.1450100e+02   4.6625000e+01
   8.1498320e+02   4.4462890e+01
   8.1546530e+02   6.4604000e+01
   8.1594740e+02   9.0104000e+01
   8.1642950e+02   1.1293510e+02
   8.1691160e+02   1.2886670e+02
   8.1739370e+02   1.3222070e+02
   8.1787590e+02   1.1816890e+02
   8.1835800e+02   9.7931640e+01
   8.1884010e+02   5.6842770e+01
   8.1932220e+02   2.1988770e+01
   8.1980430e+02   2.3968260e+01
   8.2028640e+02   7.4172360e+01
   8.2076860e+02   1.0987260e+02
   8.2125070e+02   1.2582230e+02
   8.2173280e+02   1.2461820e+02
   8.2221490e+02   9.6540530e+01
   8.2269700e+02   5.4627440e+01
   8.2317910e+02   3.4853520e+01
   8.2366130e+02   5.2657230e+01
   8.2414340e+02   6.9474120e+01
   8.2462550e+02   5.1680660e+01
   8.2510760e+02   2.2560060e+01
   8.2558970e+02   8.3232420e+00
   8.2607180e+02   3.2882810e+01
   8.2655400e+02   4.3591800e+01
   8.2703610e+02   3.2920410e+01
   8.2751820e+02   1.7013180e+01
   8.2800030e+02   1.6866700e+01
   8.2848240e+02   3.2232910e+01
   8.2896450e+02   4.2037110e+01
   8.2944670e+02   4.1873540e+01
   8.2992880e+02   4.0887700e+01
   8.3041090e+02   5.3454590e+01
   8.3089300e+02   7.0810550e+01
   8.3137510e+02   7.8315430e+01
   8.3185720e+02   6.5906740e+01
   8.3233940e+02   5.7608400e+01
   8.3282150e+02   6.7129390e+01
   8.3330360e+02   8.2111330e+01
   8.3378570e+02   8.8949220e+01
   8.3426780e+02   8.5521480e+01
   8.3474990e+02   7.9802730e+01
   8.3523210e+02   7.2071780e+01
   8.3571420e+02   6.2564940e+01
   8.3619630e+02   4.9108400e+01
   8.3667840e+02   3.3738770e+01
   8.3716050e+02   2.4127930e+01
   8.3764260e+02   2.1798830e+01
   8.3812480e+02   2.5387210e+01
   8.3860690e+02   4.1545900e+01
   8.3908900e+02   5.9398930e+01
   8.3957110e+02   6.6233400e+01
   8.4005320e+02   5.1713870e+01
   8.4053530e+02   3.9953120e+01
   8.4101750e+02   3.1650880e+01
   8.4149960e+02   2.7444820e+01
   8.4198170e+02   3.0190920e+01
   8.4246380e+02   4.0433590e+01
   8.4294590e+02   4.3614260e+01
   8.4342800e+02   3.6025880e+01
   8.4391020e+02   2.6188960e+01
   8.4439230e+02   1.9533690e+01
   8.4487440e+02   1.4840330e+01
   8.4535650e+02   1.0167480e+01
   8.4583860e+02   2.8413090e+00
   8.4632070e+02   4.0488280e+00
   8.4680290e+02   2.8852050e+01
   8.4728500e+02   5.7402830e+01
   8.4776710e+02   7.2302250e+01
   8.4824920e+02   7.1996090e+01
   8.4873130e+02   5.8394040e+01
   8.4921340e+02   2.5656250e+01
   8.4969560e+02   5.2358400e+00
   8.5017770e+02   1.0175290e+01
   8.5065980e+02   4.2666020e+00
   8.5114190e+02   1.4742680e+01
   8.5162400e+02   1.8047850e+01
   8.5210610e+02   2.2361820e+01
   8.5258830e+02   4.3884770e+01
   8.5307040e+02   6.3309080e+01
   8.5355250e+02   5.8432620e+01
   8.5403460e+02   1.0188960e+01
   8.5451670e+02   9.3471680e+00
   8.5499880e+02   1.9821290e+01
   8.5548100e+02   5.5786620e+01
   8.5596310e+02   6.7976560e+01
   8.5644520e+02   5.6458980e+01
   8.5692730e+02   4.8551270e+01
   8.5740940e+02   4.5027830e+01
   8.5789150e+02   4.3518070e+01
   8.5837370e+02   4.5541020e+01
   8.5885580e+02   4.6572270e+01
   8.5933790e+02   3.6237790e+01
   8.5982000e+02   1.1866700e+01
   8.6030210e+02   9.4287100e-01
   8.6078420e+02   2.7739260e+01
   8.6126640e+02   5.9352050e+01
   8.6174850e+02   7.9203120e+01
   8.6223060e+02   8.7691410e+01
   8.6271270e+02   7.8196780e+01
   8.6319480e+02   4.6448730e+01
   8.6367690e+02   1.5211910e+01
   8.6415910e+02   8.1250000e-01
   8.6464120e+02   4.1142580e+00
   8.6512330e+02   3.5312500e+00
   8.6560540e+02   2.0776860e+01
   8.6608750e+02   3.1673340e+01
   8.6656960e+02   2.2451660e+01
   8.6705180e+02   7.5190430e+00
   8.6753390e+02   6.2583010e+00
   8.6801600e+02   1.8399900e+01
   8.6849810e+02   2.3078120e+01
   8.6898020e+02   1.8672850e+01
   8.6946230e+02   1.0126460e+01
   8.6994450e+02   2.5615230e+00
   8.7042660e+02   1.7335450e+01
   8.7090870e+02   2.2240720e+01
   8.7139080e+02   1.8221680e+01
   8.7187290e+02   1.7217770e+01
   8.7235500e+02   3.1282230e+01
   8.7283720e+02   4.7511230e+01
   8.7331930e+02   5.3904300e+01
   8.7380140e+02   5.2411620e+01
   8.7428350e+02   5.3698730e+01
   8.7476560e+02   6.6623050e+01
   8.7524770e+02   7.2508790e+01
   8.7572990e+02   6.3165530e+01
   8.7621200e+02   4.3798340e+01
   8.7669410e+02   3.4357910e+01
   8.7717620e+02   3.4830570e+01
   8.7765830e+02   3.9883300e+01
   8.7814040e+02   5.2628910e+01
   8.7862260e+02   6.3025880e+01
   8.7910470e+02   5.1521480e+01
   8.7958690e+02   2.6859860e+01
   8.8006900e+02   1.1282230e+01
   8.8055110e+02   2.4780760e+01
   8.8103320e+02   3.5170900e+01
   8.8151530e+02   2.9963870e+01
   8.8199740e+02   1.6590820e+01
   8.8247960e+02   7.8466800e+00
   8.8296170e+02   2.3500980e+00
   8.8344380e+02   1.2536130e+01
   8.8392590e+02   4.8521000e+01
   8.8440800e+02   8.6585450e+01
   8.8489010e+02   8.2663090e+01
   8.8537230e+02   5.1593260e+01
   8.8585440e+02   2.7800290e+01
   8.8633650e+02   2.4564450e+01
   8.8681860e+02   2.8887700e+01
   8.8730070e+02   4.1976070e+01
   8.8778280e+02   5.6655270e+01
   8.8826500e+02   6.2574220e+01
   8.8874710e+02   5.5773440e+01
   8.8922920e+02   4.9826660e+01
   8.8971130e+02   4.4725100e+01
   8.9019340e+02   4.3247560e+01
   8.9067550e+02   5.3271000e+01
   8.9115770e+02   6.9950200e+01
   8.9163980e+02   7.7308590e+01
   8.9212190e+02   7.0834470e+01
   8.9260400e+02   6.2510740e+01
   8.9308610e+02   5.9255370e+01
   8.9356820e+02   5.9690430e+01
   8.9405040e+02   6.2166990e+01
   8.9453250e+02   6.7548830e+01
   8.9501460e+02   6.6571780e+01
   8.9549670e+02   5.5531250e+01
   8.9597880e+02   4.4975100e+01
   8.9646090e+02   4.1427250e+01
   8.9694310e+02   4.5712400e+01
   8.9742520e+02   7.0821780e+01
   8.9790730e+02   1.1803080e+02
   8.9838940e+02   1.4741500e+02
   8.9887150e+02   1.0993950e+02
   8.9935360e+02   5.5655270e+01
   8.9983580e+02   2.7343260e+01
   9.0031790e+02   3.1389650e+01
   9.0080000e+02   3.5308590e+01
   9.0128210e+02   3.2749020e+01
   9.0176420e+02   3.3534180e+01
   9.0224630e+02   4.4100590e+01
   9.0272850e+02   6.2360350e+01
   9.0321060e+02   7.3748050e+01
   9.0369270e+02   7.8353520e+01
   9.0417480e+02   8.0398930e+01
   9.0465690e+02   8.4702640e+01
   9.0513900e+02   8.6071780e+01
   9.0562120e+02   7.5614260e+01
   9.0610330e+02   5.6679690e+01
   9.0658540e+02   4.3440430e+01
   9.0706750e+02   3.9843750e+01
   9.0754960e+02   4.3463870e+01
   9.0803170e+02   5.9982910e+01
   9.0851390e+02   8.1773930e+01
   9.0899600e+02   7.8231450e+01
   9.0947810e+02   4.9220700e+01
   9.0996020e+02   2.3569820e+01
   9.1044230e+02   1.2690920e+01
   9.1092440e+02   8.1469730e+00
   9.1140660e+02   9.4531300e-01
   9.1188870e+02   1.0876460e+01
   9.1237080e+02   1.5486330e+01
   9.1285290e+02   1.1107420e+01
   9.1333500e+02   5.1270001e-02
   9.1381710e+02   2.6237790e+01
   9.1429930e+02   5.2609860e+01
   9.1478140e+02   5.5827150e+01
   9.1526350e+02   3.3564940e+01
   9.1574560e+02   1.9577640e+01
   9.1622770e+02   1.9532710e+01
   9.1670980e+02   2.4702150e+01
   9.1719200e+02   2.5946780e+01
   9.1767410e+02   2.5462400e+01
   9.1815620e+02   2.6411130e+01
   9.1863830e+02   2.9778320e+01
   9.1912040e+02   3.3824710e+01
   9.1960250e+02   3.3884770e+01
   9.2008470e+02   3.8120610e+01
   9.2056680e+02   5.6882810e+01
   9.2104890e+02   9.6319820e+01
   9.2153100e+02   1.0087550e+02
   9.2201310e+02   6.6684080e+01
   9.2249520e+02   2.8467770e+01
   9.2297740e+02   1.3249510e+01
   9.2345950e+02   1.2921390e+01
   9.2394160e+02   1.6876950e+01
   9.2442370e+02   2.4508300e+01
   9.2490580e+02   3.7444340e+01
   9.2538790e+02   7.1401370e+01
   9.2587010e+02   9.3624510e+01
   9.2635220e+02   8.8809080e+01
   9.2683430e+02   6.0934080e+01
   9.2731640e+02   3.5029790e+01
   9.2779850e+02   9.9545900e+00
   9.2828060e+02   2.0473630e+00
   9.2876280e+02   1.3085940e+01
   9.2924490e+02   3.7075680e+01
   9.2972700e+02   4.1673340e+01
   9.3020910e+02   3.1469240e+01
   9.3069120e+02   1.9055660e+01
   9.3117330e+02   5.7573240e+00
   9.3165550e+02   1.3738280e+01
   9.3213760e+02   2.1137700e+01
   9.3261970e+02   7.1356930e+01
   9.3310180e+02   8.8558110e+01
   9.3358390e+02   6.8632320e+01
   9.3406600e+02   5.6995610e+01
   9.3454820e+02   6.4353030e+01
   9.3503030e+02   7.4460940e+01
   9.3551240e+02   5.8844240e+01
   9.3599450e+02   3.3294430e+01
   9.3647660e+02   2.7921880e+01
   9.3695870e+02   5.9334470e+01
   9.3744090e+02   8.4017580e+01
   9.3792300e+02   8.7144040e+01
   9.3840510e+02   7.8612300e+01
   9.3888720e+02   6.3657230e+01
   9.3936930e+02   3.9392580e+01
   9.3985140e+02   2.6386230e+01
   9.4033360e+02   2.5929200e+01
   9.4081570e+02   2.8125490e+01
   9.4129780e+02   2.5679200e+01
   9.4177990e+02   2.0420900e+01
   9.4226200e+02   1.4034180e+01
   9.4274410e+02   6.9057620e+00
   9.4322630e+02   2.0947270e+00
   9.4370840e+02   9.3017600e-01
   9.4419050e+02   1.2329100e+00
   9.4467260e+02   1.2352540e+01
   9.4515470e+02   2.9205570e+01
   9.4563680e+02   3.7943360e+01
   9.4611900e+02   3.8472170e+01
   9.4660110e+02   3.6124020e+01
   9.4708320e+02   3.2076660e+01
   9.4756530e+02   2.7780760e+01
   9.4804740e+02   2.2046880e+01
   9.4852950e+02   1.7743160e+01
   9.4901170e+02   2.1540040e+01
   9.4949380e+02   5.9184570e+01
   9.4997590e+02   7.3490720e+01
   9.5045800e+02   3.7174320e+01
   9.5094010e+02   1.4424800e+01
   9.5142220e+02   2.2479980e+01
   9.5190440e+02   1.3900390e+01
   9.5238650e+02   3.5181640e+01
   9.5286860e+02   3.0267090e+01
   9.5335070e+02   1.6394530e+01
   9.5383280e+02   3.2226560e+00
   9.5431490e+02   3.8261720e+00
   9.5479710e+02   4.3012700e+00
   9.5527920e+02   3.4098140e+01
   9.5576130e+02   6.0396000e+01
   9.5624340e+02   8.1735350e+01
   9.5672550e+02   9.5764650e+01
   9.5720760e+02   9.9840330e+01
   9.5768980e+02   9.4177730e+01
   9.5817190e+02   8.6322750e+01
   9.5865400e+02   7.6242680e+01
   9.5913610e+02   6.5613280e+01
   9.5961820e+02   5.2623540e+01
   9.6010030e+02   4.1809570e+01
   9.6058250e+02   3.9003420e+01
   9.6106460e+02   4.2816890e+01
   9.6154670e+02   4.4213380e+01
   9.6202880e+02   3.6613280e+01
   9.6251090e+02   3.4566410e+01
   9.6299300e+02   4.4193360e+01
   9.6347520e+02   5.9133790e+01
   9.6395730e+02   6.1030270e+01
   9.6443940e+02   5.2394530e+01
   9.6492150e+02   4.9295900e+01
   9.6540360e+02   5.9236330e+01
   9.6588570e+02   7.1964360e+01
   9.6636790e+02   7.9646970e+01
   9.6685000e+02   8.4956540e+01
   9.6733210e+02   9.1675780e+01
   9.6781420e+02   1.0480470e+02
   9.6829630e+02   1.1107910e+02
   9.6877840e+02   1.1002930e+02
   9.6926060e+02   1.0260210e+02
   9.6974270e+02   8.1565430e+01
   9.7022480e+02   5.4867190e+01
   9.7070690e+02   5.5787600e+01
   9.7118900e+02   8.6770510e+01
   9.7167110e+02   1.1659470e+02
   9.7215330e+02   1.2138720e+02
   9.7263540e+02   1.2075200e+02
   9.7311750e+02   1.2919970e+02
   9.7359960e+02   1.4686040e+02
   9.7408170e+02   1.5637790e+02
   9.7456380e+02   1.5770170e+02
   9.7504600e+02   1.5013230e+02
   9.7552810e+02   1.2757180e+02
   9.7601020e+02   1.0123580e+02
   9.7649230e+02   9.7519530e+01
   9.7697440e+02   1.1031250e+02
   9.7745650e+02   1.2166500e+02
   9.7793870e+02   1.2348290e+02
   9.7842080e+02   1.2283540e+02
   9.7890290e+02   1.1726120e+02
   9.7938500e+02   1.1305270e+02
   9.7986710e+02   1.2205180e+02
   9.8034920e+02   1.4909470e+02
   9.8083140e+02   1.5885010e+02
   9.8131350e+02   1.4525980e+02
   9.8179560e+02   1.2399560e+02
   9.8227770e+02   1.0931930e+02
   9.8275980e+02   9.9186520e+01
   9.8324190e+02   9.2834470e+01
   9.8372410e+02   9.1439450e+01
   9.8420620e+02   8.2485350e+01
   9.8468830e+02   4.1322270e+01
   9.8517040e+02   1.4045410e+01
   9.8565250e+02   2.7196780e+01
   9.8613460e+02   7.5498050e+01
   9.8661680e+02   1.0788670e+02
   9.8709890e+02   1.2417970e+02
   9.8758100e+02   1.2263920e+02
   9.8806310e+02   9.0482910e+01
   9.8854520e+02   4.9807620e+01
   9.8902730e+02   1.0002440e+01
   9.8950950e+02   2.1668950e+01
   9.8999160e+02   2.3686040e+01
   9.9047370e+02   3.6990720e+01
   9.9095580e+02   7.9357420e+01
   9.9143790e+02   8.9305180e+01
   9.9192000e+02   8.3401370e+01
   9.9240220e+02   8.8355960e+01
   9.9288430e+02   1.0013720e+02
   9.9336640e+02   1.0040870e+02
   9.9384850e+02   8.4616210e+01
   9.9433060e+02   6.4646970e+01
   9.9481270e+02   3.6639650e+01
   9.9529490e+02   1.6266600e+01
   9.9577700e+02   2.4386720e+01
   9.9625910e+02   6.8695310e+01
   9.9674120e+02   8.3152340e+01
   9.9722330e+02   6.0319820e+01
   9.9770540e+02   3.4321780e+01
   9.9818760e+02   2.7887210e+01
   9.9866970e+02   3.1991700e+01
   9.9915180e+02   2.5223630e+01
   9.9963390e+02   1.0484860e+01
   1.0001160e+03   6.7236300e-01
   1.0005980e+03   1.0488280e+00
   1.0010800e+03   2.2363280e+00
   1.0015620e+03   8.0419920e+00
   1.0020440e+03   1.8911130e+01
   1.0025270e+03   6.4116210e+00
   1.0030090e+03   3.1807620e+01
   1.0034910e+03   5.6836910e+01
   1.0039730e+03   5.9284180e+01
   1.0044550e+03   5.5270510e+01
   1.0049370e+03   6.2091310e+01
   1.0054190e+03   7.3078610e+01
   1.0059010e+03   8.0140620e+01
   1.0063840e+03   8.1791990e+01
   1.0068660e+03   7.8882320e+01
   1.0073480e+03   6.5366700e+01
   1.0078300e+03   5.7150390e+01
   1.0083120e+03   6.7356450e+01
   1.0087940e+03   9.0371090e+01
   1.0092760e+03   9.6314940e+01
   1.0097580e+03   8.8417970e+01
   1.0102400e+03   7.9210450e+01
   1.0107230e+03   7.8810060e+01
   1.0112050e+03   7.7545900e+01
   1.0116870e+03   6.4209960e+01
   1.0121690e+03   4.5695800e+01
   1.0126510e+03   4.1951660e+01
   1.0131330e+03   5.8964360e+01
   1.0136150e+03   7.3668950e+01
   1.0140970e+03   8.3265620e+01
   1.0145800e+03   8.7877440e+01
   1.0150620e+03   8.5235350e+01
   1.0155440e+03   7.8375490e+01
   1.0160260e+03   7.3395510e+01
   1.0165080e+03   7.1979490e+01
   1.0169900e+03   6.9170410e+01
   1.0174720e+03   5.8041020e+01
   1.0179540e+03   5.0704100e+01
   1.0184360e+03   5.0574710e+01
   1.0189190e+03   5.8645510e+01
   1.0194010e+03   7.6230470e+01
   1.0198830e+03   1.0336040e+02
   1.0203650e+03   1.3009180e+02
   1.0208470e+03   1.5875340e+02
   1.0213290e+03   1.7759030e+02
   1.0218110e+03   1.6776900e+02
   1.0222930e+03   1.3935740e+02
   1.0227760e+03   1.1672560e+02
   1.0232580e+03   1.0043800e+02
   1.0237400e+03   9.9748050e+01
   1.0242220e+03   1.2460550e+02
   1.0247040e+03   1.5048140e+02
   1.0251860e+03   1.3367190e+02
   1.0256680e+03   8.9370610e+01
   1.0261500e+03   7.4495120e+01
   1.0266320e+03   9.9286130e+01
   1.0271150e+03   1.1957420e+02
   1.0275970e+03   9.9756350e+01
   1.0280790e+03   7.3757810e+01
   1.0285610e+03   6.3579590e+01
   1.0290430e+03   6.8947750e+01
   1.0295250e+03   8.2964360e+01
   1.0300070e+03   1.0706590e+02
   1.0304890e+03   1.2585350e+02
   1.0309720e+03   1.3000100e+02
   1.0314540e+03   1.2736870e+02
   1.0319360e+03   1.3399020e+02
   1.0324180e+03   1.4177250e+02
   1.0329000e+03   1.3345360e+02
   1.0333820e+03   7.4722660e+01
   1.0338640e+03   4.2118160e+01
   1.0343460e+03   5.4252930e+01
   1.0348280e+03   7.9199710e+01
   1.0353110e+03   7.8830570e+01
   1.0357930e+03   5.7814940e+01
   1.0362750e+03   4.6570800e+01
   1.0367570e+03   4.7485840e+01
   1.0372390e+03   5.4871580e+01
   1.0377210e+03   7.2459470e+01
   1.0382030e+03   8.8372560e+01
   1.0386850e+03   9.2160640e+01
   1.0391670e+03   8.5301760e+01
   1.0396500e+03   8.2039060e+01
   1.0401320e+03   8.3764650e+01
   1.0406140e+03   8.5553220e+01
   1.0410960e+03   8.6593750e+01
   1.0415780e+03   8.5411130e+01
   1.0420600e+03   7.6624510e+01
   1.0425420e+03   6.4452640e+01
   1.0430240e+03   5.6283690e+01
   1.0435070e+03   5.2531740e+01
   1.0439890e+03   5.7471680e+01
   1.0444710e+03   8.1302730e+01
   1.0449530e+03   1.0298970e+02
   1.0454350e+03   1.0316500e+02
   1.0459170e+03   8.4034670e+01
   1.0463990e+03   7.4088870e+01
   1.0468810e+03   7.3661130e+01
   1.0473640e+03   7.5323730e+01
   1.0478460e+03   8.1572270e+01
   1.0483280e+03   8.4858400e+01
   1.0488100e+03   7.1857910e+01
   1.0492920e+03   4.8876460e+01
   1.0497740e+03   4.4645020e+01
   1.0502560e+03   6.4617680e+01
   1.0507380e+03   8.0397460e+01
   1.0512200e+03   8.7650880e+01
   1.0517030e+03   8.9760740e+01
   1.0521850e+03   8.7166990e+01
   1.0526670e+03   8.4126460e+01
   1.0531490e+03   9.1138180e+01
   1.0536310e+03   1.1534910e+02
   1.0541130e+03   1.2465580e+02
   1.0545950e+03   9.3850590e+01
   1.0550770e+03   6.5439940e+01
   1.0555590e+03   6.4202150e+01
   1.0560420e+03   8.4777340e+01
   1.0565240e+03   8.6975590e+01
   1.0570060e+03   7.3492190e+01
   1.0574880e+03   6.6367190e+01
   1.0579700e+03   9.4562010e+01
   1.0584520e+03   1.1535790e+02
   1.0589340e+03   8.9138180e+01
   1.0594160e+03   4.0722660e+01
   1.0598990e+03   1.9311520e+01
   1.0603810e+03   3.5350100e+01
   1.0608630e+03   4.8654790e+01
   1.0613450e+03   5.8656250e+01
   1.0618270e+03   6.4383790e+01
   1.0623090e+03   5.9043950e+01
   1.0627910e+03   5.1748540e+01
   1.0632730e+03   6.1022950e+01
   1.0637550e+03   8.7669920e+01
   1.0642380e+03   1.0105370e+02
   1.0647200e+03   8.6404790e+01
   1.0652020e+03   6.4046390e+01
   1.0656840e+03   3.4593750e+01
   1.0661660e+03   5.2944340e+00
   1.0666480e+03   2.1855470e+00
   1.0671300e+03   1.9507810e+01
   1.0676120e+03   2.9708500e+01
   1.0680940e+03   2.0561520e+01
   1.0685770e+03   1.1077150e+01
   1.0690590e+03   1.2651860e+01
   1.0695410e+03   1.8496580e+01
   1.0700230e+03   2.2514160e+01
   1.0705050e+03   2.4193850e+01
   1.0709870e+03   2.7224120e+01
   1.0714690e+03   3.1854490e+01
   1.0719510e+03   3.5980470e+01
   1.0724340e+03   3.5304200e+01
   1.0729160e+03   3.4984860e+01
   1.0733980e+03   5.0298830e+01
   1.0738800e+03   7.2811040e+01
   1.0743620e+03   7.2222660e+01
   1.0748440e+03   8.7602540e+00
   1.0753260e+03   1.9223140e+01
   1.0758080e+03   1.1532230e+01
   1.0762910e+03   6.1887210e+01
   1.0767730e+03   8.0206540e+01
   1.0772550e+03   7.2758790e+01
   1.0777370e+03   5.2964360e+01
   1.0782190e+03   2.2020510e+01
   1.0787010e+03   1.6303710e+00
   1.0791830e+03   1.4622560e+01
   1.0796650e+03   2.9597170e+01
   1.0801470e+03   3.0797850e+01
   1.0806300e+03   2.1063480e+01
   1.0811120e+03   9.9438480e+00
   1.0815940e+03   3.0610350e+00
   1.0820760e+03   2.4423830e+00
   1.0825580e+03   2.6900880e+01
   1.0830400e+03   5.4252440e+01
   1.0835220e+03   4.3580570e+01
   1.0840040e+03   1.8003420e+01
   1.0844860e+03   1.0228520e+01
   1.0849690e+03   3.5183110e+01
   1.0854510e+03   4.1662600e+01
   1.0859330e+03   2.3317870e+01
   1.0864150e+03   9.2568360e+00
   1.0868970e+03   3.4592290e+01
   1.0873790e+03   7.2743160e+01
   1.0878610e+03   7.2326660e+01
   1.0883430e+03   4.0902340e+01
   1.0888260e+03   1.4682130e+01
   1.0893080e+03   4.2890630e+00
   1.0897900e+03   5.5004880e+00
   1.0902720e+03   2.3032230e+01
   1.0907540e+03   4.4482420e+01
   1.0912360e+03   4.9465330e+01
   1.0917180e+03   4.0979980e+01
   1.0922000e+03   3.0623050e+01
   1.0926820e+03   1.9553220e+01
   1.0931650e+03   1.5457520e+01
   1.0936470e+03   3.2663090e+01
   1.0941290e+03   4.9741210e+01
   1.0946110e+03   5.3436040e+01
   1.0950930e+03   4.5318850e+01
   1.0955750e+03   2.9953610e+01
   1.0960570e+03   5.2670900e+00
   1.0965390e+03   3.7192380e+00
   1.0970220e+03   2.0710450e+01
   1.0975040e+03   4.7651370e+01
   1.0979860e+03   3.9458500e+01
   1.0984680e+03   1.6366210e+01
   1.0989500e+03   7.2099610e+00
   1.0994320e+03   2.4718260e+01
   1.0999140e+03   3.2365720e+01
   1.1003960e+03   2.5282710e+01
   1.1008790e+03   2.1829100e+01
   1.1013610e+03   4.5985350e+01
   1.1018430e+03   7.7601560e+01
   1.1023250e+03   6.9770510e+01
   1.1028070e+03   3.3032230e+01
   1.1032890e+03   8.6308590e+00
   1.1037710e+03   2.8028810e+01
   1.1042530e+03   3.8965820e+01
   1.1047350e+03   3.0270510e+01
   1.1052180e+03   1.2456050e+01
   1.1057000e+03   2.4873050e+00
   1.1061820e+03   1.4151370e+01
   1.1066640e+03   2.1605470e+01
   1.1071460e+03   2.4893070e+01
   1.1076280e+03   1.4559080e+01
   1.1081100e+03   3.7090820e+01
   1.1085920e+03   8.1937990e+01
   1.1090740e+03   8.5903810e+01
   1.1095570e+03   6.1061040e+01
   1.1100390e+03   5.7967290e+01
   1.1105210e+03   7.7019040e+01
   1.1110030e+03   8.2888180e+01
   1.1114850e+03   6.0178220e+01
   1.1119670e+03   3.6603520e+01
   1.1124490e+03   4.3724120e+01
   1.1129310e+03   6.1497560e+01
   1.1134140e+03   6.7266110e+01
   1.1138960e+03   5.5629880e+01
   1.1143780e+03   4.7999020e+01
   1.1148600e+03   4.4410160e+01
   1.1153420e+03   4.4604000e+01
   1.1158240e+03   5.5421880e+01
   1.1163060e+03   6.4059080e+01
   1.1167880e+03   3.7937010e+01
   1.1172710e+03   4.8852540e+00
   1.1177530e+03   2.4381840e+01
   1.1182350e+03   1.8314450e+01
   1.1187170e+03   4.6153810e+01
   1.1191990e+03   5.1113770e+01
   1.1196810e+03   4.6624510e+01
   1.1201630e+03   4.5090330e+01
   1.1206450e+03   4.4921880e+01
   1.1211270e+03   3.6687500e+01
   1.1216090e+03   2.2219240e+01
   1.1220920e+03   2.1438480e+01
   1.1225740e+03   6.8908690e+01
   1.1230560e+03   1.0130520e+02
   1.1235380e+03   9.5011720e+01
   1.1240200e+03   6.6271970e+01
   1.1245020e+03   4.1289060e+01
   1.1249840e+03   2.1322750e+01
   1.1254660e+03   7.5083010e+00
   1.1259490e+03   3.8086001e-02
   1.1264310e+03   4.3554700e-01
   1.1269130e+03   1.8381840e+01
   1.1273950e+03   3.7452640e+01
   1.1278770e+03   4.6338380e+01
   1.1283590e+03   4.5602050e+01
   1.1288410e+03   3.4639650e+01
   1.1293230e+03   1.2132320e+01
   1.1298060e+03   4.8481450e+00
   1.1302880e+03   2.9028320e+01
   1.1307700e+03   5.8201660e+01
   1.1312520e+03   6.7965820e+01
   1.1317340e+03   6.5148930e+01
   1.1322160e+03   5.7708980e+01
   1.1326980e+03   4.5769040e+01
   1.1331800e+03   3.0397950e+01
   1.1336620e+03   1.1588380e+01
   1.1341450e+03   4.0136700e-01
   1.1346270e+03   2.7519530e+00
   1.1351090e+03   1.6320800e+01
   1.1355910e+03   4.3941890e+01
   1.1360730e+03   7.5343260e+01
   1.1365550e+03   8.3810060e+01
   1.1370370e+03   3.5881840e+01
   1.1375190e+03   2.5571290e+00
   1.1380010e+03   1.1355960e+01
   1.1384840e+03   1.1271480e+01
   1.1389660e+03   4.6132810e+00
   1.1394480e+03   2.8659670e+01
   1.1399300e+03   4.0431150e+01
   1.1404120e+03   4.0482910e+01
   1.1408940e+03   3.7947750e+01
   1.1413760e+03   3.6696290e+01
   1.1418580e+03   3.2620120e+01
   1.1423410e+03   2.0962400e+01
   1.1428230e+03   9.8867190e+00
   1.1433050e+03   1.9390620e+01
   1.1437870e+03   4.3566410e+01
   1.1442690e+03   5.3519530e+01
   1.1447510e+03   4.2910640e+01
   1.1452330e+03   3.5741210e+01
   1.1457150e+03   5.3786620e+01
   1.1461980e+03   7.0722660e+01
   1.1466800e+03   7.0502930e+01
   1.1471620e+03   5.7490230e+01
   1.1476440e+03   5.1469730e+01
   1.1481260e+03   5.2266110e+01
   1.1486080e+03   5.7903810e+01
   1.1490900e+03   7.0181150e+01
   1.1495720e+03   8.0764160e+01
   1.1500540e+03   8.6650390e+01
   1.1505360e+03   8.5346680e+01
   1.1510190e+03   7.2882320e+01
   1.1515010e+03   4.8423830e+01
   1.1519830e+03   2.5145020e+01
   1.1524650e+03   2.3608400e+00
   1.1529470e+03   5.4052730e+00
   1.1534290e+03   1.7801760e+01
   1.1539110e+03   5.0341800e+01
   1.1543930e+03   8.2752930e+01
   1.1548760e+03   1.0677590e+02
   1.1553580e+03   1.0222120e+02
   1.1558400e+03   5.4988280e+01
   1.1563220e+03   2.1657710e+01
   1.1568040e+03   2.6630860e+00
   1.1572860e+03   6.9628900e-01
   1.1577680e+03   3.6227050e+01
   1.1582500e+03   7.7060550e+01
   1.1587330e+03   7.4879880e+01
   1.1592150e+03   4.1169920e+01
   1.1596970e+03   2.3761230e+01
   1.1601790e+03   3.6474610e+01
   1.1606610e+03   5.2806640e+01
   1.1611430e+03   7.4024410e+01
   1.1616250e+03   8.6862790e+01
   1.1621070e+03   6.7265620e+01
   1.1625890e+03   3.4713870e+01
   1.1630720e+03   2.3688480e+01
   1.1635540e+03   3.5216800e+01
   1.1640360e+03   4.4588870e+01
   1.1645180e+03   4.5118160e+01
   1.1650000e+03   4.4876950e+01
   1.1654820e+03   4.5905270e+01
   1.1659640e+03   4.9495610e+01
   1.1664460e+03   5.9906250e+01
   1.1669280e+03   7.1738770e+01
   1.1674110e+03   7.0163090e+01
   1.1678930e+03   5.0696780e+01
   1.1683750e+03   3.7866700e+01
   1.1688570e+03   5.0503420e+01
   1.1693390e+03   5.9152340e+01
   1.1698210e+03   5.0779300e+01
   1.1703030e+03   3.1827150e+01
   1.1707850e+03   1.6701660e+01
   1.1712680e+03   6.9599610e+00
   1.1717500e+03   7.8535160e+00
   1.1722320e+03   2.3194340e+01
   1.1727140e+03   4.3770020e+01
   1.1731960e+03   8.0158690e+01
   1.1736780e+03   1.0587500e+02
   1.1741600e+03   9.8708010e+01
   1.1746420e+03   6.5536620e+01
   1.1751250e+03   5.2045410e+01
   1.1756070e+03   5.4689450e+01
   1.1760890e+03   6.0687990e+01
   1.1765710e+03   6.3179200e+01
   1.1770530e+03   6.1761720e+01
   1.1775350e+03   5.2104000e+01
   1.1780170e+03   4.1483890e+01
   1.1784990e+03   3.8028810e+01
   1.1789810e+03   4.1562500e+01
   1.1794640e+03   3.7891600e+01
   1.1799460e+03   2.7114260e+01
   1.1804280e+03   1.3888670e+01
   1.1809100e+03   1.1032230e+01
   1.1813920e+03   2.4441890e+01
   1.1818740e+03   1.1796880e+00
   1.1823560e+03   3.5181640e+01
   1.1828380e+03   4.4896000e+01
   1.1833200e+03   2.6554200e+01
   1.1838030e+03   3.0136720e+01
   1.1842850e+03   6.0671390e+01
   1.1847670e+03   8.6660160e+01
   1.1852490e+03   7.2222170e+01
   1.1857310e+03   5.5920900e+01
   1.1862130e+03   7.6653810e+01
   1.1866950e+03   1.1472070e+02
   1.1871770e+03   1.0751170e+02
   1.1876600e+03   5.0674320e+01
   1.1881420e+03   1.8485350e+01
   1.1886240e+03   2.5224120e+01
   1.1891060e+03   3.8458010e+01
   1.1895880e+03   2.8506840e+01
   1.1900700e+03   1.5441410e+01
   1.1905520e+03   1.8760740e+01
   1.1910340e+03   3.5736330e+01
   1.1915160e+03   4.0722660e+01
   1.1919990e+03   3.1909180e+01
   1.1924810e+03   2.5888670e+01
   1.1929630e+03   2.6138180e+01
   1.1934450e+03   3.2667970e+01
   1.1939270e+03   5.5703610e+01
   1.1944090e+03   7.8109860e+01
   1.1948910e+03   8.0578610e+01
   1.1953730e+03   6.1277340e+01
   1.1958550e+03   3.6704100e+01
   1.1963380e+03   4.9946290e+00
   1.1968200e+03   5.6752930e+00
   1.1973020e+03   2.3542970e+01
   1.1977840e+03   5.8733400e+01
   1.1982660e+03   6.3378420e+01
   1.1987480e+03   5.1787110e+01
   1.1992300e+03   4.0620610e+01
   1.1997120e+03   3.1607420e+01
   1.2001950e+03   2.3969730e+01
   1.2006770e+03   1.7155270e+01
   1.2011590e+03   1.5580570e+01
   1.2016410e+03   2.3861330e+01
   1.2021230e+03   3.5427730e+01
   1.2026050e+03   4.4628420e+01
   1.2030870e+03   5.1285160e+01
   1.2035690e+03   5.5517580e+01
   1.2040520e+03   5.8454590e+01
   1.2045340e+03   5.4868650e+01
   1.2050160e+03   4.3429690e+01
   1.2054980e+03   3.3263670e+01
   1.2059800e+03   3.2531250e+01
   1.2064620e+03   3.4882320e+01
   1.2069440e+03   2.6329100e+01
   1.2074260e+03   1.6207030e+01
   1.2079080e+03   2.9678220e+01
   1.2083910e+03   8.5456540e+01
   1.2088730e+03   1.1484620e+02
   1.2093550e+03   1.1335010e+02
   1.2098370e+03   9.5594240e+01
   1.2103190e+03   6.1831540e+01
   1.2108010e+03   2.7606930e+01
   1.2112830e+03   1.2856450e+01
   1.2117650e+03   1.4252930e+01
   1.2122470e+03   2.2331540e+01
   1.2127300e+03   4.0776370e+01
   1.2132120e+03   4.8344730e+01
   1.2136940e+03   4.0828120e+01
   1.2141760e+03   3.1726560e+01
   1.2146580e+03   3.5649900e+01
   1.2151400e+03   4.4013180e+01
   1.2156220e+03   4.7535160e+01
   1.2161040e+03   4.6075680e+01
   1.2165870e+03   4.5685550e+01
   1.2170690e+03   4.9916500e+01
   1.2175510e+03   4.1771480e+01
   1.2180330e+03   1.4772460e+01
   1.2185150e+03   8.3618160e+00
   1.2189970e+03   3.4180000e-02
   1.2194790e+03   2.4594730e+01
   1.2199610e+03   5.5075200e+01
   1.2204430e+03   8.7969730e+01
   1.2209260e+03   1.0063090e+02
   1.2214080e+03   8.8250980e+01
   1.2218900e+03   7.0954100e+01
   1.2223720e+03   5.0575680e+01
   1.2228540e+03   3.6681640e+01
   1.2233360e+03   5.4865720e+01
   1.2238180e+03   7.6955080e+01
   1.2243000e+03   6.3172850e+01
   1.2247820e+03   7.6264650e+00
   1.2252650e+03   1.7539550e+01
   1.2257470e+03   6.6557620e+00
   1.2262290e+03   8.5346680e+00
   1.2267110e+03   1.8819820e+01
   1.2271930e+03   2.8111330e+01
   1.2276750e+03   4.6108400e+01
   1.2281570e+03   6.2916020e+01
   1.2286390e+03   6.3943850e+01
   1.2291220e+03   4.5798830e+01
   1.2296040e+03   3.5160160e+01
   1.2300860e+03   3.2346680e+01
   1.2305680e+03   3.9221680e+01
   1.2310500e+03   6.3315430e+01
   1.2315320e+03   8.2745610e+01
   1.2320140e+03   6.3570310e+01
   1.2324960e+03   2.9454590e+01
   1.2329790e+03   7.0283200e+00
   1.2334610e+03   2.4663090e+00
   1.2339430e+03   1.5410160e+01
   1.2344250e+03   6.5012700e+01
   1.2349070e+03   9.5583010e+01
   1.2353890e+03   7.2516110e+01
   1.2358710e+03   3.7461910e+01
   1.2363530e+03   2.7932130e+01
   1.2368350e+03   3.3242190e+01
   1.2373180e+03   4.2307620e+01
   1.2378000e+03   5.6604000e+01
   1.2382820e+03   5.2138180e+01
   1.2387640e+03   2.6943850e+01
   1.2392460e+03   5.7875980e+00
   1.2397280e+03   2.8666990e+00
   1.2402100e+03   1.3333500e+01
   1.2406920e+03   4.8793950e+01
   1.2411750e+03   8.7323730e+01
   1.2416570e+03   9.8130370e+01
   1.2421390e+03   7.6725100e+01
   1.2426210e+03   5.2583010e+01
   1.2431030e+03   2.5382810e+01
   1.2435850e+03   8.0312500e+00
   1.2440670e+03   1.9125490e+01
   1.2445490e+03   3.0679200e+01
   1.2450310e+03   1.7157710e+01
   1.2455140e+03   3.6806640e+00
   1.2459960e+03   7.1762700e+00
   1.2464780e+03   8.0732420e+00
   1.2469600e+03   3.0256840e+01
   1.2474420e+03   5.8852050e+01
   1.2479240e+03   7.2778810e+01
   1.2484060e+03   4.4199710e+01
   1.2488880e+03   1.5419920e+01
   1.2493700e+03   1.2219240e+01
   1.2498530e+03   2.1496090e+01
   1.2503350e+03   2.4894040e+01
   1.2508170e+03   2.2791500e+01
   1.2512990e+03   3.5859860e+01
   1.2517810e+03   6.3240720e+01
   1.2522630e+03   8.0571780e+01
   1.2527450e+03   6.3103520e+01
   1.2532270e+03   4.3569340e+01
   1.2537100e+03   3.4854980e+01
   1.2541920e+03   3.2887700e+01
   1.2546740e+03   3.3161620e+01
   1.2551560e+03   3.6241700e+01
   1.2556380e+03   5.4936520e+01
   1.2561200e+03   8.7887210e+01
   1.2566020e+03   1.1194920e+02
   1.2570840e+03   1.1335300e+02
   1.2575670e+03   1.0298140e+02
   1.2580490e+03   7.7099120e+01
   1.2585310e+03   5.1754390e+01
   1.2590130e+03   5.7100100e+01
   1.2594950e+03   8.1795900e+01
   1.2599770e+03   8.1521970e+01
   1.2604590e+03   5.5073240e+01
   1.2609410e+03   2.9811520e+01
   1.2614230e+03   1.5044430e+01
   1.2619060e+03   8.1196290e+00
   1.2623880e+03   9.2197270e+00
   1.2628700e+03   1.5665040e+01
   1.2633520e+03   2.7711430e+01
   1.2638340e+03   4.0825680e+01
   1.2643160e+03   4.3030760e+01
   1.2647980e+03   3.3333500e+01
   1.2652800e+03   2.3787110e+01
   1.2657620e+03   1.3851560e+01
   1.2662450e+03   9.7016600e+00
   1.2667270e+03   1.3591310e+01
   1.2672090e+03   2.1040530e+01
   1.2676910e+03   2.6168460e+01
   1.2681730e+03   2.9040040e+01
   1.2686550e+03   3.6978520e+01
   1.2691370e+03   4.9388180e+01
   1.2696190e+03   5.0904790e+01
   1.2701020e+03   2.9727540e+01
   1.2705840e+03   2.9511230e+01
   1.2710660e+03   6.5246580e+01
   1.2715480e+03   1.0430270e+02
   1.2720300e+03   9.9306640e+01
   1.2725120e+03   7.7467290e+01
   1.2729940e+03   7.2922360e+01
   1.2734760e+03   8.6643070e+01
   1.2739580e+03   8.7813960e+01
   1.2744410e+03   7.1715330e+01
   1.2749230e+03   6.3007320e+01
   1.2754050e+03   6.8104000e+01
   1.2758870e+03   7.7145510e+01
   1.2763690e+03   7.7875000e+01
   1.2768510e+03   7.8673830e+01
   1.2773330e+03   9.5296390e+01
   1.2778150e+03   1.2143990e+02
   1.2782970e+03   1.1035060e+02
   1.2787800e+03   5.9411130e+01
   1.2792620e+03   2.8015620e+01
   1.2797440e+03   3.0240720e+01
   1.2802260e+03   4.5776370e+01
   1.2807080e+03   7.2125000e+01
   1.2811900e+03   9.2579100e+01
   1.2816720e+03   8.9503420e+01
   1.2821540e+03   7.1944820e+01
   1.2826370e+03   7.5274900e+01
   1.2831190e+03   9.6456540e+01
   1.2836010e+03   1.0545950e+02
   1.2840830e+03   9.4716310e+01
   1.2845650e+03   8.1208500e+01
   1.2850470e+03   7.8791500e+01
   1.2855290e+03   7.1413090e+01
   1.2860110e+03   4.8426760e+01
   1.2864940e+03   1.7538570e+01
   1.2869760e+03   7.8125000e-01
   1.2874580e+03   7.6225590e+00
   1.2879400e+03   6.5913090e+00
   1.2884220e+03   1.2412110e+00
   1.2889040e+03   2.0208010e+01
   1.2893860e+03   7.6287110e+01
   1.2898680e+03   1.0833540e+02
   1.2903500e+03   8.7566890e+01
   1.2908330e+03   4.3302250e+01
   1.2913150e+03   3.0545900e+01
   1.2917970e+03   3.9417480e+01
   1.2922790e+03   5.3168950e+01
   1.2927610e+03   7.0108890e+01
   1.2932430e+03   7.9226560e+01
   1.2937250e+03   7.7644040e+01
   1.2942070e+03   7.3954100e+01
   1.2946890e+03   7.0605470e+01
   1.2951720e+03   6.7365720e+01
   1.2956540e+03   6.0564450e+01
   1.2961360e+03   5.5434080e+01
   1.2966180e+03   6.2741700e+01
   1.2971000e+03   8.5649900e+01
   1.2975820e+03   8.7405270e+01
   1.2980640e+03   6.3281250e+01
   1.2985460e+03   5.0218260e+01
   1.2990290e+03   6.3641110e+01
   1.2995110e+03   7.4519040e+01
   1.2999930e+03   5.4604000e+01
   1.3004750e+03   3.0361330e+01
   1.3009570e+03   4.0392090e+01
   1.3014390e+03   7.6960940e+01
   1.3019210e+03   7.8430180e+01
   1.3024030e+03   4.6362790e+01
   1.3028850e+03   2.9904300e+01
   1.3033680e+03   4.7667970e+01
   1.3038500e+03   6.0958980e+01
   1.3043320e+03   2.2567870e+01
   1.3048140e+03   6.7895510e+00
   1.3052960e+03   1.9867680e+01
   1.3057780e+03   7.8955080e+01
   1.3062600e+03   7.8445800e+01
   1.3067420e+03   3.4553710e+01
   1.3072240e+03   1.4955570e+01
   1.3077070e+03   4.1157710e+01
   1.3081890e+03   5.0059080e+01
   1.3086710e+03   4.6041990e+01
   1.3091530e+03   3.3408690e+01
   1.3096350e+03   1.6175290e+01
   1.3101170e+03   1.1542970e+00
   1.3105990e+03   0.0000000e+00
   1.5000000e+03   0.0000000e+00
