   1.0000000e+02   0.0000000e+00
   1.1626150e+02   0.0000000e+00
   1.1674360e+02   2.8634340e+00
   1.1722570e+02   3.8592220e+00
   1.1770790e+02   4.5490420e+00
   1.1819000e+02   2.2520140e+00
   1.1867210e+02   3.8608180e+01
   1.1915420e+02   8.5313110e+01
   1.1963630e+02   1.2802340e+02
   1.2011840e+02   1.5752780e+02
   1.2060060e+02   1.9095360e+02
   1.2108270e+02   2.3958300e+02
   1.2156480e+02   3.0185850e+02
   1.2204690e+02   3.7079120e+02
   1.2252900e+02   4.4563710e+02
   1.2301110e+02   5.2361260e+02
   1.2349330e+02   6.0067400e+02
   1.2397540e+02   6.7054160e+02
   1.2445750e+02   7.4174990e+02
   1.2493960e+02   8.2460640e+02
   1.2542170e+02   9.1841260e+02
   1.2590380e+02   1.0190050e+03
   1.2638600e+02   1.1204440e+03
   1.2686810e+02   1.2039090e+03
   1.2735020e+02   1.2621430e+03
   1.2783230e+02   1.3116490e+03
   1.2831440e+02   1.3455990e+03
   1.2879650e+02   1.3460370e+03
   1.2927870e+02   1.3116910e+03
   1.2976080e+02   1.2522030e+03
   1.3024290e+02   1.1725080e+03
   1.3072500e+02   1.0740420e+03
   1.3120710e+02   9.7174550e+02
   1.3168920e+02   8.6608700e+02
   1.3217140e+02   7.5922110e+02
   1.3265350e+02   6.7307900e+02
   1.3313560e+02   6.1058230e+02
   1.3361770e+02   5.6663450e+02
   1.3409980e+02   5.3286160e+02
   1.3458190e+02   5.0992160e+02
   1.3506400e+02   4.9061320e+02
   1.3554620e+02   4.6721090e+02
   1.3602830e+02   4.3860510e+02
   1.3651040e+02   4.2202470e+02
   1.3699250e+02   4.1808040e+02
   1.3747460e+02   4.1970380e+02
   1.3795670e+02   4.3325390e+02
   1.3843890e+02   4.6510070e+02
   1.3892100e+02   5.0351100e+02
   1.3940310e+02   5.2901060e+02
   1.3988520e+02   5.3820710e+02
   1.4036730e+02   5.4412270e+02
   1.4084940e+02   5.5284170e+02
   1.4133160e+02   5.5966170e+02
   1.4181370e+02   5.5630940e+02
   1.4229580e+02   5.4167520e+02
   1.4277790e+02   5.2201200e+02
   1.4326000e+02   5.0625480e+02
   1.4374210e+02   4.9656720e+02
   1.4422430e+02   4.8746270e+02
   1.4470640e+02   4.7725850e+02
   1.4518850e+02   4.6750880e+02
   1.4567060e+02   4.5375340e+02
   1.4615270e+02   4.3671220e+02
   1.4663480e+02   4.1600250e+02
   1.4711700e+02   3.8865950e+02
   1.4759910e+02   3.4701620e+02
   1.4808120e+02   3.0547510e+02
   1.4856330e+02   2.7252560e+02
   1.4904540e+02   2.5686770e+02
   1.4952750e+02   2.3871980e+02
   1.5000970e+02   2.1544930e+02
   1.5049180e+02   1.8698990e+02
   1.5097390e+02   1.6084440e+02
   1.5145600e+02   1.3763950e+02
   1.5193810e+02   1.1659070e+02
   1.5242020e+02   9.6821440e+01
   1.5290240e+02   7.4911680e+01
   1.5338450e+02   5.7725460e+01
   1.5386660e+02   4.8901550e+01
   1.5434870e+02   5.1347900e+01
   1.5483080e+02   4.8205840e+01
   1.5531290e+02   3.1827880e+01
   1.5579500e+02   1.0081850e+01
   1.5627720e+02   6.8427730e+00
   1.5675930e+02   1.7564510e+01
   1.5724140e+02   2.2675320e+01
   1.5772350e+02   2.1330540e+01
   1.5820560e+02   1.0532650e+01
   1.5868770e+02   6.5365600e-01
   1.5916990e+02   7.2767330e+00
   1.5965200e+02   1.2420590e+01
   1.6013410e+02   1.2948030e+01
   1.6061620e+02   3.2458500e+00
   1.6109830e+02   8.0035100e+00
   1.6158040e+02   1.5482510e+01
   1.6206260e+02   1.6128270e+01
   1.6254470e+02   1.5570280e+01
   1.6302680e+02   1.4927000e+01
   1.6350890e+02   1.4553650e+01
   1.6399100e+02   1.5946380e+01
   1.6447310e+02   2.3713470e+01
   1.6495530e+02   3.1874150e+01
   1.6543740e+02   3.5078640e+01
   1.6591950e+02   2.7829220e+01
   1.6640160e+02   1.8372130e+01
   1.6688370e+02   1.1815280e+01
   1.6736580e+02   7.8779300e+00
   1.6784800e+02   2.6757200e+00
   1.6833010e+02   8.9041140e+00
   1.6881220e+02   2.2636230e+01
   1.6929430e+02   3.2801480e+01
   1.6977640e+02   3.4040950e+01
   1.7025850e+02   3.2562350e+01
   1.7074070e+02   3.4384030e+01
   1.7122280e+02   4.0043640e+01
   1.7170490e+02   4.4478610e+01
   1.7218700e+02   4.2319180e+01
   1.7266910e+02   3.5937990e+01
   1.7315120e+02   3.0419860e+01
   1.7363340e+02   2.9118530e+01
   1.7411550e+02   2.8686890e+01
   1.7459760e+02   2.6286620e+01
   1.7507970e+02   2.0478270e+01
   1.7556180e+02   1.6596130e+01
   1.7604390e+02   2.2304870e+01
   1.7652600e+02   3.5323580e+01
   1.7700820e+02   4.7916080e+01
   1.7749030e+02   5.5260800e+01
   1.7797240e+02   5.9342040e+01
   1.7845450e+02   6.3740510e+01
   1.7893660e+02   6.9526920e+01
   1.7941870e+02   7.4981900e+01
   1.7990090e+02   7.5317690e+01
   1.8038300e+02   7.1618930e+01
   1.8086510e+02   7.1812650e+01
   1.8134720e+02   8.3607600e+01
   1.8182930e+02   1.0396220e+02
   1.8231140e+02   1.2421410e+02
   1.8279360e+02   1.4308940e+02
   1.8327570e+02   1.6048410e+02
   1.8375780e+02   1.7779800e+02
   1.8423990e+02   1.9487380e+02
   1.8472200e+02   2.0920050e+02
   1.8520410e+02   2.1460270e+02
   1.8568630e+02   2.1365490e+02
   1.8616840e+02   2.1875840e+02
   1.8665050e+02   2.3540610e+02
   1.8713260e+02   2.6009300e+02
   1.8761470e+02   2.8475950e+02
   1.8809680e+02   3.0981670e+02
   1.8857900e+02   3.3303920e+02
   1.8906110e+02   3.5254030e+02
   1.8954320e+02   3.6831610e+02
   1.9002530e+02   3.8135460e+02
   1.9050740e+02   3.9157680e+02
   1.9098950e+02   3.9945570e+02
   1.9147170e+02   4.0873370e+02
   1.9195380e+02   4.2057580e+02
   1.9243590e+02   4.3031580e+02
   1.9291800e+02   4.3147980e+02
   1.9340010e+02   4.2404580e+02
   1.9388220e+02   4.1243480e+02
   1.9436440e+02   3.9860460e+02
   1.9484650e+02   3.8250740e+02
   1.9532860e+02   3.6091790e+02
   1.9581070e+02   3.3145160e+02
   1.9629280e+02   3.0093420e+02
   1.9677490e+02   2.8171010e+02
   1.9725700e+02   2.7461900e+02
   1.9773920e+02   2.7221370e+02
   1.9822130e+02   2.7274610e+02
   1.9870340e+02   2.7652470e+02
   1.9918550e+02   2.7503540e+02
   1.9966760e+02   2.6629630e+02
   2.0014970e+02   2.5373200e+02
   2.0063190e+02   2.4588870e+02
   2.0111400e+02   2.4349430e+02
   2.0159610e+02   2.4111180e+02
   2.0207820e+02   2.3487540e+02
   2.0256030e+02   2.2436210e+02
   2.0304240e+02   2.1615920e+02
   2.0352460e+02   2.1177040e+02
   2.0400670e+02   2.0984940e+02
   2.0448880e+02   2.0592100e+02
   2.0497090e+02   1.9978670e+02
   2.0545300e+02   1.9222170e+02
   2.0593520e+02   1.8311510e+02
   2.0641730e+02   1.7174630e+02
   2.0689940e+02   1.6235890e+02
   2.0738150e+02   1.5615710e+02
   2.0786360e+02   1.5257430e+02
   2.0834570e+02   1.4858850e+02
   2.0882790e+02   1.4390390e+02
   2.0931000e+02   1.3943700e+02
   2.0979210e+02   1.3612750e+02
   2.1027420e+02   1.3434890e+02
   2.1075630e+02   1.3227090e+02
   2.1123840e+02   1.2883690e+02
   2.1172060e+02   1.2428600e+02
   2.1220270e+02   1.2336800e+02
   2.1268480e+02   1.2626200e+02
   2.1316690e+02   1.3253520e+02
   2.1364900e+02   1.4261820e+02
   2.1413110e+02   1.5831410e+02
   2.1461330e+02   1.7127060e+02
   2.1509540e+02   1.7932690e+02
   2.1557750e+02   1.8245660e+02
   2.1605960e+02   1.8652810e+02
   2.1654170e+02   1.9020940e+02
   2.1702380e+02   1.9578270e+02
   2.1750590e+02   2.0795790e+02
   2.1798810e+02   2.3178870e+02
   2.1847020e+02   2.5063680e+02
   2.1895230e+02   2.5691570e+02
   2.1943440e+02   2.4770190e+02
   2.1991650e+02   2.5209560e+02
   2.2039860e+02   2.7417210e+02
   2.2088080e+02   3.0566060e+02
   2.2136290e+02   3.3505110e+02
   2.2184500e+02   3.6105940e+02
   2.2232710e+02   3.8588850e+02
   2.2280920e+02   4.0957680e+02
   2.2329130e+02   4.3080760e+02
   2.2377350e+02   4.6026920e+02
   2.2425560e+02   4.9945540e+02
   2.2473770e+02   5.4501250e+02
   2.2521980e+02   5.9100810e+02
   2.2570190e+02   6.3861930e+02
   2.2618400e+02   6.8505750e+02
   2.2666620e+02   7.2979000e+02
   2.2714830e+02   7.7292690e+02
   2.2763040e+02   8.1367420e+02
   2.2811250e+02   8.5177800e+02
   2.2859460e+02   8.8821750e+02
   2.2907670e+02   9.2538170e+02
   2.2955890e+02   9.6407520e+02
   2.3004100e+02   1.0016330e+03
   2.3052310e+02   1.0368720e+03
   2.3100520e+02   1.0673680e+03
   2.3148730e+02   1.1009190e+03
   2.3196940e+02   1.1401110e+03
   2.3245160e+02   1.1822180e+03
   2.3293370e+02   1.2230260e+03
   2.3341580e+02   1.2767240e+03
   2.3389790e+02   1.3087850e+03
   2.3438000e+02   1.3016800e+03
   2.3486210e+02   1.2447470e+03
   2.3534430e+02   1.1709790e+03
   2.3582640e+02   1.0756330e+03
   2.3630850e+02   9.6438920e+02
   2.3679060e+02   8.5586200e+02
   2.3727270e+02   7.4829400e+02
   2.3775480e+02   6.4613270e+02
   2.3823690e+02   5.4997910e+02
   2.3871910e+02   4.5747730e+02
   2.3920120e+02   3.7687190e+02
   2.3968330e+02   3.1053930e+02
   2.4016540e+02   2.5682020e+02
   2.4064750e+02   2.0990550e+02
   2.4112960e+02   1.6912250e+02
   2.4161180e+02   1.3597210e+02
   2.4209390e+02   1.1200080e+02
   2.4257600e+02   1.0084030e+02
   2.4305810e+02   9.1486420e+01
   2.4354020e+02   8.3670350e+01
   2.4402230e+02   7.7187560e+01
   2.4450450e+02   7.0642490e+01
   2.4498660e+02   6.4362210e+01
   2.4546870e+02   5.7616910e+01
   2.4595080e+02   4.8887970e+01
   2.4643290e+02   3.3001100e+01
   2.4691500e+02   2.6437440e+01
   2.4739720e+02   3.5410550e+01
   2.4787930e+02   5.6758820e+01
   2.4836140e+02   6.7272340e+01
   2.4884350e+02   6.1186100e+01
   2.4932560e+02   5.1393400e+01
   2.4980770e+02   4.7415100e+01
   2.5028990e+02   5.3247470e+01
   2.5077200e+02   5.6022860e+01
   2.5125410e+02   5.2608890e+01
   2.5173620e+02   4.4048520e+01
   2.5221830e+02   4.0427430e+01
   2.5270040e+02   4.5176300e+01
   2.5318260e+02   5.0418980e+01
   2.5366470e+02   4.9756290e+01
   2.5414680e+02   3.9507970e+01
   2.5462890e+02   3.1543580e+01
   2.5511100e+02   2.8156340e+01
   2.5559310e+02   2.8820530e+01
   2.5607530e+02   2.7477260e+01
   2.5655740e+02   2.3170990e+01
   2.5703950e+02   1.8148100e+01
   2.5752160e+02   1.3555630e+01
   2.5800370e+02   7.5515140e+00
   2.5848580e+02   6.8098140e+00
   2.5896800e+02   1.4439120e+01
   2.5945010e+02   2.9437930e+01
   2.5993220e+02   3.8658200e+01
   2.6041430e+02   3.9331420e+01
   2.6089640e+02   3.8418150e+01
   2.6137850e+02   4.2273590e+01
   2.6186070e+02   5.3545810e+01
   2.6234280e+02   6.2228940e+01
   2.6282490e+02   6.5983760e+01
   2.6330700e+02   6.5357360e+01
   2.6378910e+02   6.6762120e+01
   2.6427120e+02   7.0620480e+01
   2.6475340e+02   7.5757320e+01
   2.6523550e+02   8.0178710e+01
   2.6571760e+02   8.1955380e+01
   2.6619970e+02   9.0194180e+01
   2.6668180e+02   1.1036760e+02
   2.6716390e+02   1.4010980e+02
   2.6764610e+02   1.5529050e+02
   2.6812820e+02   1.5098560e+02
   2.6861030e+02   1.4158180e+02
   2.6909240e+02   1.3985400e+02
   2.6957450e+02   1.4767880e+02
   2.7005660e+02   1.5616980e+02
   2.7053870e+02   1.6576930e+02
   2.7102080e+02   1.7525540e+02
   2.7150300e+02   1.7419600e+02
   2.7198510e+02   1.5993760e+02
   2.7246720e+02   1.4120070e+02
   2.7294930e+02   1.2586100e+02
   2.7343140e+02   1.1486270e+02
   2.7391350e+02   1.0200140e+02
   2.7439570e+02   8.5445430e+01
   2.7487780e+02   6.5988830e+01
   2.7535990e+02   4.8976320e+01
   2.7584200e+02   3.5246430e+01
   2.7632410e+02   2.1575500e+01
   2.7680620e+02   3.6063840e+00
   2.7728840e+02   1.9625460e+01
   2.7777050e+02   3.8198940e+01
   2.7825260e+02   4.9866330e+01
   2.7873470e+02   5.5369320e+01
   2.7921680e+02   5.6964480e+01
   2.7969890e+02   5.3621280e+01
   2.8018110e+02   5.0261690e+01
   2.8066320e+02   5.2902440e+01
   2.8114530e+02   6.1929530e+01
   2.8162740e+02   6.6355620e+01
   2.8210950e+02   6.3225770e+01
   2.8259160e+02   5.4098510e+01
   2.8307380e+02   4.4259000e+01
   2.8355590e+02   3.3641940e+01
   2.8403800e+02   2.2689610e+01
   2.8452010e+02   1.3049870e+01
   2.8500220e+02   4.4673460e+00
   2.8548430e+02   8.5552980e+00
   2.8596650e+02   2.9559630e+01
   2.8644860e+02   5.4279790e+01
   2.8693070e+02   6.9163240e+01
   2.8741280e+02   7.3394350e+01
   2.8789490e+02   7.5942200e+01
   2.8837700e+02   8.4837460e+01
   2.8885920e+02   9.9108950e+01
   2.8934130e+02   1.1173860e+02
   2.8982340e+02   1.2135030e+02
   2.9030550e+02   1.2855540e+02
   2.9078760e+02   1.3275370e+02
   2.9126970e+02   1.3395800e+02
   2.9175190e+02   1.3792130e+02
   2.9223400e+02   1.5247340e+02
   2.9271610e+02   1.7457590e+02
   2.9319820e+02   1.9148800e+02
   2.9368030e+02   2.0018240e+02
   2.9416240e+02   2.0346140e+02
   2.9464460e+02   2.0558960e+02
   2.9512670e+02   2.0657650e+02
   2.9560880e+02   2.0640990e+02
   2.9609090e+02   2.0453910e+02
   2.9657300e+02   2.0146300e+02
   2.9705510e+02   1.9921790e+02
   2.9753730e+02   2.0001700e+02
   2.9801940e+02   1.9882230e+02
   2.9850150e+02   1.8525930e+02
   2.9898360e+02   1.6128830e+02
   2.9946570e+02   1.3889230e+02
   2.9994780e+02   1.2805760e+02
   3.0043000e+02   1.2445370e+02
   3.0091210e+02   1.2046530e+02
   3.0139420e+02   1.1423250e+02
   3.0187630e+02   1.0839680e+02
   3.0235840e+02   1.0508460e+02
   3.0284050e+02   1.0450370e+02
   3.0332270e+02   1.0755710e+02
   3.0380480e+02   1.1993730e+02
   3.0428690e+02   1.3441710e+02
   3.0476900e+02   1.4035630e+02
   3.0525110e+02   1.3300930e+02
   3.0573320e+02   1.2553940e+02
   3.0621540e+02   1.3000790e+02
   3.0669750e+02   1.4390960e+02
   3.0717960e+02   1.6025540e+02
   3.0766170e+02   1.7639340e+02
   3.0814380e+02   1.9218360e+02
   3.0862590e+02   2.0785280e+02
   3.0910810e+02   2.2324580e+02
   3.0959010e+02   2.3865010e+02
   3.1007230e+02   2.5299340e+02
   3.1055440e+02   2.6758330e+02
   3.1103650e+02   2.8515700e+02
   3.1151860e+02   3.0875310e+02
   3.1200070e+02   3.3507140e+02
   3.1248280e+02   3.6095200e+02
   3.1296500e+02   3.8555010e+02
   3.1344710e+02   4.1255990e+02
   3.1392920e+02   4.4648800e+02
   3.1441130e+02   4.8347580e+02
   3.1489340e+02   5.1723750e+02
   3.1537550e+02   5.4524950e+02
   3.1585770e+02   5.6946420e+02
   3.1633980e+02   5.8984900e+02
   3.1682190e+02   6.0634850e+02
   3.1730400e+02   6.2286930e+02
   3.1778610e+02   6.4263910e+02
   3.1826820e+02   6.6231890e+02
   3.1875040e+02   6.7768650e+02
   3.1923250e+02   6.7958180e+02
   3.1971460e+02   6.8410370e+02
   3.2019670e+02   6.9714100e+02
   3.2067880e+02   7.1934780e+02
   3.2116090e+02   7.4762970e+02
   3.2164310e+02   7.8471410e+02
   3.2212520e+02   8.2611780e+02
   3.2260730e+02   8.6732320e+02
   3.2308940e+02   9.0125190e+02
   3.2357150e+02   9.4103660e+02
   3.2405360e+02   9.8997350e+02
   3.2453580e+02   1.0478790e+03
   3.2501790e+02   1.1127210e+03
   3.2550000e+02   1.1894470e+03
   3.2598210e+02   1.2701050e+03
   3.2646420e+02   1.3492160e+03
   3.2694640e+02   1.4202970e+03
   3.2742850e+02   1.4964780e+03
   3.2791060e+02   1.5783590e+03
   3.2839270e+02   1.6653000e+03
   3.2887480e+02   1.7624840e+03
   3.2935690e+02   1.8725080e+03
   3.2983910e+02   1.9895760e+03
   3.3032120e+02   2.1100780e+03
   3.3080330e+02   2.2366080e+03
   3.3128540e+02   2.3632900e+03
   3.3176750e+02   2.4886070e+03
   3.3224960e+02   2.6138070e+03
   3.3273180e+02   2.7385220e+03
   3.3321390e+02   2.8640700e+03
   3.3369600e+02   2.9890950e+03
   3.3417810e+02   3.1145390e+03
   3.3466020e+02   3.2427600e+03
   3.3514230e+02   3.3645400e+03
   3.3562450e+02   3.4819230e+03
   3.3610660e+02   3.5942920e+03
   3.3658870e+02   3.6968080e+03
   3.3707080e+02   3.7962460e+03
   3.3755290e+02   3.8745420e+03
   3.3803500e+02   3.9257120e+03
   3.3851720e+02   3.9532060e+03
   3.3899930e+02   3.9309760e+03
   3.3948140e+02   3.8514600e+03
   3.3996350e+02   3.7299790e+03
   3.4044560e+02   3.5941340e+03
   3.4092770e+02   3.4428260e+03
   3.4140990e+02   3.2769320e+03
   3.4189200e+02   3.0891580e+03
   3.4237410e+02   2.8812980e+03
   3.4285620e+02   2.6797100e+03
   3.4333830e+02   2.4864920e+03
   3.4382040e+02   2.2985290e+03
   3.4430260e+02   2.1030360e+03
   3.4478470e+02   1.9040140e+03
   3.4526680e+02   1.7223470e+03
   3.4574890e+02   1.5724840e+03
   3.4623100e+02   1.4481610e+03
   3.4671310e+02   1.3308810e+03
   3.4719530e+02   1.2209860e+03
   3.4767740e+02   1.1187440e+03
   3.4815950e+02   1.0245960e+03
   3.4864160e+02   9.4016680e+02
   3.4912370e+02   8.6656430e+02
   3.4960580e+02   8.0785280e+02
   3.5008800e+02   7.5938870e+02
   3.5057000e+02   7.1277040e+02
   3.5105220e+02   6.6826750e+02
   3.5153430e+02   6.2720590e+02
   3.5201640e+02   5.9081980e+02
   3.5249850e+02   5.5864180e+02
   3.5298060e+02   5.3011910e+02
   3.5346270e+02   5.0712710e+02
   3.5394490e+02   4.8533740e+02
   3.5442700e+02   4.5866860e+02
   3.5490910e+02   4.2848020e+02
   3.5539120e+02   4.0095730e+02
   3.5587330e+02   3.8298230e+02
   3.5635540e+02   3.6891590e+02
   3.5683760e+02   3.5171730e+02
   3.5731970e+02   3.2730440e+02
   3.5780180e+02   3.0445170e+02
   3.5828390e+02   2.9144010e+02
   3.5876600e+02   2.8472110e+02
   3.5924810e+02   2.7516800e+02
   3.5973030e+02   2.5672170e+02
   3.6021240e+02   2.3538060e+02
   3.6069450e+02   2.1432890e+02
   3.6117660e+02   1.9389730e+02
   3.6165870e+02   1.7478310e+02
   3.6214080e+02   1.5651260e+02
   3.6262300e+02   1.4000970e+02
   3.6310510e+02   1.2688400e+02
   3.6358720e+02   1.1512240e+02
   3.6406930e+02   1.0907790e+02
   3.6455140e+02   1.1210690e+02
   3.6503350e+02   1.2616310e+02
   3.6551570e+02   1.3911470e+02
   3.6599780e+02   1.4998190e+02
   3.6647990e+02   1.5850210e+02
   3.6696200e+02   1.6441600e+02
   3.6744410e+02   1.6477530e+02
   3.6792620e+02   1.6579470e+02
   3.6840840e+02   1.6769980e+02
   3.6889050e+02   1.6996600e+02
   3.6937260e+02   1.7513490e+02
   3.6985470e+02   1.8462860e+02
   3.7033680e+02   1.9602990e+02
   3.7081890e+02   2.0776650e+02
   3.7130110e+02   2.2075320e+02
   3.7178320e+02   2.3248210e+02
   3.7226530e+02   2.4149380e+02
   3.7274740e+02   2.4883950e+02
   3.7322950e+02   2.6095920e+02
   3.7371160e+02   2.8050310e+02
   3.7419380e+02   3.0007260e+02
   3.7467590e+02   3.1554790e+02
   3.7515800e+02   3.2634170e+02
   3.7564010e+02   3.3510350e+02
   3.7612220e+02   3.4207420e+02
   3.7660430e+02   3.4707890e+02
   3.7708650e+02   3.5163710e+02
   3.7756860e+02   3.5718370e+02
   3.7805070e+02   3.5480570e+02
   3.7853280e+02   3.3607920e+02
   3.7901490e+02   3.0155220e+02
   3.7949700e+02   2.7563980e+02
   3.7997920e+02   2.6022190e+02
   3.8046130e+02   2.4920750e+02
   3.8094340e+02   2.3514140e+02
   3.8142550e+02   2.1804610e+02
   3.8190760e+02   2.0056070e+02
   3.8238970e+02   1.8262340e+02
   3.8287190e+02   1.6511740e+02
   3.8335400e+02   1.5080520e+02
   3.8383610e+02   1.3955040e+02
   3.8431820e+02   1.3142400e+02
   3.8480030e+02   1.2976840e+02
   3.8528240e+02   1.3137010e+02
   3.8576460e+02   1.2745470e+02
   3.8624670e+02   1.0971430e+02
   3.8672880e+02   9.1238950e+01
   3.8721090e+02   9.0129030e+01
   3.8769300e+02   1.0405820e+02
   3.8817510e+02   1.1911340e+02
   3.8865730e+02   1.2704880e+02
   3.8913940e+02   1.3085720e+02
   3.8962150e+02   1.3300680e+02
   3.9010360e+02   1.3179570e+02
   3.9058570e+02   1.3388750e+02
   3.9106780e+02   1.4547180e+02
   3.9154990e+02   1.6379830e+02
   3.9203200e+02   1.8246710e+02
   3.9251420e+02   2.0121740e+02
   3.9299630e+02   2.1732150e+02
   3.9347840e+02   2.2914010e+02
   3.9396050e+02   2.3607580e+02
   3.9444260e+02   2.4058020e+02
   3.9492470e+02   2.3895110e+02
   3.9540690e+02   2.3613440e+02
   3.9588900e+02   2.3853440e+02
   3.9637110e+02   2.5622500e+02
   3.9685320e+02   2.7071360e+02
   3.9733530e+02   2.7672240e+02
   3.9781740e+02   2.7371110e+02
   3.9829960e+02   2.6788180e+02
   3.9878170e+02   2.5650210e+02
   3.9926380e+02   2.4433830e+02
   3.9974590e+02   2.3466340e+02
   4.0022800e+02   2.2673990e+02
   4.0071010e+02   2.2241580e+02
   4.0119230e+02   2.2286310e+02
   4.0167440e+02   2.2719480e+02
   4.0215650e+02   2.3133690e+02
   4.0263860e+02   2.3559930e+02
   4.0312070e+02   2.3919410e+02
   4.0360280e+02   2.4208390e+02
   4.0408500e+02   2.4497740e+02
   4.0456710e+02   2.4428990e+02
   4.0504920e+02   2.3895640e+02
   4.0553130e+02   2.3105820e+02
   4.0601340e+02   2.2356410e+02
   4.0649550e+02   2.1603300e+02
   4.0697770e+02   2.1209640e+02
   4.0745980e+02   2.1562800e+02
   4.0794190e+02   2.2548610e+02
   4.0842400e+02   2.2729780e+02
   4.0890610e+02   2.1953500e+02
   4.0938820e+02   2.1110800e+02
   4.0987040e+02   2.1504940e+02
   4.1035250e+02   2.2888870e+02
   4.1083460e+02   2.3648770e+02
   4.1131670e+02   2.3136100e+02
   4.1179880e+02   2.1847450e+02
   4.1228090e+02   2.0650210e+02
   4.1276310e+02   1.9530790e+02
   4.1324520e+02   1.8474600e+02
   4.1372730e+02   1.7801610e+02
   4.1420940e+02   1.7119480e+02
   4.1469150e+02   1.5711130e+02
   4.1517360e+02   1.3235090e+02
   4.1565580e+02   1.0476330e+02
   4.1613790e+02   8.0664370e+01
   4.1662000e+02   5.9603090e+01
   4.1710210e+02   4.1172610e+01
   4.1758420e+02   2.2947810e+01
   4.1806630e+02   7.6607060e+00
   4.1854850e+02   1.2915650e+00
   4.1903060e+02   2.7434080e+00
   4.1951270e+02   2.5767210e+00
   4.1999480e+02   2.5397340e+00
   4.2047690e+02   3.3463130e+00
   4.2095900e+02   5.4887080e+00
   4.2144120e+02   1.2351680e+01
   4.2192330e+02   1.6929500e+01
   4.2240540e+02   1.5955750e+01
   4.2288750e+02   9.5471190e+00
   4.2336960e+02   4.2362060e+00
   4.2385170e+02   1.8631590e+00
   4.2433390e+02   4.4310910e+00
   4.2481600e+02   5.1245100e-01
   4.2529810e+02   2.0811250e+01
   4.2578020e+02   3.2806580e+01
   4.2626230e+02   3.1489590e+01
   4.2674440e+02   2.0991240e+01
   4.2722660e+02   1.2162380e+01
   4.2770870e+02   4.6585690e+00
   4.2819080e+02   9.6057100e-01
   4.2867290e+02   3.8759460e+00
   4.2915500e+02   3.2092900e+00
   4.2963710e+02   5.9848330e+00
   4.3011930e+02   1.2439580e+01
   4.3060140e+02   2.1249600e+01
   4.3108350e+02   3.1361790e+01
   4.3156560e+02   4.3065400e+01
   4.3204770e+02   5.3604860e+01
   4.3252980e+02   6.2338410e+01
   4.3301190e+02   6.9344330e+01
   4.3349400e+02   7.4168210e+01
   4.3397620e+02   7.6643430e+01
   4.3445830e+02   7.9349670e+01
   4.3494040e+02   8.3390530e+01
   4.3542250e+02   8.9231990e+01
   4.3590460e+02   9.9905880e+01
   4.3638670e+02   1.1864190e+02
   4.3686890e+02   1.3603630e+02
   4.3735100e+02   1.3811890e+02
   4.3783310e+02   1.2836970e+02
   4.3831520e+02   1.1827630e+02
   4.3879730e+02   1.1609070e+02
   4.3927940e+02   1.1583250e+02
   4.3976160e+02   1.1154180e+02
   4.4024370e+02   1.0272090e+02
   4.4072580e+02   9.1587430e+01
   4.4120790e+02   7.5857880e+01
   4.4169000e+02   5.9558320e+01
   4.4217210e+02   4.7584260e+01
   4.4265430e+02   4.7464080e+01
   4.4313640e+02   4.6457610e+01
   4.4361850e+02   3.8259980e+01
   4.4410060e+02   2.3935120e+01
   4.4458270e+02   1.1745210e+01
   4.4506480e+02   3.2882690e+00
   4.4554700e+02   2.3544310e+00
   4.4602910e+02   5.4322510e+00
   4.4651120e+02   4.8692020e+00
   4.4699330e+02   3.8833620e+00
   4.4747540e+02   2.6219180e+00
   4.4795760e+02   8.7252800e-01
   4.4843970e+02   1.4342960e+00
   4.4892180e+02   5.2017520e+00
   4.4940390e+02   8.2559810e+00
   4.4988600e+02   1.0174470e+01
   4.5036810e+02   1.1051510e+01
   4.5085030e+02   8.1681210e+00
   4.5133240e+02   1.5736080e+00
   4.5181450e+02   9.5733950e+00
   4.5229660e+02   5.0023800e+00
   4.5277870e+02   1.4025480e+01
   4.5326080e+02   2.7276430e+01
   4.5374300e+02   2.9272130e+01
   4.5422510e+02   2.4893590e+01
   4.5470720e+02   2.7534700e+01
   4.5518930e+02   3.7313720e+01
   4.5567140e+02   4.6696810e+01
   4.5615350e+02   5.0236660e+01
   4.5663570e+02   4.9648410e+01
   4.5711780e+02   4.9700620e+01
   4.5759990e+02   5.0936190e+01
   4.5808200e+02   5.2133450e+01
   4.5856410e+02   5.1699280e+01
   4.5904620e+02   5.0215940e+01
   4.5952840e+02   4.9041500e+01
   4.6001050e+02   4.9349790e+01
   4.6049260e+02   4.9807950e+01
   4.6097470e+02   4.8637360e+01
   4.6145680e+02   4.6085110e+01
   4.6193890e+02   4.4979980e+01
   4.6242110e+02   4.8326630e+01
   4.6290320e+02   5.2936400e+01
   4.6338530e+02   5.6154270e+01
   4.6386740e+02   5.6876430e+01
   4.6434950e+02   5.7015660e+01
   4.6483160e+02   5.6187350e+01
   4.6531380e+02   5.5202880e+01
   4.6579590e+02   5.5744660e+01
   4.6627800e+02   5.8903380e+01
   4.6676010e+02   6.2904910e+01
   4.6724220e+02   6.8016910e+01
   4.6772430e+02   7.5100040e+01
   4.6820650e+02   7.8477110e+01
   4.6868860e+02   7.6730830e+01
   4.6917070e+02   7.2660710e+01
   4.6965280e+02   6.8866180e+01
   4.7013490e+02   6.6344450e+01
   4.7061700e+02   6.1389070e+01
   4.7109920e+02   5.2527710e+01
   4.7158130e+02   4.1175660e+01
   4.7206340e+02   3.2840940e+01
   4.7254550e+02   2.8022370e+01
   4.7302760e+02   2.3236760e+01
   4.7350970e+02   1.5228060e+01
   4.7399180e+02   4.6197510e+00
   4.7447390e+02   5.9460400e-01
   4.7495610e+02   7.8714000e-01
   4.7543820e+02   3.6172180e+00
   4.7592030e+02   2.4636800e-01
   4.7640240e+02   7.3888850e+00
   4.7688450e+02   1.2126340e+01
   4.7736660e+02   9.3641660e+00
   4.7784880e+02   3.8767400e+00
   4.7833090e+02   1.2496640e+00
   4.7881300e+02   1.3820800e+00
   4.7929510e+02   3.4990840e+00
   4.7977720e+02   8.8272710e+00
   4.8025930e+02   1.4807280e+01
   4.8074150e+02   1.9100800e+01
   4.8122360e+02   2.1399600e+01
   4.8170570e+02   2.1888180e+01
   4.8218780e+02   2.0143830e+01
   4.8266990e+02   1.6766450e+01
   4.8315200e+02   1.3108370e+01
   4.8363420e+02   8.3284610e+00
   4.8411630e+02   3.9664310e+00
   4.8459840e+02   2.5726000e-02
   4.8508050e+02   3.6181340e+00
   4.8556260e+02   5.1931460e+00
   4.8604470e+02   1.9095150e+00
   4.8652690e+02   1.2667240e+00
   4.8700900e+02   9.8147600e-01
   4.8749110e+02   5.1540530e+00
   4.8797320e+02   9.8508000e+00
   4.8845530e+02   1.2773190e+01
   4.8893740e+02   1.4087800e+01
   4.8941960e+02   1.3900820e+01
   4.8990170e+02   1.1838990e+01
   4.9038380e+02   9.7320560e+00
   4.9086590e+02   8.2156980e+00
   4.9134800e+02   7.2692260e+00
   4.9183010e+02   6.6570430e+00
   4.9231230e+02   6.4028630e+00
   4.9279440e+02   6.2310180e+00
   4.9327650e+02   5.7340700e+00
   4.9375860e+02   5.0607910e+00
   4.9424070e+02   4.4685060e+00
   4.9472280e+02   3.4333500e+00
   4.9520500e+02   3.5843200e+00
   4.9568710e+02   9.0627440e+00
   4.9616920e+02   1.7954380e+01
   4.9665130e+02   2.3839140e+01
   4.9713340e+02   2.0212010e+01
   4.9761550e+02   1.4065950e+01
   4.9809770e+02   1.1100220e+01
   4.9857980e+02   1.1948090e+01
   4.9906190e+02   1.4633240e+01
   4.9954400e+02   2.0366120e+01
   5.0002610e+02   2.6458280e+01
   5.0050820e+02   3.0369320e+01
   5.0099040e+02   2.9256120e+01
   5.0147250e+02   2.8356060e+01
   5.0195460e+02   2.9605130e+01
   5.0243670e+02   3.2120480e+01
   5.0291880e+02   3.1952060e+01
   5.0340090e+02   2.2388550e+01
   5.0388310e+02   1.7507260e+01
   5.0436520e+02   2.5011700e+01
   5.0484730e+02   4.9852890e+01
   5.0532940e+02   6.1606930e+01
   5.0581150e+02   5.4855620e+01
   5.0629360e+02   4.2320770e+01
   5.0677580e+02   3.8200100e+01
   5.0725790e+02   4.3370270e+01
   5.0774000e+02   5.0374760e+01
   5.0822210e+02   5.8659130e+01
   5.0870420e+02   6.6950790e+01
   5.0918630e+02   7.0502290e+01
   5.0966850e+02   6.9351200e+01
   5.1015060e+02   7.0394680e+01
   5.1063270e+02   8.0977080e+01
   5.1111480e+02   9.5934200e+01
   5.1159690e+02   1.0354340e+02
   5.1207900e+02   1.0238150e+02
   5.1256120e+02   1.0013660e+02
   5.1304330e+02   1.0433910e+02
   5.1352540e+02   1.1177600e+02
   5.1400750e+02   1.1744620e+02
   5.1448960e+02   1.1733860e+02
   5.1497170e+02   1.1730740e+02
   5.1545390e+02   1.2066830e+02
   5.1593600e+02   1.2680960e+02
   5.1641810e+02   1.3352950e+02
   5.1690020e+02   1.4042770e+02
   5.1738230e+02   1.4743160e+02
   5.1786440e+02   1.5533260e+02
   5.1834660e+02   1.6609200e+02
   5.1882870e+02   1.7150610e+02
   5.1931080e+02   1.6538770e+02
   5.1979290e+02   1.5740430e+02
   5.2027500e+02   1.5779000e+02
   5.2075710e+02   1.7179080e+02
   5.2123930e+02   1.8320500e+02
   5.2172140e+02   1.8875430e+02
   5.2220350e+02   1.9032400e+02
   5.2268560e+02   1.9566750e+02
   5.2316770e+02   2.0587210e+02
   5.2364980e+02   2.1471300e+02
   5.2413200e+02   2.1700030e+02
   5.2461410e+02   2.1403830e+02
   5.2509620e+02   2.1678530e+02
   5.2557830e+02   2.2583970e+02
   5.2606040e+02   2.3680990e+02
   5.2654250e+02   2.4500040e+02
   5.2702470e+02   2.5143130e+02
   5.2750680e+02   2.5925480e+02
   5.2798890e+02   2.7068140e+02
   5.2847100e+02   2.8210250e+02
   5.2895310e+02   2.8879320e+02
   5.2943520e+02   2.9232110e+02
   5.2991740e+02   2.9787740e+02
   5.3039950e+02   3.0997730e+02
   5.3088160e+02   3.2352260e+02
   5.3136370e+02   3.3494870e+02
   5.3184580e+02   3.4299180e+02
   5.3232790e+02   3.5308120e+02
   5.3281010e+02   3.6742140e+02
   5.3329220e+02   3.8483480e+02
   5.3377430e+02   4.0366600e+02
   5.3425640e+02   4.2858110e+02
   5.3473850e+02   4.4755830e+02
   5.3522060e+02   4.6097880e+02
   5.3570270e+02   4.6892060e+02
   5.3618480e+02   4.7066550e+02
   5.3666690e+02   4.6484670e+02
   5.3714900e+02   4.5546180e+02
   5.3763120e+02   4.4339790e+02
   5.3811330e+02   4.2867140e+02
   5.3859540e+02   4.1275110e+02
   5.3907750e+02   3.9590940e+02
   5.3955960e+02   3.7691850e+02
   5.4004170e+02   3.5268370e+02
   5.4052390e+02   3.2491650e+02
   5.4100600e+02   3.0165040e+02
   5.4148810e+02   2.8491100e+02
   5.4197020e+02   2.7197440e+02
   5.4245230e+02   2.5977650e+02
   5.4293440e+02   2.4839510e+02
   5.4341660e+02   2.3859470e+02
   5.4389870e+02   2.3191470e+02
   5.4438080e+02   2.2636170e+02
   5.4486290e+02   2.1974060e+02
   5.4534500e+02   2.1210180e+02
   5.4582710e+02   2.0678110e+02
   5.4630930e+02   2.0735750e+02
   5.4679140e+02   2.0929350e+02
   5.4727350e+02   2.0971150e+02
   5.4775560e+02   2.0897990e+02
   5.4823770e+02   2.0514910e+02
   5.4871980e+02   1.9640070e+02
   5.4920200e+02   1.8520430e+02
   5.4968410e+02   1.7499120e+02
   5.5016620e+02   1.6562590e+02
   5.5064830e+02   1.5731560e+02
   5.5113040e+02   1.5035800e+02
   5.5161250e+02   1.4454190e+02
   5.5209470e+02   1.3890480e+02
   5.5257680e+02   1.3379990e+02
   5.5305890e+02   1.2721810e+02
   5.5354100e+02   1.1573070e+02
   5.5402310e+02   1.0081840e+02
   5.5450520e+02   9.3078700e+01
   5.5498740e+02   9.4146390e+01
   5.5546950e+02   9.7253750e+01
   5.5595160e+02   9.4547970e+01
   5.5643370e+02   8.8218870e+01
   5.5691580e+02   8.3292450e+01
   5.5739790e+02   8.2165130e+01
   5.5788010e+02   8.2500610e+01
   5.5836220e+02   8.4293790e+01
   5.5884430e+02   8.6268800e+01
   5.5932640e+02   8.4229640e+01
   5.5980850e+02   6.9178380e+01
   5.6029060e+02   5.5483090e+01
   5.6077280e+02   5.3069180e+01
   5.6125490e+02   6.6167570e+01
   5.6173700e+02   7.2479800e+01
   5.6221910e+02   6.1286350e+01
   5.6270120e+02   4.7733370e+01
   5.6318330e+02   4.3592470e+01
   5.6366550e+02   5.5783290e+01
   5.6414760e+02   6.2827390e+01
   5.6462970e+02   6.1356410e+01
   5.6511180e+02   5.4959780e+01
   5.6559390e+02   5.1484590e+01
   5.6607600e+02   5.1160160e+01
   5.6655820e+02   5.2445010e+01
   5.6704030e+02   5.5948150e+01
   5.6752240e+02   6.0460940e+01
   5.6800450e+02   6.0343230e+01
   5.6848660e+02   5.5544680e+01
   5.6896880e+02   5.1177610e+01
   5.6945090e+02   5.1633730e+01
   5.6993300e+02   5.5308750e+01
   5.7041510e+02   5.9967440e+01
   5.7089720e+02   6.5712250e+01
   5.7137930e+02   7.0446470e+01
   5.7186150e+02   7.2319370e+01
   5.7234360e+02   7.2177340e+01
   5.7282570e+02   7.1237340e+01
   5.7330780e+02   6.9140690e+01
   5.7378990e+02   6.7096560e+01
   5.7427200e+02   6.5801510e+01
   5.7475420e+02   6.5050540e+01
   5.7523630e+02   6.3623600e+01
   5.7571840e+02   5.9974640e+01
   5.7620050e+02   5.7116060e+01
   5.7668260e+02   5.6845000e+01
   5.7716470e+02   6.0333560e+01
   5.7764690e+02   6.0018740e+01
   5.7812900e+02   5.4898130e+01
   5.7861110e+02   4.7750950e+01
   5.7909320e+02   4.0739230e+01
   5.7957530e+02   3.3860840e+01
   5.8005740e+02   2.8625430e+01
   5.8053960e+02   2.5816250e+01
   5.8102170e+02   2.3755000e+01
   5.8150380e+02   1.8499880e+01
   5.8198590e+02   1.1049260e+01
   5.8246800e+02   5.8798520e+00
   5.8295010e+02   6.2953490e+00
   5.8343230e+02   9.4871220e+00
   5.8391440e+02   1.3425350e+01
   5.8439650e+02   1.7816220e+01
   5.8487860e+02   2.0284910e+01
   5.8536070e+02   1.6939940e+01
   5.8584280e+02   1.2822480e+01
   5.8632500e+02   1.2140840e+01
   5.8680710e+02   1.7676540e+01
   5.8728920e+02   2.1175380e+01
   5.8777130e+02   1.8975280e+01
   5.8825340e+02   1.4897520e+01
   5.8873550e+02   1.3708800e+01
   5.8921770e+02   1.9403440e+01
   5.8969980e+02   2.0669770e+01
   5.9018190e+02   1.3821720e+01
   5.9066400e+02   2.2008970e+00
   5.9114610e+02   2.5106200e+00
   5.9162820e+02   9.0182500e-01
   5.9211040e+02   4.8283080e+00
   5.9259250e+02   5.6089170e+00
   5.9307460e+02   3.7896420e+00
   5.9355670e+02   1.9776000e+00
   5.9403880e+02   1.7120400e-01
   5.9452090e+02   1.6438290e+00
   5.9500310e+02   3.8019710e+00
   5.9548520e+02   5.8944400e+00
   5.9596730e+02   7.0050960e+00
   5.9644940e+02   6.4815980e+00
   5.9693150e+02   6.4488830e+00
   5.9741360e+02   9.1969600e+00
   5.9789580e+02   1.3173980e+01
   5.9837790e+02   1.6079410e+01
   5.9886000e+02   1.7320650e+01
   5.9934210e+02   1.7257540e+01
   5.9982420e+02   1.4291690e+01
   6.0030630e+02   9.3720700e+00
   6.0078850e+02   8.7630000e+00
   6.0127060e+02   1.6813690e+01
   6.0175270e+02   2.3435970e+01
   6.0223480e+02   2.4494080e+01
   6.0271690e+02   1.9553770e+01
   6.0319900e+02   1.3366030e+01
   6.0368120e+02   5.0394290e+00
   6.0416330e+02   2.0724180e+00
   6.0464540e+02   4.3892820e+00
   6.0512750e+02   2.3491520e+00
   6.0560960e+02   6.5042100e-01
   6.0609170e+02   4.6979370e+00
   6.0657390e+02   7.8316960e+00
   6.0705600e+02   6.6357120e+00
   6.0753810e+02   2.5663760e+00
   6.0802020e+02   8.4542800e-01
   6.0850230e+02   1.8325500e+00
   6.0898440e+02   1.7458190e+00
   6.0946660e+02   1.0021970e+00
   6.0994870e+02   1.6235400e-01
   6.1043080e+02   7.3321500e-01
   6.1091290e+02   2.3736570e+00
   6.1139500e+02   1.6212160e+00
   6.1187710e+02   4.3807370e+00
   6.1235930e+02   1.8242710e+01
   6.1284140e+02   2.7271120e+01
   6.1332350e+02   2.9257480e+01
   6.1380560e+02   2.8770320e+01
   6.1428770e+02   2.9325470e+01
   6.1476980e+02   3.1155330e+01
   6.1525200e+02   3.2955410e+01
   6.1573410e+02   3.4769960e+01
   6.1621620e+02   3.6162660e+01
   6.1669830e+02   3.4862270e+01
   6.1718040e+02   3.1574950e+01
   6.1766250e+02   3.2354130e+01
   6.1814460e+02   4.1843720e+01
   6.1862670e+02   5.4290470e+01
   6.1910880e+02   6.1768490e+01
   6.1959090e+02   6.4992030e+01
   6.2007310e+02   6.7475280e+01
   6.2055520e+02   7.1106810e+01
   6.2103730e+02   7.4791750e+01
   6.2151940e+02   7.7442900e+01
   6.2200150e+02   7.8847530e+01
   6.2248360e+02   8.1135710e+01
   6.2296580e+02   8.3052370e+01
   6.2344790e+02   8.7313350e+01
   6.2393000e+02   9.6298680e+01
   6.2441210e+02   1.1572560e+02
   6.2489420e+02   1.2936570e+02
   6.2537630e+02   1.3515250e+02
   6.2585850e+02   1.3710710e+02
   6.2634060e+02   1.4159590e+02
   6.2682270e+02   1.4910780e+02
   6.2730480e+02   1.5514500e+02
   6.2778690e+02   1.5795410e+02
   6.2826900e+02   1.5916150e+02
   6.2875120e+02   1.6266280e+02
   6.2923330e+02   1.6817720e+02
   6.2971540e+02   1.7371550e+02
   6.3019750e+02   1.7631400e+02
   6.3067960e+02   1.7933440e+02
   6.3116170e+02   1.8649950e+02
   6.3164390e+02   1.9796000e+02
   6.3212600e+02   2.1269710e+02
   6.3260810e+02   2.3325730e+02
   6.3309020e+02   2.5476810e+02
   6.3357230e+02   2.7381530e+02
   6.3405440e+02   2.8968110e+02
   6.3453660e+02   3.0295200e+02
   6.3501870e+02   3.0997420e+02
   6.3550080e+02   3.1657700e+02
   6.3598290e+02   3.2937580e+02
   6.3646500e+02   3.5017650e+02
   6.3694710e+02   3.7165580e+02
   6.3742930e+02   3.9245790e+02
   6.3791140e+02   4.1362590e+02
   6.3839350e+02   4.3776820e+02
   6.3887560e+02   4.6501300e+02
   6.3935770e+02   4.9532120e+02
   6.3983980e+02   5.2755930e+02
   6.4032200e+02   5.6362810e+02
   6.4080410e+02   6.0914210e+02
   6.4128620e+02   6.6347950e+02
   6.4176830e+02   7.2036640e+02
   6.4225040e+02   7.7590170e+02
   6.4273250e+02   8.3143460e+02
   6.4321470e+02   8.8500780e+02
   6.4369680e+02   9.3532360e+02
   6.4417890e+02   9.9523000e+02
   6.4466100e+02   1.0789730e+03
   6.4514310e+02   1.1691410e+03
   6.4562520e+02   1.2512590e+03
   6.4610740e+02   1.3105270e+03
   6.4658950e+02   1.3853140e+03
   6.4707160e+02   1.4813830e+03
   6.4755370e+02   1.5895430e+03
   6.4803580e+02   1.6902650e+03
   6.4851790e+02   1.7818590e+03
   6.4900010e+02   1.8789900e+03
   6.4948220e+02   1.9849220e+03
   6.4996430e+02   2.0993450e+03
   6.5044640e+02   2.2189150e+03
   6.5092850e+02   2.3433290e+03
   6.5141060e+02   2.4757320e+03
   6.5189280e+02   2.6185120e+03
   6.5237490e+02   2.7662130e+03
   6.5285700e+02   2.9118250e+03
   6.5333910e+02   3.0552400e+03
   6.5382120e+02   3.2085720e+03
   6.5430330e+02   3.3896560e+03
   6.5478550e+02   3.5746430e+03
   6.5526760e+02   3.7464250e+03
   6.5574970e+02   3.8972310e+03
   6.5623180e+02   4.0440770e+03
   6.5671390e+02   4.1855000e+03
   6.5719600e+02   4.3254840e+03
   6.5767820e+02   4.4704810e+03
   6.5816030e+02   4.6293930e+03
   6.5864240e+02   4.7590820e+03
   6.5912450e+02   4.8532560e+03
   6.5960660e+02   4.9172440e+03
   6.6008870e+02   4.9623610e+03
   6.6057090e+02   4.9875260e+03
   6.6105300e+02   4.9801940e+03
   6.6153510e+02   4.9313030e+03
   6.6201720e+02   4.8508880e+03
   6.6249930e+02   4.7378910e+03
   6.6298140e+02   4.6004790e+03
   6.6346360e+02   4.4730320e+03
   6.6394570e+02   4.3700150e+03
   6.6442780e+02   4.2833400e+03
   6.6490990e+02   4.2077260e+03
   6.6539200e+02   4.1427290e+03
   6.6587410e+02   4.0949860e+03
   6.6635630e+02   4.0658730e+03
   6.6683840e+02   4.0552250e+03
   6.6732050e+02   4.0637570e+03
   6.6780260e+02   4.0921050e+03
   6.6828470e+02   4.1371190e+03
   6.6876680e+02   4.1987630e+03
   6.6924900e+02   4.2772350e+03
   6.6973110e+02   4.3772590e+03
   6.7021320e+02   4.4964140e+03
   6.7069530e+02   4.6178180e+03
   6.7117740e+02   4.7378470e+03
   6.7165950e+02   4.8617760e+03
   6.7214170e+02   5.0020250e+03
   6.7262380e+02   5.1521380e+03
   6.7310590e+02   5.3008580e+03
   6.7358800e+02   5.4424570e+03
   6.7407010e+02   5.5821100e+03
   6.7455220e+02   5.7162150e+03
   6.7503440e+02   5.8497840e+03
   6.7551650e+02   6.0043320e+03
   6.7599860e+02   6.2182630e+03
   6.7648070e+02   6.4163660e+03
   6.7696280e+02   6.5710170e+03
   6.7744490e+02   6.6823140e+03
   6.7792710e+02   6.8091450e+03
   6.7840920e+02   6.9629430e+03
   6.7889130e+02   7.0995490e+03
   6.7937340e+02   7.1916620e+03
   6.7985550e+02   7.2404910e+03
   6.8033760e+02   7.2624810e+03
   6.8081980e+02   7.2586790e+03
   6.8130190e+02   7.2197820e+03
   6.8178400e+02   7.1487910e+03
   6.8226610e+02   7.0331260e+03
   6.8274820e+02   6.8504730e+03
   6.8323030e+02   6.5845000e+03
   6.8371250e+02   6.2840180e+03
   6.8419460e+02   5.9599430e+03
   6.8467670e+02   5.6210480e+03
   6.8515880e+02   5.2782040e+03
   6.8564090e+02   4.9244530e+03
   6.8612300e+02   4.5725360e+03
   6.8660520e+02   4.2123280e+03
   6.8708730e+02   3.8576810e+03
   6.8756940e+02   3.5415660e+03
   6.8805150e+02   3.2675010e+03
   6.8853360e+02   3.0103250e+03
   6.8901570e+02   2.7606660e+03
   6.8949790e+02   2.5238950e+03
   6.8998000e+02   2.3133070e+03
   6.9046210e+02   2.1286590e+03
   6.9094420e+02   1.9640990e+03
   6.9142630e+02   1.8187910e+03
   6.9190840e+02   1.6862390e+03
   6.9239060e+02   1.5563880e+03
   6.9287270e+02   1.4293300e+03
   6.9335480e+02   1.3124150e+03
   6.9383690e+02   1.2027880e+03
   6.9431900e+02   1.1083890e+03
   6.9480110e+02   1.0367140e+03
   6.9528330e+02   9.9900520e+02
   6.9576540e+02   9.5046720e+02
   6.9624750e+02   8.7948070e+02
   6.9672960e+02   8.0629440e+02
   6.9721170e+02   7.4898750e+02
   6.9769380e+02   7.1114230e+02
   6.9817600e+02   6.6767160e+02
   6.9865810e+02   6.1398710e+02
   6.9914020e+02   5.6172330e+02
   6.9962230e+02   5.3326880e+02
   7.0010440e+02   5.2234980e+02
   7.0058650e+02   5.0138150e+02
   7.0106860e+02   4.5692170e+02
   7.0155070e+02   4.0906300e+02
   7.0203280e+02   3.7809030e+02
   7.0251500e+02   3.5921670e+02
   7.0299710e+02   3.4322760e+02
   7.0347920e+02   3.2889740e+02
   7.0396130e+02   3.1411110e+02
   7.0444340e+02   2.9720150e+02
   7.0492550e+02   2.7879370e+02
   7.0540770e+02   2.6236330e+02
   7.0588980e+02   2.4948630e+02
   7.0637190e+02   2.3647610e+02
   7.0685400e+02   2.2236100e+02
   7.0733610e+02   2.0697670e+02
   7.0781820e+02   1.9006250e+02
   7.0830040e+02   1.7170830e+02
   7.0878250e+02   1.5339970e+02
   7.0926460e+02   1.3176650e+02
   7.0974670e+02   1.1217500e+02
   7.1022880e+02   1.1037550e+02
   7.1071090e+02   1.2760530e+02
   7.1119310e+02   1.4068620e+02
   7.1167520e+02   1.2809770e+02
   7.1215730e+02   1.0696500e+02
   7.1263940e+02   9.3448970e+01
   7.1312150e+02   9.3097600e+01
   7.1360360e+02   9.3479060e+01
   7.1408580e+02   9.2410860e+01
   7.1456790e+02   9.0265660e+01
   7.1505000e+02   8.8127750e+01
   7.1553210e+02   8.8477540e+01
   7.1601420e+02   8.2936830e+01
   7.1649630e+02   6.7655030e+01
   7.1697850e+02   5.0355530e+01
   7.1746060e+02   4.5934360e+01
   7.1794270e+02   5.2713900e+01
   7.1842480e+02   5.7969300e+01
   7.1890690e+02   5.8493800e+01
   7.1938900e+02   5.5885280e+01
   7.1987120e+02   4.9766140e+01
   7.2035330e+02   4.1925990e+01
   7.2083540e+02   3.6437100e+01
   7.2131750e+02   3.8496830e+01
   7.2179960e+02   4.0065310e+01
   7.2228170e+02   3.6752690e+01
   7.2276390e+02   2.9473510e+01
   7.2324600e+02   2.4208530e+01
   7.2372810e+02   2.2299710e+01
   7.2421020e+02   2.1253270e+01
   7.2469230e+02   2.1312190e+01
   7.2517440e+02   2.1529750e+01
   7.2565660e+02   1.6888310e+01
   7.2613870e+02   7.0262150e+00
   7.2662080e+02   1.5255700e-01
   7.2710290e+02   3.7424930e+00
   7.2758500e+02   1.3169310e+01
   7.2806710e+02   1.4995240e+01
   7.2854930e+02   8.7885440e+00
   7.2903140e+02   2.7837830e+00
   7.2951350e+02   3.1424870e+00
   7.2999560e+02   5.9359130e+00
   7.3047770e+02   8.2421260e+00
   7.3095980e+02   9.8226320e+00
   7.3144200e+02   1.0203610e+01
   7.3192410e+02   6.4394840e+00
   7.3240620e+02   2.5339660e+00
   7.3288830e+02   3.0882260e+00
   7.3337040e+02   1.1269960e+01
   7.3385250e+02   1.2565160e+01
   7.3433470e+02   4.1537480e+00
   7.3481680e+02   6.3802800e+00
   7.3529890e+02   8.6121220e+00
   7.3578100e+02   3.7727360e+00
   7.3626310e+02   1.9208070e+00
   7.3674520e+02   7.4701540e+00
   7.3722740e+02   1.1606540e+01
   7.3770950e+02   1.2672030e+01
   7.3819160e+02   1.1650700e+01
   7.3867370e+02   1.0202670e+01
   7.3915580e+02   9.7233580e+00
   7.3963790e+02   8.0475770e+00
   7.4012010e+02   3.5296940e+00
   7.4060220e+02   2.5007630e+00
   7.4108430e+02   7.1298830e+00
   7.4156640e+02   1.0973050e+01
   7.4204850e+02   1.2052670e+01
   7.4253060e+02   9.2456360e+00
   7.4301280e+02   3.5317690e+00
   7.4349490e+02   2.0633240e+00
   7.4397700e+02   7.4990540e+00
   7.4445910e+02   1.1845150e+01
   7.4494120e+02   1.5097050e+01
   7.4542330e+02   1.6481230e+01
   7.4590550e+02   1.3445710e+01
   7.4638760e+02   7.0887150e+00
   7.4686970e+02   2.7729190e+00
   7.4735180e+02   3.9895630e+00
   7.4783390e+02   7.5101620e+00
   7.4831600e+02   1.2891200e+01
   7.4879820e+02   2.0265410e+01
   7.4928030e+02   2.3388340e+01
   7.4976240e+02   2.0816040e+01
   7.5024450e+02   1.5745060e+01
   7.5072660e+02   8.3163150e+00
   7.5120870e+02   1.6126710e+00
   7.5169090e+02   4.3128050e+00
   7.5217300e+02   5.5194100e-01
   7.5265510e+02   6.8168950e+00
   7.5313720e+02   1.0618230e+01
   7.5361930e+02   1.2126590e+01
   7.5410140e+02   1.0495210e+01
   7.5458360e+02   5.3038020e+00
   7.5506570e+02   1.5296330e+00
   7.5554780e+02   3.8854370e+00
   7.5602990e+02   8.0837710e+00
   7.5651200e+02   1.0418850e+01
   7.5699410e+02   9.8079530e+00
   7.5747630e+02   8.7832340e+00
   7.5795840e+02   6.8231510e+00
   7.5844050e+02   4.5464480e+00
   7.5892260e+02   3.0531010e+00
   7.5940470e+02   2.7694400e+00
   7.5988680e+02   5.6448400e-01
   7.6036900e+02   4.6567080e+00
   7.6085110e+02   9.8792420e+00
   7.6133320e+02   1.0464750e+01
   7.6181530e+02   7.7307430e+00
   7.6229740e+02   5.3040770e+00
   7.6277950e+02   4.2532350e+00
   7.6326170e+02   3.8221740e+00
   7.6374380e+02   4.7084960e+00
   7.6422590e+02   5.4262700e+00
   7.6470800e+02   3.7874150e+00
   7.6519010e+02   4.0883180e+00
   7.6567220e+02   9.9708860e+00
   7.6615440e+02   1.2714750e+01
   7.6663650e+02   1.2952180e+01
   7.6711860e+02   1.1583250e+01
   7.6760070e+02   8.3712770e+00
   7.6808280e+02   4.9578860e+00
   7.6856490e+02   1.3472900e+00
   7.6904710e+02   1.5788570e+00
   7.6952920e+02   5.1382400e-01
   7.7001130e+02   3.1813660e+00
   7.7049340e+02   4.1483150e+00
   7.7097550e+02   5.0763240e+00
   7.7145760e+02   1.3689390e+01
   7.7193980e+02   1.0961240e+01
   7.7242190e+02   6.9552600e-01
   7.7290400e+02   3.8211980e+00
   7.7338610e+02   9.1453250e+00
   7.7386820e+02   1.8979290e+01
   7.7435030e+02   1.9355510e+01
   7.7483250e+02   1.1681760e+01
   7.7531460e+02   4.5073240e+00
   7.7579670e+02   2.3692930e+00
   7.7627880e+02   7.7211910e+00
   7.7676090e+02   1.0939540e+01
   7.7724300e+02   1.2208950e+01
   7.7772520e+02   1.1226380e+01
   7.7820730e+02   8.3301700e+00
   7.7868940e+02   6.0269780e+00
   7.7917150e+02   5.4723210e+00
   7.7965360e+02   6.3779300e+00
   7.8013570e+02   1.0554660e+01
   7.8061790e+02   1.7801210e+01
   7.8110000e+02   1.9272860e+01
   7.8158210e+02   4.5100710e+00
   7.8206420e+02   7.7960360e+00
   7.8254630e+02   8.7417140e+00
   7.8302840e+02   2.2151180e+00
   7.8351050e+02   7.3104250e+00
   7.8399260e+02   5.5969540e+00
   7.8447470e+02   2.8424680e+00
   7.8495680e+02   3.0426030e+00
   7.8543900e+02   5.4215090e+00
   7.8592110e+02   8.9065250e+00
   7.8640320e+02   1.3364170e+01
   7.8688530e+02   1.5523960e+01
   7.8736740e+02   1.0861150e+01
   7.8784950e+02   4.4184570e+00
   7.8833170e+02   3.0235300e-01
   7.8881380e+02   3.4491730e+00
   7.8929590e+02   1.9226070e+00
   7.8977800e+02   9.9858550e+00
   7.9026010e+02   2.0992520e+01
   7.9074220e+02   2.2911800e+01
   7.9122440e+02   1.3914440e+01
   7.9170650e+02   8.9930880e+00
   7.9218860e+02   8.8638000e+00
   7.9267070e+02   9.8076930e+00
   7.9315280e+02   7.5074460e+00
   7.9363490e+02   3.9326170e+00
   7.9411710e+02   3.2019960e+00
   7.9459920e+02   6.0123440e+00
   7.9508130e+02   1.0047580e+01
   7.9556340e+02   1.4517030e+01
   7.9604550e+02   1.9173450e+01
   7.9652760e+02   2.4000060e+01
   7.9700980e+02   3.0644850e+01
   7.9749190e+02   3.3911450e+01
   7.9797400e+02   3.2189790e+01
   7.9845610e+02   2.8881990e+01
   7.9893820e+02   2.7760380e+01
   7.9942030e+02   2.8978880e+01
   7.9990250e+02   2.6952380e+01
   8.0038460e+02   2.0609410e+01
   8.0086670e+02   1.4135000e+01
   8.0134880e+02   1.0968150e+01
   8.0183090e+02   1.1137420e+01
   8.0231300e+02   1.5579040e+01
   8.0279520e+02   2.6672780e+01
   8.0327730e+02   3.5948090e+01
   8.0375940e+02   3.8914520e+01
   8.0424150e+02   3.8104310e+01
   8.0472360e+02   3.6208250e+01
   8.0520570e+02   3.2299350e+01
   8.0568790e+02   2.9619480e+01
   8.0617000e+02   2.8518710e+01
   8.0665210e+02   2.8328540e+01
   8.0713420e+02   2.9009380e+01
   8.0761630e+02   3.0289230e+01
   8.0809840e+02   2.7870150e+01
   8.0858060e+02   1.9384720e+01
   8.0906270e+02   1.2424870e+01
   8.0954480e+02   1.8127010e+01
   8.1002690e+02   2.9977980e+01
   8.1050900e+02   3.7545750e+01
   8.1099110e+02   3.5610530e+01
   8.1147330e+02   3.2612750e+01
   8.1195540e+02   2.9528660e+01
   8.1243750e+02   2.7355360e+01
   8.1291960e+02   2.8026950e+01
   8.1340170e+02   3.3862200e+01
   8.1388390e+02   3.4505460e+01
   8.1436600e+02   2.6716220e+01
   8.1484810e+02   1.7394780e+01
   8.1533020e+02   1.9175290e+01
   8.1581230e+02   2.9295930e+01
   8.1629440e+02   3.6024800e+01
   8.1677660e+02   3.5020230e+01
   8.1725870e+02   3.2732480e+01
   8.1774080e+02   3.5154010e+01
   8.1822290e+02   3.9314510e+01
   8.1870500e+02   4.1015730e+01
   8.1918710e+02   3.5498210e+01
   8.1966930e+02   3.3328980e+01
   8.2015140e+02   3.8270650e+01
   8.2063350e+02   4.5152980e+01
   8.2111560e+02   4.4884000e+01
   8.2159770e+02   3.6208420e+01
   8.2207980e+02   3.1285890e+01
   8.2256200e+02   3.3266940e+01
   8.2304410e+02   3.8604110e+01
   8.2352620e+02   4.2370650e+01
   8.2400830e+02   4.5018070e+01
   8.2449040e+02   4.7835680e+01
   8.2497250e+02   5.2955430e+01
   8.2545470e+02   5.5846270e+01
   8.2593680e+02   5.2462950e+01
   8.2641890e+02   4.6094100e+01
   8.2690100e+02   4.1622130e+01
   8.2738310e+02   3.9003250e+01
   8.2786520e+02   4.0610020e+01
   8.2834740e+02   4.9050090e+01
   8.2882950e+02   5.8299390e+01
   8.2931160e+02   5.7079360e+01
   8.2979370e+02   4.7257840e+01
   8.3027580e+02   4.1144900e+01
   8.3075790e+02   4.2298630e+01
   8.3124010e+02   4.4939360e+01
   8.3172220e+02   4.3584840e+01
   8.3220430e+02   4.0365050e+01
   8.3268640e+02   3.8427730e+01
   8.3316850e+02   4.0283080e+01
   8.3365060e+02   4.2727050e+01
   8.3413280e+02   4.5338870e+01
   8.3461490e+02   4.7551970e+01
   8.3509700e+02   4.8495510e+01
   8.3557910e+02   4.7531560e+01
   8.3606120e+02   4.7557500e+01
   8.3654330e+02   4.9051120e+01
   8.3702550e+02   5.1702880e+01
   8.3750760e+02   5.5726750e+01
   8.3798970e+02   6.0633760e+01
   8.3847180e+02   6.4990750e+01
   8.3895390e+02   6.9125270e+01
   8.3943600e+02   7.1186520e+01
   8.3991820e+02   6.6907290e+01
   8.4040030e+02   6.1385680e+01
   8.4088240e+02   6.1220670e+01
   8.4136450e+02   6.9198970e+01
   8.4184660e+02   7.8226650e+01
   8.4232870e+02   8.8996730e+01
   8.4281090e+02   9.9590520e+01
   8.4329300e+02   1.0664840e+02
   8.4377510e+02   1.1017180e+02
   8.4425720e+02   1.1345580e+02
   8.4473930e+02   1.1714150e+02
   8.4522140e+02   1.2101780e+02
   8.4570360e+02   1.2436950e+02
   8.4618570e+02   1.2808430e+02
   8.4666780e+02   1.3359890e+02
   8.4714990e+02   1.4268120e+02
   8.4763200e+02   1.5214110e+02
   8.4811410e+02   1.5654470e+02
   8.4859630e+02   1.6136490e+02
   8.4907840e+02   1.7432620e+02
   8.4956050e+02   1.9916360e+02
   8.5004260e+02   2.1912110e+02
   8.5052470e+02   2.3206020e+02
   8.5100680e+02   2.4245150e+02
   8.5148900e+02   2.5573000e+02
   8.5197110e+02   2.7105180e+02
   8.5245320e+02   2.8583890e+02
   8.5293530e+02   3.0006390e+02
   8.5341740e+02   3.1197480e+02
   8.5389950e+02   3.1693540e+02
   8.5438170e+02   3.2073700e+02
   8.5486380e+02   3.2974090e+02
   8.5534590e+02   3.5056420e+02
   8.5582800e+02   3.6535480e+02
   8.5631010e+02   3.7272000e+02
   8.5679220e+02   3.7579790e+02
   8.5727440e+02   3.7721270e+02
   8.5775650e+02   3.7693380e+02
   8.5823860e+02   3.7545220e+02
   8.5872070e+02   3.7294190e+02
   8.5920280e+02   3.6758290e+02
   8.5968490e+02   3.5413940e+02
   8.6016710e+02   3.3899130e+02
   8.6064920e+02   3.3092700e+02
   8.6113130e+02   3.3479360e+02
   8.6161340e+02   3.3139070e+02
   8.6209550e+02   3.0894390e+02
   8.6257760e+02   2.8361160e+02
   8.6305980e+02   2.6455720e+02
   8.6354190e+02   2.5257040e+02
   8.6402400e+02   2.4377190e+02
   8.6450610e+02   2.3897660e+02
   8.6498820e+02   2.3225750e+02
   8.6547030e+02   2.1455520e+02
   8.6595240e+02   1.9248810e+02
   8.6643450e+02   1.7956870e+02
   8.6691660e+02   1.7698750e+02
   8.6739870e+02   1.7281990e+02
   8.6788090e+02   1.5792840e+02
   8.6836300e+02   1.4155750e+02
   8.6884510e+02   1.3009830e+02
   8.6932720e+02   1.2404870e+02
   8.6980930e+02   1.1758970e+02
   8.7029140e+02   1.1071940e+02
   8.7077360e+02   1.0368860e+02
   8.7125570e+02   9.5847230e+01
   8.7173780e+02   8.7968320e+01
   8.7221990e+02   8.4684270e+01
   8.7270200e+02   8.5332430e+01
   8.7318410e+02   8.4050050e+01
   8.7366630e+02   7.5414280e+01
   8.7414840e+02   6.4656860e+01
   8.7463050e+02   5.4426910e+01
   8.7511260e+02   4.4948970e+01
   8.7559470e+02   3.9087070e+01
   8.7607680e+02   3.9199340e+01
   8.7655900e+02   3.9157530e+01
   8.7704110e+02   3.6403110e+01
   8.7752320e+02   3.1638120e+01
   8.7800530e+02   2.9029330e+01
   8.7848740e+02   2.8352720e+01
   8.7896950e+02   2.6385440e+01
   8.7945170e+02   1.8428440e+01
   8.7993380e+02   1.0477290e+01
   8.8041590e+02   9.1230160e+00
   8.8089800e+02   1.3139560e+01
   8.8138010e+02   1.8109220e+01
   8.8186220e+02   2.7796080e+01
   8.8234440e+02   3.1799710e+01
   8.8282650e+02   2.4811650e+01
   8.8330860e+02   1.1463780e+01
   8.8379070e+02   6.1739200e+00
   8.8427280e+02   9.5064700e+00
   8.8475490e+02   1.2604830e+01
   8.8523710e+02   1.2430850e+01
   8.8571920e+02   1.0942380e+01
   8.8620130e+02   1.1125890e+01
   8.8668340e+02   1.2193940e+01
   8.8716550e+02   1.2508210e+01
   8.8764760e+02   1.2356900e+01
   8.8812980e+02   1.0240230e+01
   8.8861190e+02   2.1808170e+00
   8.8909400e+02   6.6054690e+00
   8.8957610e+02   7.4928890e+00
   8.9005820e+02   2.2829280e+00
   8.9054030e+02   8.3997190e+00
   8.9102250e+02   8.0937500e+00
   8.9150460e+02   5.3515930e+00
   8.9198670e+02   4.7199400e+00
   8.9246880e+02   6.1841430e+00
   8.9295090e+02   1.0389190e+01
   8.9343300e+02   1.8988220e+01
   8.9391520e+02   2.5791440e+01
   8.9439730e+02   2.8826420e+01
   8.9487940e+02   2.7756960e+01
   8.9536150e+02   2.1558200e+01
   8.9584360e+02   5.5172730e+00
   8.9632570e+02   3.5447690e+00
   8.9680790e+02   3.7037050e+00
   8.9729000e+02   1.5781250e+00
   8.9777210e+02   4.2600400e+00
   8.9825420e+02   1.0043610e+01
   8.9873630e+02   1.2835050e+01
   8.9921840e+02   1.1982510e+01
   8.9970060e+02   1.0414860e+01
   9.0018270e+02   1.0410430e+01
   9.0066480e+02   1.0445370e+01
   9.0114690e+02   8.9323120e+00
   9.0162900e+02   5.1575620e+00
   9.0211110e+02   3.4209900e+00
   9.0259330e+02   3.5479430e+00
   9.0307540e+02   6.1868900e+00
   9.0355750e+02   1.2807340e+01
   9.0403960e+02   2.2470430e+01
   9.0452170e+02   3.1282170e+01
   9.0500380e+02   3.8861050e+01
   9.0548600e+02   4.0700990e+01
   9.0596810e+02   2.8622470e+01
   9.0645020e+02   1.3900970e+01
   9.0693230e+02   5.3222350e+00
   9.0741440e+02   2.5529170e+00
   9.0789650e+02   4.8196400e-01
   9.0837870e+02   8.6029001e-02
   9.0886080e+02   2.5993350e+00
   9.0934290e+02   8.9343260e+00
   9.0982500e+02   1.7363620e+01
   9.1030710e+02   2.2875580e+01
   9.1078920e+02   2.5554840e+01
   9.1127140e+02   2.5817750e+01
   9.1175350e+02   2.1450960e+01
   9.1223560e+02   1.7837220e+01
   9.1271770e+02   2.0880770e+01
   9.1319980e+02   2.8266300e+01
   9.1368190e+02   3.5490600e+01
   9.1416410e+02   4.3182310e+01
   9.1464620e+02   4.7718050e+01
   9.1512830e+02   4.5692290e+01
   9.1561040e+02   4.3109990e+01
   9.1609250e+02   5.0667050e+01
   9.1657460e+02   6.7907650e+01
   9.1705680e+02   8.2882720e+01
   9.1753890e+02   9.2823730e+01
   9.1802100e+02   1.0195790e+02
   9.1850310e+02   1.1586360e+02
   9.1898520e+02   1.3090330e+02
   9.1946730e+02   1.4200280e+02
   9.1994950e+02   1.4474160e+02
   9.2043160e+02   1.5271620e+02
   9.2091370e+02   1.7129720e+02
   9.2139580e+02   1.9186930e+02
   9.2187790e+02   2.0694900e+02
   9.2236000e+02   2.1599210e+02
   9.2284220e+02   2.3363150e+02
   9.2332430e+02   2.6047610e+02
   9.2380640e+02   2.8680350e+02
   9.2428850e+02   3.0334950e+02
   9.2477060e+02   3.1561800e+02
   9.2525270e+02   3.3128890e+02
   9.2573490e+02   3.5060100e+02
   9.2621700e+02   3.6472920e+02
   9.2669910e+02   3.5929010e+02
   9.2718120e+02   3.6107820e+02
   9.2766330e+02   3.8240520e+02
   9.2814540e+02   4.1919160e+02
   9.2862760e+02   4.4685360e+02
   9.2910970e+02   4.6545610e+02
   9.2959180e+02   4.8086640e+02
   9.3007390e+02   4.9260080e+02
   9.3055600e+02   5.0609920e+02
   9.3103810e+02   5.3374760e+02
   9.3152030e+02   5.6850510e+02
   9.3200240e+02   5.9304040e+02
   9.3248450e+02   5.9135490e+02
   9.3296660e+02   5.9208090e+02
   9.3344870e+02   6.0344730e+02
   9.3393080e+02   6.1853470e+02
   9.3441300e+02   6.2441250e+02
   9.3489510e+02   6.2104300e+02
   9.3537720e+02   6.1436220e+02
   9.3585930e+02   6.0430030e+02
   9.3634140e+02   5.9571290e+02
   9.3682350e+02   5.9874430e+02
   9.3730570e+02   6.0456970e+02
   9.3778780e+02   5.9984330e+02
   9.3826990e+02   5.7574290e+02
   9.3875200e+02   5.5664670e+02
   9.3923410e+02   5.5301030e+02
   9.3971620e+02   5.4827350e+02
   9.4019840e+02   5.2713700e+02
   9.4068050e+02   4.8862510e+02
   9.4116260e+02   4.6229060e+02
   9.4164470e+02   4.4946530e+02
   9.4212680e+02   4.3581270e+02
   9.4260890e+02   4.0570350e+02
   9.4309110e+02   3.7062080e+02
   9.4357320e+02   3.4182700e+02
   9.4405530e+02   3.2026420e+02
   9.4453740e+02   3.0364200e+02
   9.4501950e+02   2.9667390e+02
   9.4550160e+02   2.8849250e+02
   9.4598380e+02   2.7487640e+02
   9.4646590e+02   2.5706850e+02
   9.4694800e+02   2.4192760e+02
   9.4743010e+02   2.2968430e+02
   9.4791220e+02   2.1812590e+02
   9.4839430e+02   2.0537800e+02
   9.4887640e+02   1.9231230e+02
   9.4935850e+02   1.8038310e+02
   9.4984060e+02   1.6902810e+02
   9.5032280e+02   1.5711400e+02
   9.5080490e+02   1.4375630e+02
   9.5128700e+02   1.3036350e+02
   9.5176910e+02   1.1528270e+02
   9.5225120e+02   1.0216950e+02
   9.5273330e+02   9.9383790e+01
   9.5321550e+02   1.0513930e+02
   9.5369760e+02   1.0192400e+02
   9.5417970e+02   8.5302250e+01
   9.5466180e+02   6.7794860e+01
   9.5514390e+02   6.0217710e+01
   9.5562600e+02   5.6983580e+01
   9.5610820e+02   5.2576660e+01
   9.5659030e+02   4.5989200e+01
   9.5707240e+02   4.0091130e+01
   9.5755450e+02   3.4258790e+01
   9.5803660e+02   3.0421880e+01
   9.5851870e+02   3.1121030e+01
   9.5900090e+02   3.5257810e+01
   9.5948300e+02   3.5955990e+01
   9.5996510e+02   3.3290710e+01
   9.6044720e+02   2.9185910e+01
   9.6092930e+02   2.2828490e+01
   9.6141140e+02   1.6856930e+01
   9.6189360e+02   1.3769170e+01
   9.6237570e+02   1.2861020e+01
   9.6285780e+02   1.0190800e+01
   9.6333990e+02   5.1013790e+00
   9.6382200e+02   1.4301760e+00
   9.6430410e+02   1.8701200e-01
   9.6478630e+02   9.2407003e-02
   9.6526840e+02   1.0352170e+00
   9.6575050e+02   2.9016720e+00
   9.6623260e+02   4.8667600e+00
   9.6671470e+02   8.0616460e+00
   9.6719680e+02   8.0422970e+00
   9.6767900e+02   5.0842300e-01
   9.6816110e+02   1.2137450e+01
   9.6864320e+02   2.0973690e+01
   9.6912530e+02   2.7039060e+01
   9.6960740e+02   2.9301390e+01
   9.7008950e+02   2.6685120e+01
   9.7057170e+02   2.4175420e+01
   9.7105380e+02   2.6551330e+01
   9.7153590e+02   3.2266110e+01
   9.7201800e+02   3.8395450e+01
   9.7250010e+02   4.4783260e+01
   9.7298220e+02   5.1259090e+01
   9.7346440e+02   5.5967350e+01
   9.7394650e+02   6.2573970e+01
   9.7442860e+02   7.3110110e+01
   9.7491070e+02   8.7018070e+01
   9.7539280e+02   1.0269710e+02
   9.7587490e+02   1.2070430e+02
   9.7635710e+02   1.3502140e+02
   9.7683920e+02   1.4108230e+02
   9.7732130e+02   1.4578600e+02
   9.7780340e+02   1.5954500e+02
   9.7828550e+02   1.7957860e+02
   9.7876760e+02   2.0072450e+02
   9.7924980e+02   2.1845000e+02
   9.7973190e+02   2.4043270e+02
   9.8021400e+02   2.7061330e+02
   9.8069610e+02   3.0292460e+02
   9.8117820e+02   3.2934760e+02
   9.8166030e+02   3.4996730e+02
   9.8214250e+02   3.7744370e+02
   9.8262460e+02   4.1326800e+02
   9.8310670e+02   4.5208230e+02
   9.8358880e+02   4.8894680e+02
   9.8407090e+02   5.2703460e+02
   9.8455300e+02   5.6900080e+02
   9.8503520e+02   6.1509940e+02
   9.8551730e+02   6.6704610e+02
   9.8599940e+02   7.2808640e+02
   9.8648150e+02   7.8920170e+02
   9.8696360e+02   8.4315760e+02
   9.8744570e+02   8.9548070e+02
   9.8792790e+02   9.6544350e+02
   9.8841000e+02   1.0518560e+03
   9.8889210e+02   1.1477260e+03
   9.8937420e+02   1.2476660e+03
   9.8985630e+02   1.3589120e+03
   9.9033840e+02   1.4855020e+03
   9.9082060e+02   1.6258950e+03
   9.9130270e+02   1.7772420e+03
   9.9178480e+02   1.9359970e+03
   9.9226690e+02   2.1074110e+03
   9.9274900e+02   2.2911310e+03
   9.9323110e+02   2.4890790e+03
   9.9371330e+02   2.7080770e+03
   9.9419540e+02   2.9407350e+03
   9.9467750e+02   3.1771580e+03
   9.9515960e+02   3.4150400e+03
   9.9564170e+02   3.6727950e+03
   9.9612380e+02   3.9653620e+03
   9.9660600e+02   4.2723840e+03
   9.9708810e+02   4.5816260e+03
   9.9757020e+02   4.8924160e+03
   9.9805230e+02   5.2195730e+03
   9.9853440e+02   5.5665360e+03
   9.9901650e+02   5.9196990e+03
   9.9949870e+02   6.2667530e+03
   9.9998080e+02   6.6286670e+03
   1.0004630e+03   7.0437190e+03
   1.0009450e+03   7.4953790e+03
   1.0014270e+03   7.9277320e+03
   1.0019090e+03   8.2974100e+03
   1.0023910e+03   8.6952390e+03
   1.0028730e+03   9.1335330e+03
   1.0033560e+03   9.5985810e+03
   1.0038380e+03   1.0075700e+04
   1.0043200e+03   1.0565250e+04
   1.0048020e+03   1.1033960e+04
   1.0052840e+03   1.1481220e+04
   1.0057660e+03   1.1873430e+04
   1.0062480e+03   1.2215780e+04
   1.0067300e+03   1.2468080e+04
   1.0072130e+03   1.2592930e+04
   1.0076950e+03   1.2579170e+04
   1.0081770e+03   1.2449820e+04
   1.0086590e+03   1.2201660e+04
   1.0091410e+03   1.1846400e+04
   1.0096230e+03   1.1374210e+04
   1.0101050e+03   1.0811340e+04
   1.0105870e+03   1.0183530e+04
   1.0110690e+03   9.5104490e+03
   1.0115520e+03   8.8513600e+03
   1.0120340e+03   8.2078340e+03
   1.0125160e+03   7.6003160e+03
   1.0129980e+03   7.0378890e+03
   1.0134800e+03   6.5226780e+03
   1.0139620e+03   6.0651650e+03
   1.0144440e+03   5.6655470e+03
   1.0149260e+03   5.2998180e+03
   1.0154090e+03   4.9657810e+03
   1.0158910e+03   4.6656670e+03
   1.0163730e+03   4.4117830e+03
   1.0168550e+03   4.1919830e+03
   1.0173370e+03   3.9916410e+03
   1.0178190e+03   3.8106970e+03
   1.0183010e+03   3.6505600e+03
   1.0187830e+03   3.5244750e+03
   1.0192650e+03   3.3988650e+03
   1.0197480e+03   3.2563710e+03
   1.0202300e+03   3.1094490e+03
   1.0207120e+03   3.0011570e+03
   1.0211940e+03   2.9257000e+03
   1.0216760e+03   2.8489830e+03
   1.0221580e+03   2.7522540e+03
   1.0226400e+03   2.6587540e+03
   1.0231220e+03   2.5899530e+03
   1.0236040e+03   2.5309780e+03
   1.0240870e+03   2.4610110e+03
   1.0245690e+03   2.3716870e+03
   1.0250510e+03   2.2909390e+03
   1.0255330e+03   2.2193370e+03
   1.0260150e+03   2.1552090e+03
   1.0264970e+03   2.0976630e+03
   1.0269790e+03   2.0461110e+03
   1.0274610e+03   2.0052990e+03
   1.0279430e+03   1.9732310e+03
   1.0284260e+03   1.9314150e+03
   1.0289080e+03   1.8613740e+03
   1.0293900e+03   1.7929910e+03
   1.0298720e+03   1.7358910e+03
   1.0303540e+03   1.6878740e+03
   1.0308360e+03   1.6404890e+03
   1.0313180e+03   1.5936060e+03
   1.0318000e+03   1.5490680e+03
   1.0322830e+03   1.5087850e+03
   1.0327650e+03   1.4677920e+03
   1.0332470e+03   1.4169120e+03
   1.0337290e+03   1.3649180e+03
   1.0342110e+03   1.3224850e+03
   1.0346930e+03   1.2979380e+03
   1.0351750e+03   1.2656070e+03
   1.0356570e+03   1.2218190e+03
   1.0361400e+03   1.1791540e+03
   1.0366220e+03   1.1492600e+03
   1.0371040e+03   1.1263440e+03
   1.0375860e+03   1.0936920e+03
   1.0380680e+03   1.0527740e+03
   1.0385500e+03   1.0116020e+03
   1.0390320e+03   9.7508690e+02
   1.0395140e+03   9.3856680e+02
   1.0399960e+03   9.0145970e+02
   1.0404790e+03   8.6327430e+02
   1.0409610e+03   8.2300070e+02
   1.0414430e+03   7.8027190e+02
   1.0419250e+03   7.3724110e+02
   1.0424070e+03   6.9445090e+02
   1.0428890e+03   6.5320360e+02
   1.0433710e+03   6.1464900e+02
   1.0438530e+03   5.7941580e+02
   1.0443350e+03   5.4821490e+02
   1.0448180e+03   5.2162890e+02
   1.0453000e+03   4.9781430e+02
   1.0457820e+03   4.7855210e+02
   1.0462640e+03   4.5809450e+02
   1.0467460e+03   4.3221030e+02
   1.0472280e+03   4.0352520e+02
   1.0477100e+03   3.7988170e+02
   1.0481920e+03   3.6040720e+02
   1.0486750e+03   3.4204590e+02
   1.0491570e+03   3.2485740e+02
   1.0496390e+03   3.0711310e+02
   1.0501210e+03   2.8731330e+02
   1.0506030e+03   2.6756350e+02
   1.0510850e+03   2.4992630e+02
   1.0515670e+03   2.3431290e+02
   1.0520490e+03   2.2440230e+02
   1.0525310e+03   2.2087100e+02
   1.0530140e+03   2.1781740e+02
   1.0534960e+03   2.1125520e+02
   1.0539780e+03   2.0181450e+02
   1.0544600e+03   1.8926610e+02
   1.0549420e+03   1.7396810e+02
   1.0554240e+03   1.5930170e+02
   1.0559060e+03   1.4393440e+02
   1.0563880e+03   1.3281450e+02
   1.0568700e+03   1.2854820e+02
   1.0573530e+03   1.2756290e+02
   1.0578350e+03   1.2267960e+02
   1.0583170e+03   1.1538390e+02
   1.0587990e+03   1.0962950e+02
   1.0592810e+03   1.0791630e+02
   1.0597630e+03   1.0333760e+02
   1.0602450e+03   8.8903200e+01
   1.0607270e+03   7.4349430e+01
   1.0612100e+03   6.7043700e+01
   1.0616920e+03   6.7046390e+01
   1.0621740e+03   6.6698330e+01
   1.0626560e+03   6.5933960e+01
   1.0631380e+03   6.1061860e+01
   1.0636200e+03   4.3883420e+01
   1.0641020e+03   2.6724950e+01
   1.0645840e+03   2.1535370e+01
   1.0650670e+03   2.4596770e+01
   1.0655490e+03   2.6766720e+01
   1.0660310e+03   2.7811280e+01
   1.0665130e+03   2.6789030e+01
   1.0669950e+03   2.3190280e+01
   1.0674770e+03   1.8692990e+01
   1.0679590e+03   1.4852420e+01
   1.0684410e+03   1.1793820e+01
   1.0689230e+03   1.0295070e+01
   1.0694060e+03   1.0448670e+01
   1.0698880e+03   9.6125790e+00
   1.0703700e+03   6.6240230e+00
   1.0708520e+03   2.4041440e+00
   1.0713340e+03   3.6455990e+00
   1.0718160e+03   1.0308200e+01
   1.0722980e+03   1.2115260e+01
   1.0727800e+03   9.7907710e+00
   1.0732620e+03   5.8237000e+00
   1.0737450e+03   1.1024780e+00
   1.0742270e+03   5.0204160e+00
   1.0747090e+03   1.5001830e+00
   1.0751910e+03   1.1569210e+01
   1.0756730e+03   1.7348360e+01
   1.0761550e+03   1.8202240e+01
   1.0766370e+03   1.5398100e+01
   1.0771190e+03   7.9720150e+00
   1.0776010e+03   2.7516780e+00
   1.0780840e+03   6.9475400e+00
   1.0785660e+03   1.4724670e+01
   1.0790480e+03   1.7544190e+01
   1.0795300e+03   1.6488650e+01
   1.0800120e+03   1.6140110e+01
   1.0804940e+03   2.0628330e+01
   1.0809760e+03   2.2181460e+01
   1.0814580e+03   1.8926150e+01
   1.0819410e+03   1.4219090e+01
   1.0824230e+03   1.3735020e+01
   1.0829050e+03   1.5619630e+01
   1.0833870e+03   1.3011960e+01
   1.0838690e+03   4.8736570e+00
   1.0843510e+03   2.8351750e+00
   1.0848330e+03   8.8026730e+00
   1.0853150e+03   1.1218080e+01
   1.0857970e+03   7.2198490e+00
   1.0862800e+03   1.0820310e+00
   1.0867620e+03   1.1447450e+00
   1.0872440e+03   6.7621460e+00
   1.0877260e+03   1.2202300e+01
   1.0882080e+03   1.1269410e+01
   1.0886900e+03   7.4061580e+00
   1.0891720e+03   1.8428040e+00
   1.0896540e+03   4.0714720e+00
   1.0901360e+03   8.4962160e+00
   1.0906190e+03   1.2410280e+01
   1.0911010e+03   9.6735230e+00
   1.0915830e+03   1.6879270e+00
   1.0920650e+03   1.2717830e+01
   1.0925470e+03   1.6972810e+01
   1.0930290e+03   1.7005250e+01
   1.0935110e+03   1.7166690e+01
   1.0939930e+03   1.6813660e+01
   1.0944760e+03   1.4853030e+01
   1.0949580e+03   6.1012570e+00
   1.0954400e+03   3.1343080e+00
   1.0959220e+03   1.1211790e+01
   1.0964040e+03   2.1059450e+01
   1.0968860e+03   1.8275390e+01
   1.0973680e+03   6.3371890e+00
   1.0978500e+03   1.7931820e+00
   1.0983330e+03   6.0293880e+00
   1.0988150e+03   1.2567840e+01
   1.0992970e+03   2.0738770e+01
   1.0997790e+03   2.6772830e+01
   1.1002610e+03   2.8992520e+01
   1.1007430e+03   2.7411220e+01
   1.1012250e+03   1.8917630e+01
   1.1017070e+03   3.2546690e+00
   1.1021890e+03   3.0922850e+00
   1.1026720e+03   6.7321170e+00
   1.1031540e+03   1.9670590e+01
   1.1036360e+03   2.4778320e+01
   1.1041180e+03   2.4750180e+01
   1.1046000e+03   2.1195130e+01
   1.1050820e+03   1.2796720e+01
   1.1055640e+03   1.0489070e+01
   1.1060460e+03   1.6082180e+01
   1.1065280e+03   2.0723970e+01
   1.1070110e+03   1.8028170e+01
   1.1074930e+03   1.2853420e+01
   1.1079750e+03   1.4890260e+01
   1.1084570e+03   2.1197940e+01
   1.1089390e+03   2.4910710e+01
   1.1094210e+03   2.1591060e+01
   1.1099030e+03   1.8736630e+01
   1.1103850e+03   1.6616700e+01
   1.1108680e+03   1.5626190e+01
   1.1113500e+03   1.7329590e+01
   1.1118320e+03   2.0479710e+01
   1.1123140e+03   1.8993130e+01
   1.1127960e+03   1.3359100e+01
   1.1132780e+03   9.4891360e+00
   1.1137600e+03   1.1763700e+01
   1.1142420e+03   1.5225070e+01
   1.1147240e+03   1.8858340e+01
   1.1152070e+03   2.1873750e+01
   1.1156890e+03   2.1670810e+01
   1.1161710e+03   1.8502840e+01
   1.1166530e+03   1.9336180e+01
   1.1171350e+03   2.5786040e+01
   1.1176170e+03   3.1715240e+01
   1.1180990e+03   3.2227050e+01
   1.1185810e+03   3.0148380e+01
   1.1190630e+03   2.6973750e+01
   1.1195460e+03   2.2964450e+01
   1.1200280e+03   1.9877750e+01
   1.1205100e+03   1.7727390e+01
   1.1209920e+03   1.6159850e+01
   1.1214740e+03   1.4547580e+01
   1.1219560e+03   1.4734560e+01
   1.1224380e+03   2.1508390e+01
   1.1229200e+03   3.0275510e+01
   1.1234030e+03   3.4677030e+01
   1.1238850e+03   3.1795620e+01
   1.1243670e+03   2.8921970e+01
   1.1248490e+03   2.5780330e+01
   1.1253310e+03   2.3688080e+01
   1.1258130e+03   2.3683560e+01
   1.1262950e+03   2.5180660e+01
   1.1267770e+03   2.6789700e+01
   1.1272600e+03   2.8756130e+01
   1.1277420e+03   3.1833920e+01
   1.1282240e+03   4.1659610e+01
   1.1287060e+03   4.4097990e+01
   1.1291880e+03   3.2774540e+01
   1.1296700e+03   2.0950930e+01
   1.1301520e+03   2.4367830e+01
   1.1306340e+03   3.9172970e+01
   1.1311160e+03   4.6746950e+01
   1.1315990e+03   4.6924900e+01
   1.1320810e+03   4.5157710e+01
   1.1325630e+03   4.4618680e+01
   1.1330450e+03   4.1940220e+01
   1.1335270e+03   3.4217220e+01
   1.1340090e+03   2.5164950e+01
   1.1344910e+03   2.1965970e+01
   1.1349730e+03   2.4448640e+01
   1.1354550e+03   2.7570530e+01
   1.1359380e+03   3.0434510e+01
   1.1364200e+03   2.9675230e+01
   1.1369020e+03   1.8873900e+01
   1.1373840e+03   7.6239930e+00
   1.1378660e+03   2.5242920e+00
   1.1383480e+03   2.8942570e+00
   1.1388300e+03   7.5076600e+00
   1.1393120e+03   1.7248690e+01
   1.1397950e+03   2.3795930e+01
   1.1402770e+03   2.3599950e+01
   1.1407590e+03   2.1393950e+01
   1.1412410e+03   2.2068050e+01
   1.1417230e+03   2.4686890e+01
   1.1422050e+03   2.8753170e+01
   1.1426870e+03   3.5043060e+01
   1.1431690e+03   3.2896060e+01
   1.1436510e+03   1.9384520e+01
   1.1441340e+03   1.0555450e+01
   1.1446160e+03   1.9490140e+01
   1.1450980e+03   3.3394290e+01
   1.1455800e+03   2.8886020e+01
   1.1460620e+03   1.5191710e+01
   1.1465440e+03   9.6713260e+00
   1.1470260e+03   2.5156620e+01
   1.1475080e+03   3.3261320e+01
   1.1479900e+03   3.2073430e+01
   1.1484730e+03   2.7236240e+01
   1.1489550e+03   2.3268460e+01
   1.1494370e+03   1.9929530e+01
   1.1499190e+03   1.3320920e+01
   1.1504010e+03   4.8514400e+00
   1.1508830e+03   8.2492100e-01
   1.1513650e+03   7.7810360e+00
   1.1518470e+03   1.3739930e+01
   1.1523300e+03   1.6497860e+01
   1.1528120e+03   1.7965670e+01
   1.1532940e+03   2.2130000e+01
   1.1537760e+03   2.7317750e+01
   1.1542580e+03   2.4522030e+01
   1.1547400e+03   1.3868380e+01
   1.1552220e+03   5.8954470e+00
   1.1557040e+03   6.3008730e+00
   1.1561860e+03   1.0548310e+01
   1.1566690e+03   1.8410100e+01
   1.1571510e+03   2.6939540e+01
   1.1576330e+03   3.0020140e+01
   1.1581150e+03   2.8322970e+01
   1.1585970e+03   2.5785680e+01
   1.1590790e+03   2.3024440e+01
   1.1595610e+03   1.9870910e+01
   1.1600430e+03   1.5329560e+01
   1.1605260e+03   1.2401550e+01
   1.1610080e+03   1.1543300e+01
   1.1614900e+03   1.2708770e+01
   1.1619720e+03   1.8219330e+01
   1.1624540e+03   2.7722110e+01
   1.1629360e+03   3.5467900e+01
   1.1634180e+03   3.9939390e+01
   1.1639000e+03   4.2014400e+01
   1.1643820e+03   4.1010070e+01
   1.1648650e+03   3.8229100e+01
   1.1653470e+03   3.5073700e+01
   1.1658290e+03   3.1813420e+01
   1.1663110e+03   2.7545560e+01
   1.1667930e+03   2.2126590e+01
   1.1672750e+03   1.8246250e+01
   1.1677570e+03   1.6992160e+01
   1.1682390e+03   1.7823300e+01
   1.1687210e+03   2.2043760e+01
   1.1692040e+03   2.7425050e+01
   1.1696860e+03   3.0662840e+01
   1.1701680e+03   3.1042360e+01
   1.1706500e+03   3.2028380e+01
   1.1711320e+03   3.3951420e+01
   1.1716140e+03   3.4178590e+01
   1.1720960e+03   2.8179720e+01
   1.1725780e+03   2.1933010e+01
   1.1730610e+03   2.3119170e+01
   1.1735430e+03   2.8913450e+01
   1.1740250e+03   3.3230320e+01
   1.1745070e+03   3.6172790e+01
   1.1749890e+03   3.5489380e+01
   1.1754710e+03   3.0200290e+01
   1.1759530e+03   2.4993960e+01
   1.1764350e+03   2.4712190e+01
   1.1769170e+03   2.6358490e+01
   1.1774000e+03   2.6847440e+01
   1.1778820e+03   2.5876710e+01
   1.1783640e+03   2.2527860e+01
   1.1788460e+03   1.3415530e+01
   1.1793280e+03   7.7844850e+00
   1.1798100e+03   7.0388180e+00
   1.1802920e+03   9.7777400e+00
   1.1807740e+03   1.6418640e+01
   1.1812560e+03   2.3959690e+01
   1.1817390e+03   2.8194270e+01
   1.1822210e+03   2.8742980e+01
   1.1827030e+03   2.5967620e+01
   1.1831850e+03   1.6874880e+01
   1.1836670e+03   1.1007780e+01
   1.1841490e+03   1.1166990e+01
   1.1846310e+03   1.3698430e+01
   1.1851130e+03   1.4453980e+01
   1.1855960e+03   1.3072750e+01
   1.1860780e+03   7.0520020e+00
   1.1865600e+03   4.4911800e+00
   1.1870420e+03   9.4719240e+00
   1.1875240e+03   1.8226620e+00
   1.1880060e+03   6.4822690e+00
   1.1884880e+03   1.2106320e+01
   1.1889700e+03   1.5542630e+01
   1.1894530e+03   1.7565920e+01
   1.1899350e+03   1.8501040e+01
   1.1904170e+03   1.8771300e+01
   1.1908990e+03   1.8187440e+01
   1.1913810e+03   1.8403810e+01
   1.1918630e+03   2.0537380e+01
   1.1923450e+03   2.2080320e+01
   1.1928270e+03   2.1605290e+01
   1.1933090e+03   2.0187380e+01
   1.1937920e+03   2.1812350e+01
   1.1942740e+03   2.4822660e+01
   1.1947560e+03   2.4604680e+01
   1.1952380e+03   1.8093600e+01
   1.1957200e+03   1.2327330e+01
   1.1962020e+03   9.6042480e+00
   1.1966840e+03   7.5708920e+00
   1.1971660e+03   3.5684200e+00
   1.1976480e+03   5.4626500e-01
   1.1981310e+03   5.0700070e+00
   1.1986130e+03   1.6796660e+01
   1.1990950e+03   2.2821410e+01
   1.1995770e+03   1.2655640e+01
   1.2000590e+03   6.0351260e+00
   1.2005410e+03   8.8293760e+00
   1.2010230e+03   1.4116640e+01
   1.2015050e+03   1.7527100e+01
   1.2019880e+03   1.8918820e+01
   1.2024700e+03   1.7882540e+01
   1.2029520e+03   1.4671970e+01
   1.2034340e+03   1.0837460e+01
   1.2039160e+03   4.2460940e+00
   1.2043980e+03   1.0356140e+00
   1.2048800e+03   4.4155270e+00
   1.2053620e+03   9.3718870e+00
   1.2058440e+03   1.0391910e+01
   1.2063270e+03   8.8500060e+00
   1.2068090e+03   1.2051030e+01
   1.2072910e+03   1.9319610e+01
   1.2077730e+03   2.4978150e+01
   1.2082550e+03   2.6233640e+01
   1.2087370e+03   2.5175450e+01
   1.2092190e+03   2.2111020e+01
   1.2097010e+03   1.8166660e+01
   1.2101830e+03   1.3556030e+01
   1.2106660e+03   9.2358700e+00
   1.2111480e+03   1.1574310e+01
   1.2116300e+03   2.0033510e+01
   1.2121120e+03   2.4943180e+01
   1.2125940e+03   1.7593170e+01
   1.2130760e+03   1.0779940e+01
   1.2135580e+03   8.5068970e+00
   1.2140400e+03   8.7965090e+00
   1.2145230e+03   8.4814760e+00
   1.2150050e+03   8.0109860e+00
   1.2154870e+03   1.0140870e+01
   1.2159690e+03   1.4995610e+01
   1.2164510e+03   1.7559630e+01
   1.2169330e+03   1.3585360e+01
   1.2174150e+03   8.8916930e+00
   1.2178970e+03   4.5973510e+00
   1.2183800e+03   1.6305850e+00
   1.2188620e+03   2.5335080e+00
   1.2193440e+03   6.7701110e+00
   1.2198260e+03   1.1238830e+01
   1.2203080e+03   1.5599030e+01
   1.2207900e+03   1.6421940e+01
   1.2212720e+03   3.5943600e+00
   1.2217540e+03   1.8391420e+00
   1.2222360e+03   1.1295650e+01
   1.2227190e+03   3.1951690e+01
   1.2232010e+03   3.4717380e+01
   1.2236830e+03   2.4489990e+01
   1.2241650e+03   1.5292690e+01
   1.2246470e+03   9.4528500e+00
   1.2251290e+03   7.7654110e+00
   1.2256110e+03   1.5158290e+01
   1.2260930e+03   2.1562260e+01
   1.2265750e+03   2.4078250e+01
   1.2270580e+03   2.2776060e+01
   1.2275400e+03   1.4822880e+01
   1.2280220e+03   3.4744570e+00
   1.2285040e+03   2.1542970e+00
   1.2289860e+03   6.2072800e-01
   1.2294680e+03   6.4436340e+00
   1.2299500e+03   1.7741700e+01
   1.2304320e+03   2.6111330e+01
   1.2309150e+03   2.7533020e+01
   1.2313970e+03   2.4477330e+01
   1.2318790e+03   2.2041500e+01
   1.2323610e+03   2.0392730e+01
   1.2328430e+03   2.0373290e+01
   1.2333250e+03   2.3379150e+01
   1.2338070e+03   2.2807100e+01
   1.2342890e+03   1.6023770e+01
   1.2347710e+03   8.1554870e+00
   1.2352540e+03   2.3825100e-01
   1.2357360e+03   6.6603700e+00
   1.2362180e+03   1.9162600e+00
   1.2367000e+03   9.3944700e+00
   1.2371820e+03   1.6250400e+01
   1.2376640e+03   1.7128880e+01
   1.2381460e+03   1.7252930e+01
   1.2386280e+03   1.6407140e+01
   1.2391100e+03   1.6266360e+01
   1.2395930e+03   1.8413090e+01
   1.2400750e+03   2.1364930e+01
   1.2405570e+03   2.0677760e+01
   1.2410390e+03   1.8423650e+01
   1.2415210e+03   1.9171330e+01
   1.2420030e+03   2.8332950e+01
   1.2424850e+03   2.9588840e+01
   1.2429670e+03   1.9631930e+01
   1.2434490e+03   1.0638180e+01
   1.2439320e+03   1.1218570e+01
   1.2444140e+03   1.6274810e+01
   1.2448960e+03   1.5752590e+01
   1.2453780e+03   1.2133880e+01
   1.2458600e+03   1.0585140e+01
   1.2463420e+03   1.5352480e+01
   1.2468240e+03   1.6881410e+01
   1.2473060e+03   1.4515660e+01
   1.2477890e+03   1.1526280e+01
   1.2482710e+03   9.4764100e+00
   1.2487530e+03   8.3809200e+00
   1.2492350e+03   8.2538450e+00
   1.2497170e+03   9.4968260e+00
   1.2501990e+03   1.2566960e+01
   1.2506810e+03   2.0451050e+01
   1.2511630e+03   2.2004300e+01
   1.2516460e+03   1.6328860e+01
   1.2521280e+03   1.0409580e+01
   1.2526100e+03   7.3543090e+00
   1.2530920e+03   7.6483460e+00
   1.2535740e+03   1.6471680e+01
   1.2540560e+03   2.7965030e+01
   1.2545380e+03   2.8941500e+01
   1.2550200e+03   1.5349150e+01
   1.2555020e+03   1.2288820e+01
   1.2559840e+03   2.0907620e+01
   1.2564670e+03   2.8634340e+01
   1.2569490e+03   2.4510990e+01
   1.2574310e+03   1.7762510e+01
   1.2579130e+03   1.5574040e+01
   1.2583950e+03   1.6512700e+01
   1.2588770e+03   1.6389980e+01
   1.2593590e+03   1.4451970e+01
   1.2598410e+03   1.4079620e+01
   1.2603240e+03   1.5376370e+01
   1.2608060e+03   1.5951420e+01
   1.2612880e+03   1.1500060e+01
   1.2617700e+03   7.2507320e+00
   1.2622520e+03   1.0866030e+01
   1.2627340e+03   1.7480320e+01
   1.2632160e+03   2.2440030e+01
   1.2636980e+03   2.5765840e+01
   1.2641810e+03   2.6012730e+01
   1.2646630e+03   2.3355440e+01
   1.2651450e+03   2.0995240e+01
   1.2656270e+03   1.9827420e+01
   1.2661090e+03   2.0694580e+01
   1.2665910e+03   2.6560940e+01
   1.2670730e+03   3.2117680e+01
   1.2675550e+03   2.9120880e+01
   1.2680370e+03   1.9169680e+01
   1.2685200e+03   1.5093290e+01
   1.2690020e+03   1.6766820e+01
   1.2694840e+03   1.7485990e+01
   1.2699660e+03   1.0539980e+01
   1.2704480e+03   6.5343630e+00
   1.2709300e+03   9.2319640e+00
   1.2714120e+03   1.3871490e+01
   1.2718940e+03   1.4947720e+01
   1.2723760e+03   1.3860780e+01
   1.2728590e+03   1.6298370e+01
   1.2733410e+03   2.1590060e+01
   1.2738230e+03   2.4691800e+01
   1.2743050e+03   2.1493070e+01
   1.2747870e+03   1.9349910e+01
   1.2752690e+03   2.0768220e+01
   1.2757510e+03   2.0801820e+01
   1.2762330e+03   9.3083800e+00
   1.2767160e+03   4.8117680e+00
   1.2771980e+03   1.5220340e+00
   1.2776800e+03   1.5606570e+01
   1.2781620e+03   2.6993770e+01
   1.2786440e+03   2.6424320e+01
   1.2791260e+03   2.3314090e+01
   1.2796080e+03   1.8517970e+01
   1.2800900e+03   1.4128540e+01
   1.2805730e+03   1.2084380e+01
   1.2810550e+03   1.2136660e+01
   1.2815370e+03   1.5026580e+01
   1.2820190e+03   1.4183590e+01
   1.2825010e+03   1.3228550e+01
   1.2829830e+03   1.2781070e+01
   1.2834650e+03   1.3175900e+01
   1.2839470e+03   1.4610050e+01
   1.2844290e+03   1.4068450e+01
   1.2849110e+03   8.9806210e+00
   1.2853940e+03   3.1321410e+00
   1.2858760e+03   2.2476200e-01
   1.2863580e+03   2.7008001e-02
   1.2868400e+03   0.0000000e+00
   1.5000000e+03   0.0000000e+00
