   1.0000000e+02   0.0000000e+00
   1.2060060e+02   0.0000000e+00
   1.2108270e+02   2.9699700e-01
   1.2156480e+02   5.5318600e+01
   1.2204690e+02   1.2050260e+02
   1.2252900e+02   1.6856950e+02
   1.2301110e+02   2.0827760e+02
   1.2349330e+02   2.5315480e+02
   1.2397540e+02   3.0822280e+02
   1.2445750e+02   3.6884580e+02
   1.2493960e+02   4.3311440e+02
   1.2542170e+02   4.9969320e+02
   1.2590380e+02   5.5987450e+02
   1.2638600e+02   5.8869680e+02
   1.2686810e+02   5.7729790e+02
   1.2735020e+02   5.5432920e+02
   1.2783230e+02   5.5216190e+02
   1.2831440e+02   5.5860360e+02
   1.2879650e+02   5.4369260e+02
   1.2927870e+02   5.0315990e+02
   1.2976080e+02   4.5456850e+02
   1.3024290e+02   4.2179540e+02
   1.3072500e+02   4.0279570e+02
   1.3120710e+02   3.8071130e+02
   1.3168920e+02   3.4073990e+02
   1.3217140e+02   2.8619270e+02
   1.3265350e+02   2.4062560e+02
   1.3313560e+02   2.0607760e+02
   1.3361770e+02   1.8243030e+02
   1.3409980e+02   1.7556020e+02
   1.3458190e+02   1.9025020e+02
   1.3506400e+02   2.0195010e+02
   1.3554620e+02   2.0792930e+02
   1.3602830e+02   2.0106490e+02
   1.3651040e+02   1.8503690e+02
   1.3699250e+02   1.8379210e+02
   1.3747460e+02   1.9499830e+02
   1.3795670e+02   1.9111010e+02
   1.3843890e+02   1.6928500e+02
   1.3892100e+02   1.4074270e+02
   1.3940310e+02   1.1843490e+02
   1.3988520e+02   1.0353120e+02
   1.4036730e+02   9.0417600e+01
   1.4084940e+02   7.6756100e+01
   1.4133160e+02   6.1470950e+01
   1.4181370e+02   5.3297490e+01
   1.4229580e+02   5.5879640e+01
   1.4277790e+02   6.3047360e+01
   1.4326000e+02   6.2876830e+01
   1.4374210e+02   5.1549800e+01
   1.4422430e+02   3.9665650e+01
   1.4470640e+02   3.1769530e+01
   1.4518850e+02   3.1536380e+01
   1.4567060e+02   2.8364010e+01
   1.4615270e+02   2.2164670e+01
   1.4663480e+02   1.3093990e+01
   1.4711700e+02   1.1235350e+00
   1.4759910e+02   1.9899170e+01
   1.4808120e+02   3.8633540e+01
   1.4856330e+02   4.8525630e+01
   1.4904540e+02   4.0444090e+01
   1.4952750e+02   3.5096800e+01
   1.5000970e+02   3.9353760e+01
   1.5049180e+02   5.2912960e+01
   1.5097390e+02   5.1730590e+01
   1.5145600e+02   2.3721310e+01
   1.5193810e+02   1.2058110e+01
   1.5242020e+02   4.0207520e+01
   1.5290240e+02   3.8235110e+01
   1.5338450e+02   4.9103030e+01
   1.5386660e+02   8.6888310e+01
   1.5434870e+02   1.5786680e+02
   1.5483080e+02   2.2273060e+02
   1.5531290e+02   2.7555830e+02
   1.5579500e+02   3.2382560e+02
   1.5627720e+02   3.8002150e+02
   1.5675930e+02   4.5801810e+02
   1.5724140e+02   5.3844970e+02
   1.5772350e+02   6.1793850e+02
   1.5820560e+02   6.9516720e+02
   1.5868770e+02   7.7461600e+02
   1.5916990e+02   8.6077470e+02
   1.5965200e+02   9.4963370e+02
   1.6013410e+02   1.0325110e+03
   1.6061620e+02   1.0979380e+03
   1.6109830e+02   1.1622110e+03
   1.6158040e+02   1.2362340e+03
   1.6206260e+02   1.3288840e+03
   1.6254470e+02   1.4208600e+03
   1.6302680e+02   1.5049120e+03
   1.6350890e+02   1.5819810e+03
   1.6399100e+02   1.6556780e+03
   1.6447310e+02   1.7385290e+03
   1.6495530e+02   1.8142610e+03
   1.6543740e+02   1.8683190e+03
   1.6591950e+02   1.8936180e+03
   1.6640160e+02   1.8982010e+03
   1.6688370e+02   1.8831390e+03
   1.6736580e+02   1.8491350e+03
   1.6784800e+02   1.8060180e+03
   1.6833010e+02   1.7602520e+03
   1.6881220e+02   1.7087520e+03
   1.6929430e+02   1.6473880e+03
   1.6977640e+02   1.5684640e+03
   1.7025850e+02   1.4822920e+03
   1.7074070e+02   1.3975270e+03
   1.7122280e+02   1.3142850e+03
   1.7170490e+02   1.2298760e+03
   1.7218700e+02   1.1439270e+03
   1.7266910e+02   1.0549910e+03
   1.7315120e+02   9.6150980e+02
   1.7363340e+02   8.5655000e+02
   1.7411550e+02   7.4784280e+02
   1.7459760e+02   6.4514390e+02
   1.7507970e+02   5.4953030e+02
   1.7556180e+02   4.6053910e+02
   1.7604390e+02   3.7749540e+02
   1.7652600e+02   3.0055440e+02
   1.7700820e+02   2.3188370e+02
   1.7749030e+02   1.7161980e+02
   1.7797240e+02   1.1961550e+02
   1.7845450e+02   7.5586910e+01
   1.7893660e+02   4.1135740e+01
   1.7941870e+02   1.5614260e+01
   1.7990090e+02   2.3486300e-01
   1.8038300e+02   5.7116700e+00
   1.8086510e+02   6.6967770e+00
   1.8134720e+02   3.3029790e+00
   1.8182930e+02   2.9306640e+00
   1.8231140e+02   6.6958010e+00
   1.8279360e+02   4.0400390e+00
   1.8327570e+02   1.0744630e+00
   1.8375780e+02   1.0604250e+01
   1.8423990e+02   3.2429200e+01
   1.8472200e+02   5.7608150e+01
   1.8520410e+02   8.2343510e+01
   1.8568630e+02   1.0512130e+02
   1.8616840e+02   1.1730220e+02
   1.8665050e+02   1.1466770e+02
   1.8713260e+02   1.0009180e+02
   1.8761470e+02   8.2090090e+01
   1.8809680e+02   6.0740480e+01
   1.8857900e+02   3.3972410e+01
   1.8906110e+02   9.3781740e+00
   1.8954320e+02   6.6671140e+01
   1.9002530e+02   1.0720700e+02
   1.9050740e+02   1.1404050e+02
   1.9098950e+02   9.3299800e+01
   1.9147170e+02   7.7613770e+01
   1.9195380e+02   6.8001220e+01
   1.9243590e+02   5.9146730e+01
   1.9291800e+02   4.5638430e+01
   1.9340010e+02   2.7328610e+01
   1.9388220e+02   9.7314500e-01
   1.9436440e+02   3.9705570e+01
   1.9484650e+02   9.3579350e+01
   1.9532860e+02   1.3705030e+02
   1.9581070e+02   1.6620950e+02
   1.9629280e+02   1.9166670e+02
   1.9677490e+02   2.3477590e+02
   1.9725700e+02   2.9746730e+02
   1.9773920e+02   3.5921260e+02
   1.9822130e+02   4.0815650e+02
   1.9870340e+02   4.4403830e+02
   1.9918550e+02   4.7850880e+02
   1.9966760e+02   5.1410300e+02
   2.0014970e+02   5.4691600e+02
   2.0063190e+02   5.6922020e+02
   2.0111400e+02   5.8160960e+02
   2.0159610e+02   5.8060470e+02
   2.0207820e+02   5.6268330e+02
   2.0256030e+02   5.2687160e+02
   2.0304240e+02   4.8039360e+02
   2.0352460e+02   4.2038110e+02
   2.0400670e+02   3.5191820e+02
   2.0448880e+02   2.9409590e+02
   2.0497090e+02   2.4882450e+02
   2.0545300e+02   2.0745510e+02
   2.0593520e+02   1.6259910e+02
   2.0641730e+02   1.1224730e+02
   2.0689940e+02   7.1592530e+01
   2.0738150e+02   4.4083250e+01
   2.0786360e+02   2.7719240e+01
   2.0834570e+02   1.4325200e+01
   2.0882790e+02   3.6096190e+00
   2.0931000e+02   4.1503999e-02
   2.0979210e+02   7.5559080e+00
   2.1027420e+02   2.7075680e+01
   2.1075630e+02   4.7774900e+01
   2.1123840e+02   6.4637450e+01
   2.1172060e+02   7.8792970e+01
   2.1220270e+02   1.0864210e+02
   2.1268480e+02   1.5838400e+02
   2.1316690e+02   2.1765720e+02
   2.1364900e+02   2.7373340e+02
   2.1413110e+02   3.2229420e+02
   2.1461330e+02   3.8082200e+02
   2.1509540e+02   4.5537670e+02
   2.1557750e+02   5.4499660e+02
   2.1605960e+02   6.3802220e+02
   2.1654170e+02   7.3583250e+02
   2.1702380e+02   8.3550680e+02
   2.1750590e+02   9.3462130e+02
   2.1798810e+02   1.0322160e+03
   2.1847020e+02   1.1322280e+03
   2.1895230e+02   1.2386950e+03
   2.1943440e+02   1.3531650e+03
   2.1991650e+02   1.4591150e+03
   2.2039860e+02   1.5540650e+03
   2.2088080e+02   1.6436710e+03
   2.2136290e+02   1.7394860e+03
   2.2184500e+02   1.8492170e+03
   2.2232710e+02   1.9509470e+03
   2.2280920e+02   2.0383660e+03
   2.2329130e+02   2.1088260e+03
   2.2377350e+02   2.1736160e+03
   2.2425560e+02   2.2340800e+03
   2.2473770e+02   2.2879590e+03
   2.2521980e+02   2.3298340e+03
   2.2570190e+02   2.3588620e+03
   2.2618400e+02   2.3776460e+03
   2.2666620e+02   2.3908780e+03
   2.2714830e+02   2.4094560e+03
   2.2763040e+02   2.3886730e+03
   2.2811250e+02   2.3202560e+03
   2.2859460e+02   2.2159590e+03
   2.2907670e+02   2.0986200e+03
   2.2955890e+02   1.9659750e+03
   2.3004100e+02   1.8256540e+03
   2.3052310e+02   1.6772960e+03
   2.3100520e+02   1.5121230e+03
   2.3148730e+02   1.3606800e+03
   2.3196940e+02   1.2194460e+03
   2.3245160e+02   1.0911480e+03
   2.3293370e+02   9.8224800e+02
   2.3341580e+02   8.9809350e+02
   2.3389790e+02   8.2577390e+02
   2.3438000e+02   7.5920090e+02
   2.3486210e+02   6.9276780e+02
   2.3534430e+02   6.4475680e+02
   2.3582640e+02   6.1989330e+02
   2.3630850e+02   6.1350200e+02
   2.3679060e+02   6.0975590e+02
   2.3727270e+02   6.0741920e+02
   2.3775480e+02   6.0926100e+02
   2.3823690e+02   6.1802390e+02
   2.3871910e+02   6.4109720e+02
   2.3920120e+02   6.5647140e+02
   2.3968330e+02   6.6256180e+02
   2.4016540e+02   6.5991500e+02
   2.4064750e+02   6.5212940e+02
   2.4112960e+02   6.4386820e+02
   2.4161180e+02   6.2436740e+02
   2.4209390e+02   5.8472610e+02
   2.4257600e+02   5.1032640e+02
   2.4305810e+02   4.4626150e+02
   2.4354020e+02   3.9961040e+02
   2.4402230e+02   3.6700880e+02
   2.4450450e+02   3.2749370e+02
   2.4498660e+02   2.7620410e+02
   2.4546870e+02   2.2424410e+02
   2.4595080e+02   1.7816140e+02
   2.4643290e+02   1.3763990e+02
   2.4691500e+02   1.0333790e+02
   2.4739720e+02   7.2741210e+01
   2.4787930e+02   4.6818360e+01
   2.4836140e+02   3.0437500e+01
   2.4884350e+02   2.7605220e+01
   2.4932560e+02   3.1993160e+01
   2.4980770e+02   3.9217040e+01
   2.5028990e+02   4.9324460e+01
   2.5077200e+02   6.2495610e+01
   2.5125410e+02   8.0283690e+01
   2.5173620e+02   1.0183940e+02
   2.5221830e+02   1.1996310e+02
   2.5270040e+02   1.3382640e+02
   2.5318260e+02   1.4482060e+02
   2.5366470e+02   1.5412500e+02
   2.5414680e+02   1.6280980e+02
   2.5462890e+02   1.6742600e+02
   2.5511100e+02   1.6859890e+02
   2.5559310e+02   1.6576320e+02
   2.5607530e+02   1.5171560e+02
   2.5655740e+02   1.1712500e+02
   2.5703950e+02   8.3828370e+01
   2.5752160e+02   6.9462400e+01
   2.5800370e+02   7.7262210e+01
   2.5848580e+02   9.5851320e+01
   2.5896800e+02   1.2438040e+02
   2.5945010e+02   1.6279350e+02
   2.5993220e+02   2.0562670e+02
   2.6041430e+02   2.4696240e+02
   2.6089640e+02   3.0144190e+02
   2.6137850e+02   3.7959840e+02
   2.6186070e+02   4.8236350e+02
   2.6234280e+02   6.0869120e+02
   2.6282490e+02   7.6355100e+02
   2.6330700e+02   9.4375050e+02
   2.6378910e+02   1.1305280e+03
   2.6427120e+02   1.3192320e+03
   2.6475340e+02   1.5165360e+03
   2.6523550e+02   1.7247860e+03
   2.6571760e+02   1.9472020e+03
   2.6619970e+02   2.1765680e+03
   2.6668180e+02   2.4155130e+03
   2.6716390e+02   2.6623320e+03
   2.6764610e+02   2.9109340e+03
   2.6812820e+02   3.1638530e+03
   2.6861030e+02   3.4126330e+03
   2.6909240e+02   3.6508860e+03
   2.6957450e+02   3.8739210e+03
   2.7005660e+02   4.0989510e+03
   2.7053870e+02   4.3326680e+03
   2.7102080e+02   4.5724890e+03
   2.7150300e+02   4.8133510e+03
   2.7198510e+02   5.0668980e+03
   2.7246720e+02   5.2941920e+03
   2.7294930e+02   5.4680490e+03
   2.7343140e+02   5.5916020e+03
   2.7391350e+02   5.6425160e+03
   2.7439570e+02   5.6155630e+03
   2.7487780e+02   5.5135650e+03
   2.7535990e+02   5.3393170e+03
   2.7584200e+02   5.0878550e+03
   2.7632410e+02   4.7768650e+03
   2.7680620e+02   4.4018060e+03
   2.7728840e+02   3.9534140e+03
   2.7777050e+02   3.5318380e+03
   2.7825260e+02   3.1522860e+03
   2.7873470e+02   2.8139180e+03
   2.7921680e+02   2.5190980e+03
   2.7969890e+02   2.2656250e+03
   2.8018110e+02   2.0478090e+03
   2.8066320e+02   1.8580890e+03
   2.8114530e+02   1.6966840e+03
   2.8162740e+02   1.5626490e+03
   2.8210950e+02   1.4634020e+03
   2.8259160e+02   1.3913320e+03
   2.8307380e+02   1.3132500e+03
   2.8355590e+02   1.2265260e+03
   2.8403800e+02   1.1484860e+03
   2.8452010e+02   1.0984860e+03
   2.8500220e+02   1.0750710e+03
   2.8548430e+02   1.0529300e+03
   2.8596650e+02   1.0229310e+03
   2.8644860e+02   9.9326150e+02
   2.8693070e+02   9.9111840e+02
   2.8741280e+02   1.0182190e+03
   2.8789490e+02   1.0535730e+03
   2.8837700e+02   1.0794570e+03
   2.8885920e+02   1.0976460e+03
   2.8934130e+02   1.1193010e+03
   2.8982340e+02   1.1467610e+03
   2.9030550e+02   1.1791720e+03
   2.9078760e+02   1.2137870e+03
   2.9126970e+02   1.2507600e+03
   2.9175190e+02   1.2916420e+03
   2.9223400e+02   1.3376930e+03
   2.9271610e+02   1.3887000e+03
   2.9319820e+02   1.4444610e+03
   2.9368030e+02   1.5060640e+03
   2.9416240e+02   1.5716780e+03
   2.9464460e+02   1.6442980e+03
   2.9512670e+02   1.7226830e+03
   2.9560880e+02   1.7858730e+03
   2.9609090e+02   1.8132770e+03
   2.9657300e+02   1.8127900e+03
   2.9705510e+02   1.8075720e+03
   2.9753730e+02   1.8046820e+03
   2.9801940e+02   1.7943170e+03
   2.9850150e+02   1.7572060e+03
   2.9898360e+02   1.6968880e+03
   2.9946570e+02   1.6337280e+03
   2.9994780e+02   1.5772040e+03
   3.0043000e+02   1.5291870e+03
   3.0091210e+02   1.4941470e+03
   3.0139420e+02   1.4736790e+03
   3.0187630e+02   1.4656530e+03
   3.0235840e+02   1.4708310e+03
   3.0284050e+02   1.4877300e+03
   3.0332270e+02   1.5101960e+03
   3.0380480e+02   1.5340010e+03
   3.0428690e+02   1.5613510e+03
   3.0476900e+02   1.5973290e+03
   3.0525110e+02   1.6453220e+03
   3.0573320e+02   1.6948560e+03
   3.0621540e+02   1.7349710e+03
   3.0669750e+02   1.7687380e+03
   3.0717960e+02   1.8061710e+03
   3.0766170e+02   1.8560230e+03
   3.0814380e+02   1.9100550e+03
   3.0862590e+02   1.9628230e+03
   3.0910810e+02   2.0148210e+03
   3.0959010e+02   2.0594360e+03
   3.1007230e+02   2.0898330e+03
   3.1055440e+02   2.1095740e+03
   3.1103650e+02   2.1266090e+03
   3.1151860e+02   2.1648120e+03
   3.1200070e+02   2.1894160e+03
   3.1248280e+02   2.1721940e+03
   3.1296500e+02   2.1064250e+03
   3.1344710e+02   2.0167400e+03
   3.1392920e+02   1.9097110e+03
   3.1441130e+02   1.7893660e+03
   3.1489340e+02   1.6619520e+03
   3.1537550e+02   1.5199880e+03
   3.1585770e+02   1.3782280e+03
   3.1633980e+02   1.2440310e+03
   3.1682190e+02   1.1152770e+03
   3.1730400e+02   1.0045430e+03
   3.1778610e+02   9.2055640e+02
   3.1826820e+02   8.5599150e+02
   3.1875040e+02   8.0173490e+02
   3.1923250e+02   7.5477980e+02
   3.1971460e+02   7.1670680e+02
   3.2019670e+02   6.8992850e+02
   3.2067880e+02   6.7512550e+02
   3.2116090e+02   6.6446290e+02
   3.2164310e+02   6.6353100e+02
   3.2212520e+02   6.6300590e+02
   3.2260730e+02   6.5348100e+02
   3.2308940e+02   6.2031270e+02
   3.2357150e+02   5.9086180e+02
   3.2405360e+02   5.7589330e+02
   3.2453580e+02   5.7709160e+02
   3.2501790e+02   5.6846170e+02
   3.2550000e+02   5.4351640e+02
   3.2598210e+02   5.0968360e+02
   3.2646420e+02   4.7257320e+02
   3.2694640e+02   4.3008610e+02
   3.2742850e+02   3.8698550e+02
   3.2791060e+02   3.4240470e+02
   3.2839270e+02   2.9697310e+02
   3.2887480e+02   2.5496250e+02
   3.2935690e+02   2.2159450e+02
   3.2983910e+02   1.8810800e+02
   3.3032120e+02   1.1729230e+02
   3.3080330e+02   1.2356940e+02
   3.3128540e+02   1.1614620e+02
   3.3176750e+02   9.5938660e+01
   3.3224960e+02   1.4521700e+01
   3.3273180e+02   1.9891530e+01
   3.3321390e+02  -4.7755640e+00
   3.3369600e+02  -2.7430680e+01
   3.3417810e+02  -1.6638970e-01
   3.3466020e+02  -5.5269640e+01
   3.3514230e+02  -2.1976790e+01
   3.3562450e+02  -1.9235280e+01
   3.3610660e+02   2.4211320e+00
   3.3658870e+02  -6.1704990e+00
   3.3707080e+02  -9.9139950e-01
   3.3755290e+02   4.1213700e+01
   3.3803500e+02   6.8175090e+01
   3.3851720e+02   6.9250690e+01
   3.3899930e+02   1.1219540e+02
   3.3948140e+02   8.9754390e+01
   3.3996350e+02   1.3104240e+02
   3.4044560e+02   1.9616670e+02
   3.4092770e+02   2.4841920e+02
   3.4140990e+02   2.9918430e+02
   3.4189200e+02   3.5106800e+02
   3.4237410e+02   4.0398110e+02
   3.4285620e+02   4.6029770e+02
   3.4333830e+02   5.2005490e+02
   3.4382040e+02   5.8012670e+02
   3.4430260e+02   6.3874120e+02
   3.4478470e+02   6.9452610e+02
   3.4526680e+02   7.4399280e+02
   3.4574890e+02   7.8662670e+02
   3.4623100e+02   8.2354710e+02
   3.4671310e+02   8.5205520e+02
   3.4719530e+02   8.7189790e+02
   3.4767740e+02   8.8547510e+02
   3.4815950e+02   8.9892360e+02
   3.4864160e+02   9.0925070e+02
   3.4912370e+02   9.0432130e+02
   3.4960580e+02   8.7429960e+02
   3.5008800e+02   8.2993420e+02
   3.5057000e+02   7.8813100e+02
   3.5105220e+02   7.4905660e+02
   3.5153430e+02   7.1003860e+02
   3.5201640e+02   6.6449610e+02
   3.5249850e+02   6.1788120e+02
   3.5298060e+02   5.8145120e+02
   3.5346270e+02   5.6450620e+02
   3.5394490e+02   5.5185450e+02
   3.5442700e+02   5.2526510e+02
   3.5490910e+02   4.8762670e+02
   3.5539120e+02   4.5273300e+02
   3.5587330e+02   4.2815430e+02
   3.5635540e+02   4.1197330e+02
   3.5683760e+02   4.0199280e+02
   3.5731970e+02   3.9849350e+02
   3.5780180e+02   3.9950490e+02
   3.5828390e+02   4.0296350e+02
   3.5876600e+02   4.0980530e+02
   3.5924810e+02   4.2249930e+02
   3.5973030e+02   4.5293310e+02
   3.6021240e+02   4.8233180e+02
   3.6069450e+02   4.9621560e+02
   3.6117660e+02   4.8542660e+02
   3.6165870e+02   4.7989690e+02
   3.6214080e+02   5.0138000e+02
   3.6262300e+02   5.3399070e+02
   3.6310510e+02   5.5223660e+02
   3.6358720e+02   5.3744970e+02
   3.6406930e+02   5.1705930e+02
   3.6455140e+02   5.0156750e+02
   3.6503350e+02   4.9258420e+02
   3.6551570e+02   4.8374330e+02
   3.6599780e+02   4.7953910e+02
   3.6647990e+02   4.7276090e+02
   3.6696200e+02   4.5561400e+02
   3.6744410e+02   4.1811110e+02
   3.6792620e+02   3.7965410e+02
   3.6840840e+02   3.4404590e+02
   3.6889050e+02   3.1120180e+02
   3.6937260e+02   2.7690440e+02
   3.6985470e+02   2.4041280e+02
   3.7033680e+02   2.0330820e+02
   3.7081890e+02   1.6639720e+02
   3.7130110e+02   1.2606380e+02
   3.7178320e+02   9.1928220e+01
   3.7226530e+02   6.4677120e+01
   3.7274740e+02   4.4338500e+01
   3.7322950e+02   3.0119260e+01
   3.7371160e+02   2.3530520e+01
   3.7419380e+02   2.0811520e+01
   3.7467590e+02   1.9823000e+01
   3.7515800e+02   2.0222530e+01
   3.7564010e+02   2.4125240e+01
   3.7612220e+02   3.2009890e+01
   3.7660430e+02   4.3286250e+01
   3.7708650e+02   5.7436160e+01
   3.7756860e+02   7.4679320e+01
   3.7805070e+02   9.3299320e+01
   3.7853280e+02   1.1243920e+02
   3.7901490e+02   1.3218190e+02
   3.7949700e+02   1.5229110e+02
   3.7997920e+02   1.7237210e+02
   3.8046130e+02   1.9351170e+02
   3.8094340e+02   2.1554390e+02
   3.8142550e+02   2.3893150e+02
   3.8190760e+02   2.6645890e+02
   3.8238970e+02   3.0170150e+02
   3.8287190e+02   3.4148820e+02
   3.8335400e+02   3.7533690e+02
   3.8383610e+02   4.0322220e+02
   3.8431820e+02   4.3070390e+02
   3.8480030e+02   4.6837260e+02
   3.8528240e+02   5.0997190e+02
   3.8576460e+02   5.3939580e+02
   3.8624670e+02   5.4811840e+02
   3.8672880e+02   5.4685450e+02
   3.8721090e+02   5.4931130e+02
   3.8769300e+02   5.5422330e+02
   3.8817510e+02   5.5382370e+02
   3.8865730e+02   5.4533330e+02
   3.8913940e+02   5.2794310e+02
   3.8962150e+02   5.0044070e+02
   3.9010360e+02   4.6036010e+02
   3.9058570e+02   4.1034050e+02
   3.9106780e+02   3.4331630e+02
   3.9154990e+02   2.6752190e+02
   3.9203200e+02   2.0085500e+02
   3.9251420e+02   1.4819560e+02
   3.9299630e+02   1.3446380e+02
   3.9347840e+02   1.1734350e+02
   3.9396050e+02   9.7131090e+01
   3.9444260e+02   5.8039020e+01
   3.9492470e+02   4.8324900e+01
   3.9540690e+02   2.9890880e+01
   3.9588900e+02   1.3193570e+01
   3.9637110e+02   1.3852980e+01
   3.9685320e+02  -1.1269070e+01
   3.9733530e+02  -6.4876340e+00
   3.9781740e+02  -1.0591100e+01
   3.9829960e+02  -7.4485840e+00
   3.9878170e+02  -1.3091010e+01
   3.9926380e+02  -1.3164740e+01
   3.9974590e+02  -8.6418852e-02
   4.0022800e+02   9.0985540e+00
   4.0071010e+02   1.0919570e+01
   4.0119230e+02   2.7474950e+01
   4.0167440e+02   2.3785400e+01
   4.0215650e+02   4.1954870e+01
   4.0263860e+02   7.0797140e+01
   4.0312070e+02   8.4076150e+01
   4.0360280e+02   1.1173830e+02
   4.0408500e+02   1.3693850e+02
   4.0456710e+02   1.4320060e+02
   4.0504920e+02   2.1015670e+02
   4.0553130e+02   2.7398340e+02
   4.0601340e+02   3.3215660e+02
   4.0649550e+02   3.8067980e+02
   4.0697770e+02   4.4399190e+02
   4.0745980e+02   5.3329470e+02
   4.0794190e+02   6.4773780e+02
   4.0842400e+02   7.7283450e+02
   4.0890610e+02   9.0829430e+02
   4.0938820e+02   1.0529270e+03
   4.0987040e+02   1.2030250e+03
   4.1035250e+02   1.3603730e+03
   4.1083460e+02   1.5303340e+03
   4.1131670e+02   1.7143850e+03
   4.1179880e+02   1.9154600e+03
   4.1228090e+02   2.1370630e+03
   4.1276310e+02   2.3794370e+03
   4.1324520e+02   2.6282500e+03
   4.1372730e+02   2.8618050e+03
   4.1420940e+02   3.0949200e+03
   4.1469150e+02   3.3529730e+03
   4.1517360e+02   3.6439250e+03
   4.1565580e+02   3.9500910e+03
   4.1613790e+02   4.2416810e+03
   4.1662000e+02   4.5318330e+03
   4.1710210e+02   4.8413900e+03
   4.1758420e+02   5.2042650e+03
   4.1806630e+02   5.5791690e+03
   4.1854850e+02   5.9289980e+03
   4.1903060e+02   6.2492120e+03
   4.1951270e+02   6.5727110e+03
   4.1999480e+02   6.9431210e+03
   4.2047690e+02   7.3172920e+03
   4.2095900e+02   7.6497960e+03
   4.2144120e+02   7.9563830e+03
   4.2192330e+02   8.1956510e+03
   4.2240540e+02   8.3615790e+03
   4.2288750e+02   8.4521240e+03
   4.2336960e+02   8.4662280e+03
   4.2385170e+02   8.3886290e+03
   4.2433390e+02   8.2433690e+03
   4.2481600e+02   8.0428830e+03
   4.2529810e+02   7.7670300e+03
   4.2578020e+02   7.4676880e+03
   4.2626230e+02   7.1284830e+03
   4.2674440e+02   6.7675320e+03
   4.2722660e+02   6.4268960e+03
   4.2770870e+02   6.0892560e+03
   4.2819080e+02   5.7951730e+03
   4.2867290e+02   5.5614280e+03
   4.2915500e+02   5.3943500e+03
   4.2963710e+02   5.2463320e+03
   4.3011930e+02   5.1185760e+03
   4.3060140e+02   5.0095560e+03
   4.3108350e+02   4.9158990e+03
   4.3156560e+02   4.8371620e+03
   4.3204770e+02   4.7838710e+03
   4.3252980e+02   4.7676700e+03
   4.3301190e+02   4.7768680e+03
   4.3349400e+02   4.7727790e+03
   4.3397620e+02   4.7554830e+03
   4.3445830e+02   4.7244300e+03
   4.3494040e+02   4.6670210e+03
   4.3542250e+02   4.5938580e+03
   4.3590460e+02   4.5375180e+03
   4.3638670e+02   4.5030260e+03
   4.3686890e+02   4.4900020e+03
   4.3735100e+02   4.4956520e+03
   4.3783310e+02   4.5219140e+03
   4.3831520e+02   4.5754110e+03
   4.3879730e+02   4.6657450e+03
   4.3927940e+02   4.7818030e+03
   4.3976160e+02   4.9108160e+03
   4.4024370e+02   5.0495540e+03
   4.4072580e+02   5.2129570e+03
   4.4120790e+02   5.4088520e+03
   4.4169000e+02   5.6348000e+03
   4.4217210e+02   5.8878360e+03
   4.4265430e+02   6.1892430e+03
   4.4313640e+02   6.4961030e+03
   4.4361850e+02   6.7886630e+03
   4.4410060e+02   7.0691040e+03
   4.4458270e+02   7.3629020e+03
   4.4506480e+02   7.6865910e+03
   4.4554700e+02   8.0202380e+03
   4.4602910e+02   8.3545020e+03
   4.4651120e+02   8.7104980e+03
   4.4699330e+02   9.0345870e+03
   4.4747540e+02   9.3315650e+03
   4.4795760e+02   9.5957840e+03
   4.4843970e+02   9.8219370e+03
   4.4892180e+02   9.9994190e+03
   4.4940390e+02   1.0152060e+04
   4.4988600e+02   1.0290670e+04
   4.5036810e+02   1.0416080e+04
   4.5085030e+02   1.0492330e+04
   4.5133240e+02   1.0510690e+04
   4.5181450e+02   1.0493830e+04
   4.5229660e+02   1.0466880e+04
   4.5277870e+02   1.0432400e+04
   4.5326080e+02   1.0364360e+04
   4.5374300e+02   1.0265890e+04
   4.5422510e+02   1.0123600e+04
   4.5470720e+02   9.8931250e+03
   4.5518930e+02   9.5731780e+03
   4.5567140e+02   9.2092430e+03
   4.5615350e+02   8.8311390e+03
   4.5663570e+02   8.4343760e+03
   4.5711780e+02   7.9871380e+03
   4.5759990e+02   7.4837820e+03
   4.5808200e+02   6.9643060e+03
   4.5856410e+02   6.4739220e+03
   4.5904620e+02   6.0047430e+03
   4.5952840e+02   5.5476730e+03
   4.6001050e+02   5.0916280e+03
   4.6049260e+02   4.6552890e+03
   4.6097470e+02   4.2632330e+03
   4.6145680e+02   3.9093060e+03
   4.6193890e+02   3.5804440e+03
   4.6242110e+02   3.2670080e+03
   4.6290320e+02   2.9753870e+03
   4.6338530e+02   2.7160190e+03
   4.6386740e+02   2.5031110e+03
   4.6434950e+02   2.3020640e+03
   4.6483160e+02   2.0974700e+03
   4.6531380e+02   1.8989700e+03
   4.6579590e+02   1.7235800e+03
   4.6627800e+02   1.5843030e+03
   4.6676010e+02   1.4613060e+03
   4.6724220e+02   1.3514030e+03
   4.6772430e+02   1.2551460e+03
   4.6820650e+02   1.1611680e+03
   4.6868860e+02   1.0689710e+03
   4.6917070e+02   9.7936180e+02
   4.6965280e+02   8.9166160e+02
   4.7013490e+02   8.0522800e+02
   4.7061700e+02   7.2375050e+02
   4.7109920e+02   6.4700000e+02
   4.7158130e+02   5.7556100e+02
   4.7206340e+02   5.1588530e+02
   4.7254550e+02   4.7033200e+02
   4.7302760e+02   4.2220190e+02
   4.7350970e+02   3.5603250e+02
   4.7399180e+02   2.7460570e+02
   4.7447390e+02   2.1502320e+02
   4.7495610e+02   1.8153590e+02
   4.7543820e+02   1.5958060e+02
   4.7592030e+02   1.3244140e+02
   4.7640240e+02   1.0231080e+02
   4.7688450e+02   7.7722410e+01
   4.7736660e+02   6.1980220e+01
   4.7784880e+02   5.3364260e+01
   4.7833090e+02   4.8644780e+01
   4.7881300e+02   4.8158200e+01
   4.7929510e+02   5.5618160e+01
   4.7977720e+02   7.8673100e+01
   4.8025930e+02   1.0680960e+02
   4.8074150e+02   1.3035450e+02
   4.8122360e+02   1.4788570e+02
   4.8170570e+02   1.6114770e+02
   4.8218780e+02   1.6504660e+02
   4.8266990e+02   1.6573890e+02
   4.8315200e+02   1.7350590e+02
   4.8363420e+02   1.9865990e+02
   4.8411630e+02   2.2416520e+02
   4.8459840e+02   2.4246890e+02
   4.8508050e+02   2.5302420e+02
   4.8556260e+02   2.7446900e+02
   4.8604470e+02   3.1137550e+02
   4.8652690e+02   3.5598950e+02
   4.8700900e+02   4.0447810e+02
   4.8749110e+02   4.6001200e+02
   4.8797320e+02   5.1178420e+02
   4.8845530e+02   5.5813050e+02
   4.8893740e+02   6.0146510e+02
   4.8941960e+02   6.4691750e+02
   4.8990170e+02   6.9361350e+02
   4.9038380e+02   7.4678000e+02
   4.9086590e+02   8.1087240e+02
   4.9134800e+02   8.8451810e+02
   4.9183010e+02   9.5708310e+02
   4.9231230e+02   1.0290730e+03
   4.9279440e+02   1.1006270e+03
   4.9327650e+02   1.1714750e+03
   4.9375860e+02   1.2421660e+03
   4.9424070e+02   1.3188950e+03
   4.9472280e+02   1.4066550e+03
   4.9520500e+02   1.4933370e+03
   4.9568710e+02   1.5614110e+03
   4.9616920e+02   1.6154540e+03
   4.9665130e+02   1.6680380e+03
   4.9713340e+02   1.7310900e+03
   4.9761550e+02   1.7930520e+03
   4.9809770e+02   1.8459120e+03
   4.9857980e+02   1.8885750e+03
   4.9906190e+02   1.9218370e+03
   4.9954400e+02   1.9406180e+03
   5.0002610e+02   1.9519590e+03
   5.0050820e+02   1.9626410e+03
   5.0099040e+02   1.9793180e+03
   5.0147250e+02   1.9896830e+03
   5.0195460e+02   1.9864320e+03
   5.0243670e+02   1.9735800e+03
   5.0291880e+02   1.9684320e+03
   5.0340090e+02   1.9809420e+03
   5.0388310e+02   1.9901740e+03
   5.0436520e+02   1.9856690e+03
   5.0484730e+02   1.9614680e+03
   5.0532940e+02   1.9538620e+03
   5.0581150e+02   1.9704110e+03
   5.0629360e+02   1.9929960e+03
   5.0677580e+02   2.0000930e+03
   5.0725790e+02   1.9895300e+03
   5.0774000e+02   1.9806650e+03
   5.0822210e+02   1.9786100e+03
   5.0870420e+02   1.9797910e+03
   5.0918630e+02   1.9762380e+03
   5.0966850e+02   1.9680380e+03
   5.1015060e+02   1.9546630e+03
   5.1063270e+02   1.9320190e+03
   5.1111480e+02   1.9048400e+03
   5.1159690e+02   1.8816870e+03
   5.1207900e+02   1.8629010e+03
   5.1256120e+02   1.8515760e+03
   5.1304330e+02   1.8460060e+03
   5.1352540e+02   1.8506930e+03
   5.1400750e+02   1.8727810e+03
   5.1448960e+02   1.9239950e+03
   5.1497170e+02   1.9837950e+03
   5.1545390e+02   2.0432320e+03
   5.1593600e+02   2.1025580e+03
   5.1641810e+02   2.1628540e+03
   5.1690020e+02   2.2220840e+03
   5.1738230e+02   2.2840010e+03
   5.1786440e+02   2.3530590e+03
   5.1834660e+02   2.4354030e+03
   5.1882870e+02   2.5067460e+03
   5.1931080e+02   2.5804630e+03
   5.1979290e+02   2.6334580e+03
   5.2027500e+02   2.6405180e+03
   5.2075710e+02   2.5866640e+03
   5.2123930e+02   2.5174980e+03
   5.2172140e+02   2.4400350e+03
   5.2220350e+02   2.3517420e+03
   5.2268560e+02   2.2423810e+03
   5.2316770e+02   2.1117990e+03
   5.2364980e+02   1.9641280e+03
   5.2413200e+02   1.7942220e+03
   5.2461410e+02   1.6045130e+03
   5.2509620e+02   1.4211240e+03
   5.2557830e+02   1.2436490e+03
   5.2606040e+02   1.0725440e+03
   5.2654250e+02   9.0140620e+02
   5.2702470e+02   7.3824680e+02
   5.2750680e+02   5.9544560e+02
   5.2798890e+02   4.7949120e+02
   5.2847100e+02   3.8209940e+02
   5.2895310e+02   2.9473960e+02
   5.2943520e+02   2.1844290e+02
   5.2991740e+02   1.5368510e+02
   5.3039950e+02   9.7904460e+01
   5.3088160e+02   9.8895970e+01
   5.3136370e+02   9.5246120e+01
   5.3184580e+02   8.7254310e+01
   5.3232790e+02   5.9131240e+01
   5.3281010e+02   5.9132870e+01
   5.3329220e+02   4.9167950e+01
   5.3377430e+02   3.9685210e+01
   5.3425640e+02   4.6307080e+01
   5.3473850e+02   2.5896800e+01
   5.3522060e+02   3.4138550e+01
   5.3570270e+02   3.2243940e+01
   5.3618480e+02   3.6344010e+01
   5.3666690e+02   3.0407250e+01
   5.3714900e+02   2.8787770e+01
   5.3763120e+02   3.9069260e+01
   5.3811330e+02   4.4205850e+01
   5.3859540e+02   4.0726910e+01
   5.3907750e+02   5.0729390e+01
   5.3955960e+02   3.9235980e+01
   5.4004170e+02   4.8351720e+01
   5.4052390e+02   6.6889770e+01
   5.4100600e+02   6.8611710e+01
   5.4148810e+02   8.3465090e+01
   5.4197020e+02   9.4601950e+01
   5.4245230e+02   8.5550640e+01
   5.4293440e+02   1.1415500e+02
   5.4341660e+02   1.4879030e+02
   5.4389870e+02   1.7933720e+02
   5.4438080e+02   2.1473390e+02
   5.4486290e+02   2.6718460e+02
   5.4534500e+02   3.3711410e+02
   5.4582710e+02   4.2086600e+02
   5.4630930e+02   5.2608570e+02
   5.4679140e+02   6.3821680e+02
   5.4727350e+02   7.4842140e+02
   5.4775560e+02   8.4331810e+02
   5.4823770e+02   9.5474170e+02
   5.4871980e+02   1.0889740e+03
   5.4920200e+02   1.2400700e+03
   5.4968410e+02   1.4007180e+03
   5.5016620e+02   1.5776220e+03
   5.5064830e+02   1.7511630e+03
   5.5113040e+02   1.9123680e+03
   5.5161250e+02   2.0658910e+03
   5.5209470e+02   2.2473160e+03
   5.5257680e+02   2.4600680e+03
   5.5305890e+02   2.6850170e+03
   5.5354100e+02   2.9047020e+03
   5.5402310e+02   3.1229190e+03
   5.5450520e+02   3.3677510e+03
   5.5498740e+02   3.6407220e+03
   5.5546950e+02   3.9308720e+03
   5.5595160e+02   4.2325010e+03
   5.5643370e+02   4.5419560e+03
   5.5691580e+02   4.8447550e+03
   5.5739790e+02   5.1299910e+03
   5.5788010e+02   5.4177980e+03
   5.5836220e+02   5.7223690e+03
   5.5884430e+02   6.0417520e+03
   5.5932640e+02   6.3664750e+03
   5.5980850e+02   6.7067620e+03
   5.6029060e+02   7.0360230e+03
   5.6077280e+02   7.3488480e+03
   5.6125490e+02   7.6551330e+03
   5.6173700e+02   7.8978030e+03
   5.6221910e+02   8.0947180e+03
   5.6270120e+02   8.2084450e+03
   5.6318330e+02   8.2080920e+03
   5.6366550e+02   8.0896900e+03
   5.6414760e+02   7.8640380e+03
   5.6462970e+02   7.5171200e+03
   5.6511180e+02   7.0728900e+03
   5.6559390e+02   6.5564930e+03
   5.6607600e+02   5.9466230e+03
   5.6655820e+02   5.3652400e+03
   5.6704030e+02   4.8479960e+03
   5.6752240e+02   4.3921250e+03
   5.6800450e+02   3.9650320e+03
   5.6848660e+02   3.5700770e+03
   5.6896880e+02   3.2182060e+03
   5.6945090e+02   2.9144280e+03
   5.6993300e+02   2.6643220e+03
   5.7041510e+02   2.4688280e+03
   5.7089720e+02   2.3350390e+03
   5.7137930e+02   2.2386670e+03
   5.7186150e+02   2.1740410e+03
   5.7234360e+02   2.1335820e+03
   5.7282570e+02   2.1071610e+03
   5.7330780e+02   2.0850280e+03
   5.7378990e+02   2.0823920e+03
   5.7427200e+02   2.1107750e+03
   5.7475420e+02   2.1662450e+03
   5.7523630e+02   2.2245050e+03
   5.7571840e+02   2.2819270e+03
   5.7620050e+02   2.3428850e+03
   5.7668260e+02   2.4072040e+03
   5.7716470e+02   2.4726670e+03
   5.7764690e+02   2.5518700e+03
   5.7812900e+02   2.6437910e+03
   5.7861110e+02   2.7486870e+03
   5.7909320e+02   2.8707120e+03
   5.7957530e+02   3.0099120e+03
   5.8005740e+02   3.1511500e+03
   5.8053960e+02   3.2911040e+03
   5.8102170e+02   3.4332810e+03
   5.8150380e+02   3.5849020e+03
   5.8198590e+02   3.7436780e+03
   5.8246800e+02   3.9000300e+03
   5.8295010e+02   4.0476980e+03
   5.8343230e+02   4.1908980e+03
   5.8391440e+02   4.3341960e+03
   5.8439650e+02   4.4772140e+03
   5.8487860e+02   4.6129410e+03
   5.8536070e+02   4.7405680e+03
   5.8584280e+02   4.8567420e+03
   5.8632500e+02   4.9577250e+03
   5.8680710e+02   5.0357780e+03
   5.8728920e+02   5.1196880e+03
   5.8777130e+02   5.2154050e+03
   5.8825340e+02   5.3189990e+03
   5.8873550e+02   5.4243650e+03
   5.8921770e+02   5.5296550e+03
   5.8969980e+02   5.6428510e+03
   5.9018190e+02   5.7666330e+03
   5.9066400e+02   5.8988370e+03
   5.9114610e+02   6.0313310e+03
   5.9162820e+02   6.1634760e+03
   5.9211040e+02   6.3030150e+03
   5.9259250e+02   6.4659640e+03
   5.9307460e+02   6.6418970e+03
   5.9355670e+02   6.7779550e+03
   5.9403880e+02   6.8721100e+03
   5.9452090e+02   6.9429010e+03
   5.9500310e+02   7.0179620e+03
   5.9548520e+02   7.0788190e+03
   5.9596730e+02   7.0939850e+03
   5.9644940e+02   7.0525280e+03
   5.9693150e+02   6.9750420e+03
   5.9741360e+02   6.8713990e+03
   5.9789580e+02   6.7435790e+03
   5.9837790e+02   6.5931030e+03
   5.9886000e+02   6.4132470e+03
   5.9934210e+02   6.2185880e+03
   5.9982420e+02   6.0049990e+03
   6.0030630e+02   5.7760500e+03
   6.0078850e+02   5.5613120e+03
   6.0127060e+02   5.3713400e+03
   6.0175270e+02   5.1889280e+03
   6.0223480e+02   5.0041780e+03
   6.0271690e+02   4.8160240e+03
   6.0319900e+02   4.6569590e+03
   6.0368120e+02   4.5323880e+03
   6.0416330e+02   4.4202550e+03
   6.0464540e+02   4.2922280e+03
   6.0512750e+02   4.1528830e+03
   6.0560960e+02   4.0388350e+03
   6.0609170e+02   3.9582220e+03
   6.0657390e+02   3.8928230e+03
   6.0705600e+02   3.8186710e+03
   6.0753810e+02   3.7407250e+03
   6.0802020e+02   3.6691470e+03
   6.0850230e+02   3.6153420e+03
   6.0898440e+02   3.5646700e+03
   6.0946660e+02   3.5111600e+03
   6.0994870e+02   3.4532130e+03
   6.1043080e+02   3.3856840e+03
   6.1091290e+02   3.3082180e+03
   6.1139500e+02   3.2199290e+03
   6.1187710e+02   3.1206410e+03
   6.1235930e+02   3.0077490e+03
   6.1284140e+02   2.8889450e+03
   6.1332350e+02   2.7596290e+03
   6.1380560e+02   2.6311560e+03
   6.1428770e+02   2.5174520e+03
   6.1476980e+02   2.4243770e+03
   6.1525200e+02   2.3178290e+03
   6.1573410e+02   2.1921810e+03
   6.1621620e+02   2.0574170e+03
   6.1669830e+02   1.9293310e+03
   6.1718040e+02   1.8072490e+03
   6.1766250e+02   1.6861050e+03
   6.1814460e+02   1.5610930e+03
   6.1862670e+02   1.4390730e+03
   6.1910880e+02   1.3276000e+03
   6.1959090e+02   1.2265810e+03
   6.2007310e+02   1.1328840e+03
   6.2055520e+02   1.0433880e+03
   6.2103730e+02   9.6283860e+02
   6.2151940e+02   8.9768300e+02
   6.2200150e+02   8.4909940e+02
   6.2248360e+02   8.0144490e+02
   6.2296580e+02   7.5206670e+02
   6.2344790e+02   7.0106910e+02
   6.2393000e+02   6.4777880e+02
   6.2441210e+02   5.8290270e+02
   6.2489420e+02   5.3324930e+02
   6.2537630e+02   5.0469620e+02
   6.2585850e+02   4.8555970e+02
   6.2634060e+02   4.5636490e+02
   6.2682270e+02   4.1499230e+02
   6.2730480e+02   3.8045280e+02
   6.2778690e+02   3.5960360e+02
   6.2826900e+02   3.4649910e+02
   6.2875120e+02   3.2845720e+02
   6.2923330e+02   3.0581420e+02
   6.2971540e+02   2.8154590e+02
   6.3019750e+02   2.5345190e+02
   6.3067960e+02   2.2673110e+02
   6.3116170e+02   2.1010840e+02
   6.3164390e+02   2.0333800e+02
   6.3212600e+02   1.9505070e+02
   6.3260810e+02   1.7938440e+02
   6.3309020e+02   1.5984790e+02
   6.3357230e+02   1.3805420e+02
   6.3405440e+02   1.1086830e+02
   6.3453660e+02   8.9826050e+01
   6.3501870e+02   7.9856930e+01
   6.3550080e+02   7.4445310e+01
   6.3598290e+02   6.6435670e+01
   6.3646500e+02   5.4087890e+01
   6.3694710e+02   4.5075680e+01
   6.3742930e+02   4.3195680e+01
   6.3791140e+02   4.2751950e+01
   6.3839350e+02   2.5318970e+01
   6.3887560e+02   9.3439940e+00
   6.3935770e+02   3.4278440e+01
   6.3983980e+02   3.2835570e+01
   6.4032200e+02   1.6307250e+01
   6.4080410e+02   4.0722660e+00
   6.4128620e+02   3.7597660e+00
   6.4176830e+02   6.3381350e+00
   6.4225040e+02   2.3010250e+00
   6.4273250e+02   1.3273320e+01
   6.4321470e+02   1.6811400e+01
   6.4369680e+02   9.8299560e+00
   6.4417890e+02   8.0686040e+00
   6.4466100e+02   2.5350950e+01
   6.4514310e+02   4.5086000e+01
   6.4562520e+02   5.2337460e+01
   6.4610740e+02   3.2512080e+01
   6.4658950e+02   2.4834290e+01
   6.4707160e+02   3.7742980e+01
   6.4755370e+02   5.7190610e+01
   6.4803580e+02   5.6764530e+01
   6.4851790e+02   3.3491760e+01
   6.4900010e+02   1.5362490e+01
   6.4948220e+02   1.1036070e+01
   6.4996430e+02   1.5416140e+01
   6.5044640e+02   1.9258300e+01
   6.5092850e+02   2.2192200e+01
   6.5141060e+02   2.1778930e+01
   6.5189280e+02   1.0239070e+01
   6.5237490e+02   2.0700680e+00
   6.5285700e+02   6.8975800e-01
   6.5333910e+02   1.4386600e+01
   6.5382120e+02   2.6225040e+01
   6.5430330e+02   2.4743770e+01
   6.5478550e+02   1.7994320e+01
   6.5526760e+02   1.0828860e+01
   6.5574970e+02   3.2196040e+00
   6.5623180e+02   2.2510990e+00
   6.5671390e+02   1.7592160e+00
   6.5719600e+02   2.2382200e+00
   6.5767820e+02   1.2435120e+01
   6.5816030e+02   3.7471620e+01
   6.5864240e+02   5.1095150e+01
   6.5912450e+02   4.6480710e+01
   6.5960660e+02   3.5186890e+01
   6.6008870e+02   4.1263730e+01
   6.6057090e+02   6.2000490e+01
   6.6105300e+02   7.7142150e+01
   6.6153510e+02   7.4301090e+01
   6.6201720e+02   6.6169130e+01
   6.6249930e+02   7.0884340e+01
   6.6298140e+02   8.5289430e+01
   6.6346360e+02   9.7476560e+01
   6.6394570e+02   9.9588320e+01
   6.6442780e+02   9.9331730e+01
   6.6490990e+02   1.0024650e+02
   6.6539200e+02   1.0254830e+02
   6.6587410e+02   1.0775320e+02
   6.6635630e+02   1.1905560e+02
   6.6683840e+02   1.3066940e+02
   6.6732050e+02   1.4005690e+02
   6.6780260e+02   1.4757230e+02
   6.6828470e+02   1.5086650e+02
   6.6876680e+02   1.4771920e+02
   6.6924900e+02   1.4501260e+02
   6.6973110e+02   1.5253620e+02
   6.7021320e+02   1.6900770e+02
   6.7069530e+02   1.8046540e+02
   6.7117740e+02   1.8263230e+02
   6.7165950e+02   1.8395780e+02
   6.7214170e+02   1.9560350e+02
   6.7262380e+02   2.1453110e+02
   6.7310590e+02   2.3424440e+02
   6.7358800e+02   2.5691190e+02
   6.7407010e+02   2.7495640e+02
   6.7455220e+02   2.8002400e+02
   6.7503440e+02   2.7650680e+02
   6.7551650e+02   2.7919380e+02
   6.7599860e+02   2.9809580e+02
   6.7648070e+02   3.1666250e+02
   6.7696280e+02   3.2882140e+02
   6.7744490e+02   3.3477150e+02
   6.7792710e+02   3.4648290e+02
   6.7840920e+02   3.6666330e+02
   6.7889130e+02   3.8558010e+02
   6.7937340e+02   3.9460180e+02
   6.7985550e+02   3.9523620e+02
   6.8033760e+02   4.0454300e+02
   6.8081980e+02   4.2351900e+02
   6.8130190e+02   4.4381720e+02
   6.8178400e+02   4.5874900e+02
   6.8226610e+02   4.6931730e+02
   6.8274820e+02   4.7550160e+02
   6.8323030e+02   4.7501900e+02
   6.8371250e+02   4.7796840e+02
   6.8419460e+02   4.9564390e+02
   6.8467670e+02   5.1819820e+02
   6.8515880e+02   5.3317500e+02
   6.8564090e+02   5.3876780e+02
   6.8612300e+02   5.3523150e+02
   6.8660520e+02   5.1787690e+02
   6.8708730e+02   4.9333910e+02
   6.8756940e+02   4.7710180e+02
   6.8805150e+02   4.7209040e+02
   6.8853360e+02   4.6525350e+02
   6.8901570e+02   4.5317900e+02
   6.8949790e+02   4.3630240e+02
   6.8998000e+02   4.1341710e+02
   6.9046210e+02   3.8496350e+02
   6.9094420e+02   3.5877730e+02
   6.9142630e+02   3.4229990e+02
   6.9190840e+02   3.2866740e+02
   6.9239060e+02   3.0738560e+02
   6.9287270e+02   2.7867870e+02
   6.9335480e+02   2.5204460e+02
   6.9383690e+02   2.2966030e+02
   6.9431900e+02   2.1275210e+02
   6.9480110e+02   2.0313740e+02
   6.9528330e+02   2.0448860e+02
   6.9576540e+02   2.0202230e+02
   6.9624750e+02   1.9223200e+02
   6.9672960e+02   1.8042310e+02
   6.9721170e+02   1.7190110e+02
   6.9769380e+02   1.7043940e+02
   6.9817600e+02   1.6246900e+02
   6.9865810e+02   1.4416500e+02
   6.9914020e+02   1.2481380e+02
   6.9962230e+02   1.1989090e+02
   7.0010440e+02   1.2550730e+02
   7.0058650e+02   1.2693900e+02
   7.0106860e+02   1.1850700e+02
   7.0155070e+02   1.0900160e+02
   7.0203280e+02   1.0772530e+02
   7.0251500e+02   1.1001620e+02
   7.0299710e+02   1.0845390e+02
   7.0347920e+02   1.0028020e+02
   7.0396130e+02   9.1031740e+01
   7.0444340e+02   7.8312990e+01
   7.0492550e+02   6.2614810e+01
   7.0540770e+02   5.3340210e+01
   7.0588980e+02   5.6526860e+01
   7.0637190e+02   6.1130070e+01
   7.0685400e+02   6.1911500e+01
   7.0733610e+02   5.8744140e+01
   7.0781820e+02   6.0988280e+01
   7.0830040e+02   6.9824460e+01
   7.0878250e+02   7.2259030e+01
   7.0926460e+02   4.9812930e+01
   7.0974670e+02   1.7561160e+01
   7.1022880e+02   9.3009640e+00
   7.1071090e+02   2.6507870e+01
   7.1119310e+02   4.2480470e+01
   7.1167520e+02   3.7230410e+01
   7.1215730e+02   2.4769530e+01
   7.1263940e+02   1.7545470e+01
   7.1312150e+02   1.9162960e+01
   7.1360360e+02   2.1825070e+01
   7.1408580e+02   2.4180180e+01
   7.1456790e+02   2.6100770e+01
   7.1505000e+02   2.7815370e+01
   7.1553210e+02   2.9495790e+01
   7.1601420e+02   3.2103520e+01
   7.1649630e+02   3.6385800e+01
   7.1697850e+02   4.0097960e+01
   7.1746060e+02   3.8980900e+01
   7.1794270e+02   3.3635740e+01
   7.1842480e+02   2.7479980e+01
   7.1890690e+02   1.9259090e+01
   7.1938900e+02   1.4273740e+01
   7.1987120e+02   2.3333740e+01
   7.2035330e+02   4.0376830e+01
   7.2083540e+02   5.1316650e+01
   7.2131750e+02   4.5022400e+01
   7.2179960e+02   3.6190800e+01
   7.2228170e+02   2.8199890e+01
   7.2276390e+02   2.2479680e+01
   7.2324600e+02   2.4956050e+01
   7.2372810e+02   4.0972780e+01
   7.2421020e+02   5.5058290e+01
   7.2469230e+02   6.3512150e+01
   7.2517440e+02   6.7076780e+01
   7.2565660e+02   6.8552550e+01
   7.2613870e+02   6.7780940e+01
   7.2662080e+02   6.7477230e+01
   7.2710290e+02   6.9926570e+01
   7.2758500e+02   7.2986330e+01
   7.2806710e+02   7.1965270e+01
   7.2854930e+02   6.7105960e+01
   7.2903140e+02   6.3712340e+01
   7.2951350e+02   6.5617550e+01
   7.2999560e+02   7.0123350e+01
   7.3047770e+02   7.5767400e+01
   7.3095980e+02   8.3462100e+01
   7.3144200e+02   8.8250920e+01
   7.3192410e+02   8.5824340e+01
   7.3240620e+02   8.2547730e+01
   7.3288830e+02   8.2906620e+01
   7.3337040e+02   8.7403260e+01
   7.3385250e+02   9.3371580e+01
   7.3433470e+02   1.0195490e+02
   7.3481680e+02   1.1047870e+02
   7.3529890e+02   1.1490160e+02
   7.3578100e+02   1.1488370e+02
   7.3626310e+02   1.1127420e+02
   7.3674520e+02   1.0324650e+02
   7.3722740e+02   9.8313420e+01
   7.3770950e+02   1.0643430e+02
   7.3819160e+02   1.2007770e+02
   7.3867370e+02   1.2830730e+02
   7.3915580e+02   1.2416520e+02
   7.3963790e+02   1.1989210e+02
   7.4012010e+02   1.1696050e+02
   7.4060220e+02   1.1633670e+02
   7.4108430e+02   1.2014390e+02
   7.4156640e+02   1.3007710e+02
   7.4204850e+02   1.3976670e+02
   7.4253060e+02   1.4861620e+02
   7.4301280e+02   1.5619270e+02
   7.4349490e+02   1.5982310e+02
   7.4397700e+02   1.5971390e+02
   7.4445910e+02   1.5918960e+02
   7.4494120e+02   1.5949110e+02
   7.4542330e+02   1.5968830e+02
   7.4590550e+02   1.5934940e+02
   7.4638760e+02   1.5912400e+02
   7.4686970e+02   1.5950730e+02
   7.4735180e+02   1.6125820e+02
   7.4783390e+02   1.6279800e+02
   7.4831600e+02   1.6288090e+02
   7.4879820e+02   1.6082330e+02
   7.4928030e+02   1.5689420e+02
   7.4976240e+02   1.4862540e+02
   7.5024450e+02   1.4363500e+02
   7.5072660e+02   1.4587280e+02
   7.5120870e+02   1.5552290e+02
   7.5169090e+02   1.7072130e+02
   7.5217300e+02   1.9318560e+02
   7.5265510e+02   2.0766360e+02
   7.5313720e+02   1.9337880e+02
   7.5361930e+02   1.6405550e+02
   7.5410140e+02   1.4743280e+02
   7.5458360e+02   1.4694310e+02
   7.5506570e+02   1.5172350e+02
   7.5554780e+02   1.5903460e+02
   7.5602990e+02   1.6590990e+02
   7.5651200e+02   1.6940530e+02
   7.5699410e+02   1.6623420e+02
   7.5747630e+02   1.6620880e+02
   7.5795840e+02   1.7380540e+02
   7.5844050e+02   1.8114110e+02
   7.5892260e+02   1.7992800e+02
   7.5940470e+02   1.6875660e+02
   7.5988680e+02   1.5744100e+02
   7.6036900e+02   1.4613370e+02
   7.6085110e+02   1.3696940e+02
   7.6133320e+02   1.3366650e+02
   7.6181530e+02   1.3472670e+02
   7.6229740e+02   1.3648490e+02
   7.6277950e+02   1.3867290e+02
   7.6326170e+02   1.3958070e+02
   7.6374380e+02   1.3698020e+02
   7.6422590e+02   1.3257220e+02
   7.6470800e+02   1.2890050e+02
   7.6519010e+02   1.2526510e+02
   7.6567220e+02   1.2427440e+02
   7.6615440e+02   1.2867440e+02
   7.6663650e+02   1.3474520e+02
   7.6711860e+02   1.3377730e+02
   7.6760070e+02   1.2385380e+02
   7.6808280e+02   1.1682230e+02
   7.6856490e+02   1.1781130e+02
   7.6904710e+02   1.2204020e+02
   7.6952920e+02   1.1945980e+02
   7.7001130e+02   1.1130620e+02
   7.7049340e+02   1.0279360e+02
   7.7097550e+02   9.4021000e+01
   7.7145760e+02   8.8296330e+01
   7.7193980e+02   9.1040650e+01
   7.7242190e+02   9.9310300e+01
   7.7290400e+02   1.0297640e+02
   7.7338610e+02   9.5643250e+01
   7.7386820e+02   8.7570190e+01
   7.7435030e+02   8.1421690e+01
   7.7483250e+02   7.6885440e+01
   7.7531460e+02   7.2041630e+01
   7.7579670e+02   6.6721250e+01
   7.7627880e+02   6.1463930e+01
   7.7676090e+02   5.5478390e+01
   7.7724300e+02   5.0017400e+01
   7.7772520e+02   5.0092160e+01
   7.7820730e+02   5.5000120e+01
   7.7868940e+02   5.8908570e+01
   7.7917150e+02   6.0930480e+01
   7.7965360e+02   5.8292240e+01
   7.8013570e+02   4.3753050e+01
   7.8061790e+02   1.7697810e+01
   7.8110000e+02   4.5340580e+00
   7.8158210e+02   2.6154790e+01
   7.8206420e+02   4.5331360e+01
   7.8254630e+02   4.5892700e+01
   7.8302840e+02   2.7084350e+01
   7.8351050e+02   1.0972290e+01
   7.8399260e+02   2.9997560e+00
   7.8447470e+02   1.1774230e+01
   7.8495680e+02   9.9024660e+00
   7.8543900e+02   1.5794680e+00
   7.8592110e+02   1.6926270e+00
   7.8640320e+02   6.1554000e-01
   7.8688530e+02   4.0795290e+00
   7.8736740e+02   5.9907230e+00
   7.8784950e+02   7.4808960e+00
   7.8833170e+02   9.5964970e+00
   7.8881380e+02   1.2647640e+01
   7.8929590e+02   1.5438050e+01
   7.8977800e+02   1.8491030e+01
   7.9026010e+02   2.0782230e+01
   7.9074220e+02   2.0996150e+01
   7.9122440e+02   1.8333440e+01
   7.9170650e+02   2.0064700e+01
   7.9218860e+02   2.7413390e+01
   7.9267070e+02   3.3497310e+01
   7.9315280e+02   2.7386660e+01
   7.9363490e+02   1.5713930e+01
   7.9411710e+02   1.5563720e+01
   7.9459920e+02   3.1059270e+01
   7.9508130e+02   4.3566890e+01
   7.9556340e+02   3.5556760e+01
   7.9604550e+02   2.2177800e+01
   7.9652760e+02   1.7679810e+01
   7.9700980e+02   2.9568420e+01
   7.9749190e+02   3.9918150e+01
   7.9797400e+02   4.9064640e+01
   7.9845610e+02   5.5489690e+01
   7.9893820e+02   5.6582760e+01
   7.9942030e+02   5.2042660e+01
   7.9990250e+02   4.9238650e+01
   8.0038460e+02   4.8963070e+01
   8.0086670e+02   4.9798890e+01
   8.0134880e+02   5.2066160e+01
   8.0183090e+02   5.3831050e+01
   8.0231300e+02   5.0533020e+01
   8.0279520e+02   3.8399230e+01
   8.0327730e+02   2.8891850e+01
   8.0375940e+02   2.9999210e+01
   8.0424150e+02   3.5511660e+01
   8.0472360e+02   3.8535160e+01
   8.0520570e+02   4.0983460e+01
   8.0568790e+02   3.5688660e+01
   8.0617000e+02   1.8436770e+01
   8.0665210e+02   9.5220900e-01
   8.0713420e+02   6.5841670e+00
   8.0761630e+02   7.6599002e-02
   8.0809840e+02   1.0675050e+00
   8.0858060e+02   1.4409180e+01
   8.0906270e+02   3.2559270e+01
   8.0954480e+02   5.0636540e+01
   8.1002690e+02   6.7310300e+01
   8.1050900e+02   8.0335510e+01
   8.1099110e+02   8.6685360e+01
   8.1147330e+02   9.2735470e+01
   8.1195540e+02   1.0204120e+02
   8.1243750e+02   1.1136870e+02
   8.1291960e+02   1.1573830e+02
   8.1340170e+02   1.1280260e+02
   8.1388390e+02   1.1162380e+02
   8.1436600e+02   1.1238930e+02
   8.1484810e+02   1.1681980e+02
   8.1533020e+02   1.3167980e+02
   8.1581230e+02   1.5364710e+02
   8.1629440e+02   1.6715560e+02
   8.1677660e+02   1.6424050e+02
   8.1725870e+02   1.6100520e+02
   8.1774080e+02   1.7018120e+02
   8.1822290e+02   1.8771700e+02
   8.1870500e+02   2.0784590e+02
   8.1918710e+02   2.3082430e+02
   8.1966930e+02   2.5456190e+02
   8.2015140e+02   2.7832040e+02
   8.2063350e+02   3.0296910e+02
   8.2111560e+02   3.2979090e+02
   8.2159770e+02   3.5900840e+02
   8.2207980e+02   3.8658070e+02
   8.2256200e+02   4.1098030e+02
   8.2304410e+02   4.3530240e+02
   8.2352620e+02   4.6687430e+02
   8.2400830e+02   5.0228050e+02
   8.2449040e+02   5.3377110e+02
   8.2497250e+02   5.5972530e+02
   8.2545470e+02   5.7990920e+02
   8.2593680e+02   5.9190710e+02
   8.2641890e+02   5.9891880e+02
   8.2690100e+02   6.0668300e+02
   8.2738310e+02   6.1884790e+02
   8.2786520e+02   6.2554680e+02
   8.2834740e+02   6.2478100e+02
   8.2882950e+02   6.1907230e+02
   8.2931160e+02   6.1384500e+02
   8.2979370e+02   6.0863500e+02
   8.3027580e+02   5.9688180e+02
   8.3075790e+02   5.7568800e+02
   8.3124010e+02   5.5011840e+02
   8.3172220e+02   5.2416480e+02
   8.3220430e+02   4.9849210e+02
   8.3268640e+02   4.7357020e+02
   8.3316850e+02   4.5507200e+02
   8.3365060e+02   4.3087080e+02
   8.3413280e+02   3.9046060e+02
   8.3461490e+02   3.4618190e+02
   8.3509700e+02   3.1450520e+02
   8.3557910e+02   2.9725890e+02
   8.3606120e+02   2.8698730e+02
   8.3654330e+02   2.8507910e+02
   8.3702550e+02   2.8366720e+02
   8.3750760e+02   2.6823190e+02
   8.3798970e+02   2.4294410e+02
   8.3847180e+02   2.1998690e+02
   8.3895390e+02   2.0286220e+02
   8.3943600e+02   1.9192200e+02
   8.3991820e+02   1.8732370e+02
   8.4040030e+02   1.8690090e+02
   8.4088240e+02   1.8803080e+02
   8.4136450e+02   1.9052670e+02
   8.4184660e+02   1.9396770e+02
   8.4232870e+02   1.9912120e+02
   8.4281090e+02   2.0546340e+02
   8.4329300e+02   2.1208190e+02
   8.4377510e+02   2.1847470e+02
   8.4425720e+02   2.2253200e+02
   8.4473930e+02   2.2228860e+02
   8.4522140e+02   2.2499560e+02
   8.4570360e+02   2.4012510e+02
   8.4618570e+02   2.6313980e+02
   8.4666780e+02   2.8756950e+02
   8.4714990e+02   3.1447660e+02
   8.4763200e+02   3.3768010e+02
   8.4811410e+02   3.5171500e+02
   8.4859630e+02   3.6400340e+02
   8.4907840e+02   3.8233240e+02
   8.4956050e+02   4.0703170e+02
   8.5004260e+02   4.3389230e+02
   8.5052470e+02   4.6219640e+02
   8.5100680e+02   4.9525350e+02
   8.5148900e+02   5.3914210e+02
   8.5197110e+02   5.8968510e+02
   8.5245320e+02   6.3460110e+02
   8.5293530e+02   6.7078330e+02
   8.5341740e+02   7.0828340e+02
   8.5389950e+02   7.5194980e+02
   8.5438170e+02   8.0026680e+02
   8.5486380e+02   8.5108670e+02
   8.5534590e+02   9.0333810e+02
   8.5582800e+02   9.6206640e+02
   8.5631010e+02   1.0306050e+03
   8.5679220e+02   1.1000860e+03
   8.5727440e+02   1.1627370e+03
   8.5775650e+02   1.2179660e+03
   8.5823860e+02   1.2649940e+03
   8.5872070e+02   1.3022960e+03
   8.5920280e+02   1.3408940e+03
   8.5968490e+02   1.3910670e+03
   8.6016710e+02   1.4489940e+03
   8.6064920e+02   1.5132790e+03
   8.6113130e+02   1.5854150e+03
   8.6161340e+02   1.6522530e+03
   8.6209550e+02   1.7069900e+03
   8.6257760e+02   1.7571710e+03
   8.6305980e+02   1.8070990e+03
   8.6354190e+02   1.8567490e+03
   8.6402400e+02   1.9103380e+03
   8.6450610e+02   1.9698700e+03
   8.6498820e+02   2.0221570e+03
   8.6547030e+02   2.0523470e+03
   8.6595240e+02   2.0697430e+03
   8.6643450e+02   2.0895690e+03
   8.6691660e+02   2.1132020e+03
   8.6739870e+02   2.1423290e+03
   8.6788090e+02   2.1957910e+03
   8.6836300e+02   2.2412620e+03
   8.6884510e+02   2.2495270e+03
   8.6932720e+02   2.2151260e+03
   8.6980930e+02   2.2054760e+03
   8.7029140e+02   2.2255250e+03
   8.7077360e+02   2.2561860e+03
   8.7125570e+02   2.2903400e+03
   8.7173780e+02   2.3253260e+03
   8.7221990e+02   2.3479310e+03
   8.7270200e+02   2.3594580e+03
   8.7318410e+02   2.3724560e+03
   8.7366630e+02   2.3885710e+03
   8.7414840e+02   2.4144920e+03
   8.7463050e+02   2.4609300e+03
   8.7511260e+02   2.5274340e+03
   8.7559470e+02   2.5811790e+03
   8.7607680e+02   2.6090460e+03
   8.7655900e+02   2.6416130e+03
   8.7704110e+02   2.6923620e+03
   8.7752320e+02   2.7571210e+03
   8.7800530e+02   2.8116760e+03
   8.7848740e+02   2.8569800e+03
   8.7896950e+02   2.9032860e+03
   8.7945170e+02   2.9591140e+03
   8.7993380e+02   3.0164640e+03
   8.8041590e+02   3.0694200e+03
   8.8089800e+02   3.1174750e+03
   8.8138010e+02   3.1580600e+03
   8.8186220e+02   3.1829670e+03
   8.8234440e+02   3.2105410e+03
   8.8282650e+02   3.2539590e+03
   8.8330860e+02   3.3002540e+03
   8.8379070e+02   3.3082370e+03
   8.8427280e+02   3.2756540e+03
   8.8475490e+02   3.2342690e+03
   8.8523710e+02   3.1939010e+03
   8.8571920e+02   3.1510850e+03
   8.8620130e+02   3.0993100e+03
   8.8668340e+02   3.0407160e+03
   8.8716550e+02   2.9786550e+03
   8.8764760e+02   2.9093190e+03
   8.8812980e+02   2.8417350e+03
   8.8861190e+02   2.7738660e+03
   8.8909400e+02   2.7121750e+03
   8.8957610e+02   2.6644990e+03
   8.9005820e+02   2.6320230e+03
   8.9054030e+02   2.6100160e+03
   8.9102250e+02   2.5981370e+03
   8.9150460e+02   2.5954110e+03
   8.9198670e+02   2.5964690e+03
   8.9246880e+02   2.6058440e+03
   8.9295090e+02   2.6357430e+03
   8.9343300e+02   2.6935410e+03
   8.9391520e+02   2.7592230e+03
   8.9439730e+02   2.8165170e+03
   8.9487940e+02   2.8800520e+03
   8.9536150e+02   2.9666360e+03
   8.9584360e+02   3.0815310e+03
   8.9632570e+02   3.2065330e+03
   8.9680790e+02   3.3401020e+03
   8.9729000e+02   3.4866370e+03
   8.9777210e+02   3.6596000e+03
   8.9825420e+02   3.8496110e+03
   8.9873630e+02   4.0254010e+03
   8.9921840e+02   4.1815280e+03
   8.9970060e+02   4.3529430e+03
   9.0018270e+02   4.5624430e+03
   9.0066480e+02   4.7944870e+03
   9.0114690e+02   5.0347390e+03
   9.0162900e+02   5.2801690e+03
   9.0211110e+02   5.5436710e+03
   9.0259330e+02   5.8322800e+03
   9.0307540e+02   6.1210190e+03
   9.0355750e+02   6.3851740e+03
   9.0403960e+02   6.6335140e+03
   9.0452170e+02   6.9244170e+03
   9.0500380e+02   7.2547200e+03
   9.0548600e+02   7.5843000e+03
   9.0596810e+02   7.8935960e+03
   9.0645020e+02   8.1911550e+03
   9.0693230e+02   8.4822710e+03
   9.0741440e+02   8.7680030e+03
   9.0789650e+02   9.0539080e+03
   9.0837870e+02   9.3618760e+03
   9.0886080e+02   9.6372970e+03
   9.0934290e+02   9.8574950e+03
   9.0982500e+02   1.0037600e+04
   9.1030710e+02   1.0241240e+04
   9.1078920e+02   1.0462580e+04
   9.1127140e+02   1.0637040e+04
   9.1175350e+02   1.0735540e+04
   9.1223560e+02   1.0781240e+04
   9.1271770e+02   1.0793480e+04
   9.1319980e+02   1.0769060e+04
   9.1368190e+02   1.0702070e+04
   9.1416410e+02   1.0610330e+04
   9.1464620e+02   1.0444710e+04
   9.1512830e+02   1.0191280e+04
   9.1561040e+02   9.8734740e+03
   9.1609250e+02   9.5176320e+03
   9.1657460e+02   9.1244500e+03
   9.1705680e+02   8.6988680e+03
   9.1753890e+02   8.2411090e+03
   9.1802100e+02   7.7736350e+03
   9.1850310e+02   7.3079460e+03
   9.1898520e+02   6.8545410e+03
   9.1946730e+02   6.4209890e+03
   9.1994950e+02   6.0143530e+03
   9.2043160e+02   5.6140480e+03
   9.2091370e+02   5.2023280e+03
   9.2139580e+02   4.8098860e+03
   9.2187790e+02   4.4637680e+03
   9.2236000e+02   4.1681250e+03
   9.2284220e+02   3.8602080e+03
   9.2332430e+02   3.5393100e+03
   9.2380640e+02   3.2383670e+03
   9.2428850e+02   2.9949230e+03
   9.2477060e+02   2.7812620e+03
   9.2525270e+02   2.5619930e+03
   9.2573490e+02   2.3350970e+03
   9.2621700e+02   2.1212800e+03
   9.2669910e+02   1.9256850e+03
   9.2718120e+02   1.7532960e+03
   9.2766330e+02   1.6116250e+03
   9.2814540e+02   1.4970690e+03
   9.2862760e+02   1.3785550e+03
   9.2910970e+02   1.2557040e+03
   9.2959180e+02   1.1368590e+03
   9.3007390e+02   1.0223780e+03
   9.3055600e+02   9.1619260e+02
   9.3103810e+02   8.1992850e+02
   9.3152030e+02   7.3339500e+02
   9.3200240e+02   6.5359500e+02
   9.3248450e+02   5.7910820e+02
   9.3296660e+02   5.1267940e+02
   9.3344870e+02   4.5677310e+02
   9.3393080e+02   4.0638490e+02
   9.3441300e+02   3.5042830e+02
   9.3489510e+02   2.8904310e+02
   9.3537720e+02   2.3278700e+02
   9.3585930e+02   1.8321400e+02
   9.3634140e+02   1.4310170e+02
   9.3682350e+02   1.2203160e+02
   9.3730570e+02   1.0930620e+02
   9.3778780e+02   8.9141970e+01
   9.3826990e+02   5.3770020e+01
   9.3875200e+02   2.2401490e+01
   9.3923410e+02   2.6835940e+00
   9.3971620e+02   2.1886470e+01
   9.4019840e+02   3.4152590e+01
   9.4068050e+02   3.9901730e+01
   9.4116260e+02   4.2608400e+01
   9.4164470e+02   4.2087040e+01
   9.4212680e+02   4.3832520e+01
   9.4260890e+02   5.5278320e+01
   9.4309110e+02   6.9913210e+01
   9.4357320e+02   8.3143070e+01
   9.4405530e+02   9.4151730e+01
   9.4453740e+02   9.6042600e+01
   9.4501950e+02   8.0515010e+01
   9.4550160e+02   6.3742800e+01
   9.4598380e+02   4.9415650e+01
   9.4646590e+02   3.7446660e+01
   9.4694800e+02   3.2616700e+01
   9.4743010e+02   3.4443730e+01
   9.4791220e+02   2.8681270e+01
   9.4839430e+02   5.1606450e+00
   9.4887640e+02   2.5166260e+01
   9.4935850e+02   5.3322630e+01
   9.4984060e+02   7.8646730e+01
   9.5032280e+02   1.0013850e+02
   9.5080490e+02   1.1759770e+02
   9.5128700e+02   1.3230130e+02
   9.5176910e+02   1.4146390e+02
   9.5225120e+02   1.5029880e+02
   9.5273330e+02   1.6848470e+02
   9.5321550e+02   1.9542520e+02
   9.5369760e+02   2.2218530e+02
   9.5417970e+02   2.4747580e+02
   9.5466180e+02   2.6991830e+02
   9.5514390e+02   2.8881420e+02
   9.5562600e+02   3.0478000e+02
   9.5610820e+02   3.1803160e+02
   9.5659030e+02   3.2769260e+02
   9.5707240e+02   3.3804480e+02
   9.5755450e+02   3.5193680e+02
   9.5803660e+02   3.6181860e+02
   9.5851870e+02   3.6145250e+02
   9.5900090e+02   3.5274410e+02
   9.5948300e+02   3.4586550e+02
   9.5996510e+02   3.4077820e+02
   9.6044720e+02   3.3766560e+02
   9.6092930e+02   3.3322680e+02
   9.6141140e+02   3.3368700e+02
   9.6189360e+02   3.4561740e+02
   9.6237570e+02   3.6685930e+02
   9.6285780e+02   3.8672570e+02
   9.6333990e+02   4.0515380e+02
   9.6382200e+02   4.1974870e+02
   9.6430410e+02   4.2563960e+02
   9.6478630e+02   4.3377550e+02
   9.6526840e+02   4.6937110e+02
   9.6575050e+02   5.2569290e+02
   9.6623260e+02   5.7959380e+02
   9.6671470e+02   6.2217600e+02
   9.6719680e+02   6.6682580e+02
   9.6767900e+02   7.1903150e+02
   9.6816110e+02   7.7912570e+02
   9.6864320e+02   8.4817810e+02
   9.6912530e+02   9.3079910e+02
   9.6960740e+02   1.0083450e+03
   9.7008950e+02   1.0779920e+03
   9.7057170e+02   1.1521080e+03
   9.7105380e+02   1.2438180e+03
   9.7153590e+02   1.3467780e+03
   9.7201800e+02   1.4483340e+03
   9.7250010e+02   1.5485030e+03
   9.7298220e+02   1.6479840e+03
   9.7346440e+02   1.7498990e+03
   9.7394650e+02   1.8484810e+03
   9.7442860e+02   1.9362170e+03
   9.7491070e+02   2.0168800e+03
   9.7539280e+02   2.1180530e+03
   9.7587490e+02   2.2449940e+03
   9.7635710e+02   2.3452480e+03
   9.7683920e+02   2.3956490e+03
   9.7732130e+02   2.4152840e+03
   9.7780340e+02   2.4318070e+03
   9.7828550e+02   2.4393970e+03
   9.7876760e+02   2.4263990e+03
   9.7924980e+02   2.3902350e+03
   9.7973190e+02   2.3299170e+03
   9.8021400e+02   2.2411880e+03
   9.8069610e+02   2.1335080e+03
   9.8117820e+02   2.0140520e+03
   9.8166030e+02   1.8817140e+03
   9.8214250e+02   1.7484390e+03
   9.8262460e+02   1.6142520e+03
   9.8310670e+02   1.4839490e+03
   9.8358880e+02   1.3613720e+03
   9.8407090e+02   1.2431600e+03
   9.8455300e+02   1.1230080e+03
   9.8503520e+02   9.9956300e+02
   9.8551730e+02   8.9350770e+02
   9.8599940e+02   8.1376490e+02
   9.8648150e+02   7.3799040e+02
   9.8696360e+02   6.5601550e+02
   9.8744570e+02   5.7246420e+02
   9.8792790e+02   5.0612780e+02
   9.8841000e+02   4.5542300e+02
   9.8889210e+02   4.1150340e+02
   9.8937420e+02   3.7188760e+02
   9.8985630e+02   3.3547280e+02
   9.9033840e+02   3.0091240e+02
   9.9082060e+02   2.6959620e+02
   9.9130270e+02   2.4492290e+02
   9.9178480e+02   2.3090540e+02
   9.9226690e+02   2.1306140e+02
   9.9274900e+02   1.8932290e+02
   9.9323110e+02   1.6387630e+02
   9.9371330e+02   1.4207850e+02
   9.9419540e+02   1.2252470e+02
   9.9467750e+02   9.8523680e+01
   9.9515960e+02   6.8624150e+01
   9.9564170e+02   4.6799440e+01
   9.9612380e+02   5.1913210e+01
   9.9660600e+02   5.6596560e+01
   9.9708810e+02   4.2097780e+01
   9.9757020e+02   1.0143920e+01
   9.9805230e+02   7.6082760e+00
   9.9853440e+02   1.0053100e+01
   9.9901650e+02   1.1684570e+01
   9.9949870e+02   2.0313600e+01
   9.9998080e+02   3.1097660e+01
   1.0004630e+03   3.7610230e+01
   1.0009450e+03   4.1365600e+01
   1.0014270e+03   4.5162110e+01
   1.0019090e+03   5.1994140e+01
   1.0023910e+03   5.5448610e+01
   1.0028730e+03   5.1546630e+01
   1.0033560e+03   4.6325930e+01
   1.0038380e+03   4.9252810e+01
   1.0043200e+03   5.9400270e+01
   1.0048020e+03   6.5079710e+01
   1.0052840e+03   6.4830810e+01
   1.0057660e+03   6.3174680e+01
   1.0062480e+03   6.6576420e+01
   1.0067300e+03   6.8073120e+01
   1.0072130e+03   5.9580810e+01
   1.0076950e+03   3.9206180e+01
   1.0081770e+03   2.5112300e+01
   1.0086590e+03   2.0891480e+01
   1.0091410e+03   1.4131840e+01
   1.0096230e+03   2.4967040e+00
   1.0101050e+03   2.3574710e+01
   1.0105870e+03   3.4286870e+01
   1.0110690e+03   3.7963620e+01
   1.0115520e+03   4.5641720e+01
   1.0120340e+03   6.7736940e+01
   1.0125160e+03   8.8147220e+01
   1.0129980e+03   9.6319950e+01
   1.0134800e+03   1.0177100e+02
   1.0139620e+03   1.1747330e+02
   1.0144440e+03   1.4602580e+02
   1.0149260e+03   1.6766990e+02
   1.0154090e+03   1.8049680e+02
   1.0158910e+03   1.8927540e+02
   1.0163730e+03   1.9618260e+02
   1.0168550e+03   2.0312600e+02
   1.0173370e+03   2.1150820e+02
   1.0178190e+03   2.2151090e+02
   1.0183010e+03   2.3684460e+02
   1.0187830e+03   2.6456880e+02
   1.0192650e+03   2.8862170e+02
   1.0197480e+03   3.0140550e+02
   1.0202300e+03   3.0771180e+02
   1.0207120e+03   3.2540110e+02
   1.0211940e+03   3.5242260e+02
   1.0216760e+03   3.7711120e+02
   1.0221580e+03   3.9267790e+02
   1.0226400e+03   4.0817410e+02
   1.0231220e+03   4.2884130e+02
   1.0236040e+03   4.5346180e+02
   1.0240870e+03   4.7977990e+02
   1.0245690e+03   5.0573230e+02
   1.0250510e+03   5.3845850e+02
   1.0255330e+03   5.7804980e+02
   1.0260150e+03   6.2501180e+02
   1.0264970e+03   6.8358180e+02
   1.0269790e+03   7.4855380e+02
   1.0274610e+03   8.0786720e+02
   1.0279430e+03   8.6239000e+02
   1.0284260e+03   9.2275130e+02
   1.0289080e+03   9.9851120e+02
   1.0293900e+03   1.0756530e+03
   1.0298720e+03   1.1497010e+03
   1.0303540e+03   1.2213700e+03
   1.0308360e+03   1.2943700e+03
   1.0313180e+03   1.3689910e+03
   1.0318000e+03   1.4443170e+03
   1.0322830e+03   1.5187070e+03
   1.0327650e+03   1.5968810e+03
   1.0332470e+03   1.6864330e+03
   1.0337290e+03   1.7801250e+03
   1.0342110e+03   1.8710360e+03
   1.0346930e+03   1.9578110e+03
   1.0351750e+03   2.0419080e+03
   1.0356570e+03   2.1270710e+03
   1.0361400e+03   2.2012770e+03
   1.0366220e+03   2.2509380e+03
   1.0371040e+03   2.2850190e+03
   1.0375860e+03   2.3331260e+03
   1.0380680e+03   2.3907060e+03
   1.0385500e+03   2.4327840e+03
   1.0390320e+03   2.4477790e+03
   1.0395140e+03   2.4438880e+03
   1.0399960e+03   2.4163710e+03
   1.0404790e+03   2.3759800e+03
   1.0409610e+03   2.3464410e+03
   1.0414430e+03   2.3283990e+03
   1.0419250e+03   2.2893930e+03
   1.0424070e+03   2.2223500e+03
   1.0428890e+03   2.1437950e+03
   1.0433710e+03   2.0637200e+03
   1.0438530e+03   1.9861550e+03
   1.0443350e+03   1.9153310e+03
   1.0448180e+03   1.8536600e+03
   1.0453000e+03   1.7895970e+03
   1.0457820e+03   1.7168320e+03
   1.0462640e+03   1.6531120e+03
   1.0467460e+03   1.6091940e+03
   1.0472280e+03   1.5779500e+03
   1.0477100e+03   1.5416810e+03
   1.0481920e+03   1.5020890e+03
   1.0486750e+03   1.4649980e+03
   1.0491570e+03   1.4248810e+03
   1.0496390e+03   1.3972440e+03
   1.0501210e+03   1.3968460e+03
   1.0506030e+03   1.4072420e+03
   1.0510850e+03   1.4084460e+03
   1.0515670e+03   1.3987060e+03
   1.0520490e+03   1.4070720e+03
   1.0525310e+03   1.4364710e+03
   1.0530140e+03   1.4712220e+03
   1.0534960e+03   1.4936920e+03
   1.0539780e+03   1.5178010e+03
   1.0544600e+03   1.5595460e+03
   1.0549420e+03   1.6179420e+03
   1.0554240e+03   1.6688900e+03
   1.0559060e+03   1.7090310e+03
   1.0563880e+03   1.7476760e+03
   1.0568700e+03   1.7868870e+03
   1.0573530e+03   1.8261660e+03
   1.0578350e+03   1.8729630e+03
   1.0583170e+03   1.9195840e+03
   1.0587990e+03   1.9467290e+03
   1.0592810e+03   1.9454160e+03
   1.0597630e+03   1.9340960e+03
   1.0602450e+03   1.9196040e+03
   1.0607270e+03   1.8982020e+03
   1.0612100e+03   1.8676690e+03
   1.0616920e+03   1.8272080e+03
   1.0621740e+03   1.7738800e+03
   1.0626560e+03   1.7081160e+03
   1.0631380e+03   1.6452290e+03
   1.0636200e+03   1.5985590e+03
   1.0641020e+03   1.5548780e+03
   1.0645840e+03   1.4973460e+03
   1.0650670e+03   1.4359330e+03
   1.0655490e+03   1.3987170e+03
   1.0660310e+03   1.3926870e+03
   1.0665130e+03   1.3942130e+03
   1.0669950e+03   1.4022280e+03
   1.0674770e+03   1.4144400e+03
   1.0679590e+03   1.4208310e+03
   1.0684410e+03   1.4303540e+03
   1.0689230e+03   1.4612510e+03
   1.0694060e+03   1.5159400e+03
   1.0698880e+03   1.5847650e+03
   1.0703700e+03   1.6699010e+03
   1.0708520e+03   1.7609740e+03
   1.0713340e+03   1.8514620e+03
   1.0718160e+03   1.9454950e+03
   1.0722980e+03   2.0516460e+03
   1.0727800e+03   2.1712950e+03
   1.0732620e+03   2.3065220e+03
   1.0737450e+03   2.4641360e+03
   1.0742270e+03   2.6269870e+03
   1.0747090e+03   2.7855740e+03
   1.0751910e+03   2.9434060e+03
   1.0756730e+03   3.1032310e+03
   1.0761550e+03   3.2587990e+03
   1.0766370e+03   3.4430510e+03
   1.0771190e+03   3.6583140e+03
   1.0776010e+03   3.8838750e+03
   1.0780840e+03   4.1112160e+03
   1.0785660e+03   4.3388300e+03
   1.0790480e+03   4.5595250e+03
   1.0795300e+03   4.7787740e+03
   1.0800120e+03   5.0155270e+03
   1.0804940e+03   5.3059720e+03
   1.0809760e+03   5.5718840e+03
   1.0814580e+03   5.8100330e+03
   1.0819410e+03   6.0129420e+03
   1.0824230e+03   6.1826690e+03
   1.0829050e+03   6.3111920e+03
   1.0833870e+03   6.3709250e+03
   1.0838690e+03   6.3571680e+03
   1.0843510e+03   6.2682470e+03
   1.0848330e+03   6.0902970e+03
   1.0853150e+03   5.8487420e+03
   1.0857970e+03   5.5528490e+03
   1.0862800e+03   5.2068180e+03
   1.0867620e+03   4.8346240e+03
   1.0872440e+03   4.4396940e+03
   1.0877260e+03   4.0403330e+03
   1.0882080e+03   3.6324730e+03
   1.0886900e+03   3.2463570e+03
   1.0891720e+03   2.9146760e+03
   1.0896540e+03   2.6200780e+03
   1.0901360e+03   2.3401250e+03
   1.0906190e+03   2.0693740e+03
   1.0911010e+03   1.8274800e+03
   1.0915830e+03   1.6157130e+03
   1.0920650e+03   1.4314560e+03
   1.0925470e+03   1.2771580e+03
   1.0930290e+03   1.1451940e+03
   1.0935110e+03   1.0214170e+03
   1.0939930e+03   9.0738430e+02
   1.0944760e+03   8.1352840e+02
   1.0949580e+03   7.5638950e+02
   1.0954400e+03   6.9953080e+02
   1.0959220e+03   6.3502910e+02
   1.0964040e+03   5.7136040e+02
   1.0968860e+03   5.1939690e+02
   1.0973680e+03   4.7793310e+02
   1.0978500e+03   4.4107310e+02
   1.0983330e+03   4.0798970e+02
   1.0988150e+03   3.7766820e+02
   1.0992970e+03   3.5117000e+02
   1.0997790e+03   3.2703490e+02
   1.1002610e+03   3.0235370e+02
   1.1007430e+03   2.7789560e+02
   1.1012250e+03   2.6159880e+02
   1.1017070e+03   2.5421760e+02
   1.1021890e+03   2.4009910e+02
   1.1026720e+03   2.1244670e+02
   1.1031540e+03   1.8661990e+02
   1.1036360e+03   1.8050180e+02
   1.1041180e+03   1.8197490e+02
   1.1046000e+03   1.7831980e+02
   1.1050820e+03   1.6734780e+02
   1.1055640e+03   1.5379030e+02
   1.1060460e+03   1.3682870e+02
   1.1065280e+03   1.2052380e+02
   1.1070110e+03   1.0630260e+02
   1.1074930e+03   9.5654850e+01
   1.1079750e+03   9.2548400e+01
   1.1084570e+03   9.4333680e+01
   1.1089390e+03   9.5844730e+01
   1.1094210e+03   9.5896240e+01
   1.1099030e+03   9.4752260e+01
   1.1103850e+03   9.2406740e+01
   1.1108680e+03   8.8980590e+01
   1.1113500e+03   8.3193540e+01
   1.1118320e+03   7.6227660e+01
   1.1123140e+03   7.4727910e+01
   1.1127960e+03   7.8061580e+01
   1.1132780e+03   7.8270390e+01
   1.1137600e+03   6.7456600e+01
   1.1142420e+03   5.6726810e+01
   1.1147240e+03   4.9132320e+01
   1.1152070e+03   4.4957820e+01
   1.1156890e+03   4.7423280e+01
   1.1161710e+03   5.5932130e+01
   1.1166530e+03   5.4104680e+01
   1.1171350e+03   3.7847470e+01
   1.1176170e+03   2.3983520e+01
   1.1180990e+03   3.1109560e+01
   1.1185810e+03   4.2239140e+01
   1.1190630e+03   4.2101140e+01
   1.1195460e+03   3.1321960e+01
   1.1200280e+03   2.9371150e+01
   1.1205100e+03   3.7647580e+01
   1.1209920e+03   4.3945920e+01
   1.1214740e+03   4.3787110e+01
   1.1219560e+03   4.0751160e+01
   1.1224380e+03   3.8253480e+01
   1.1229200e+03   3.6101870e+01
   1.1234030e+03   3.3975710e+01
   1.1238850e+03   3.1695430e+01
   1.1243670e+03   3.0159730e+01
   1.1248490e+03   2.9720090e+01
   1.1253310e+03   2.9362060e+01
   1.1258130e+03   2.9112120e+01
   1.1262950e+03   2.7964720e+01
   1.1267770e+03   2.1546880e+01
   1.1272600e+03   1.2319150e+01
   1.1277420e+03   6.7381590e+00
   1.1282240e+03   1.0737550e+01
   1.1287060e+03   1.3517270e+01
   1.1291880e+03   1.2826110e+01
   1.1296700e+03   1.1813780e+01
   1.1301520e+03   1.5102540e+01
   1.1306340e+03   2.0904720e+01
   1.1311160e+03   2.0238340e+01
   1.1315990e+03   1.3488650e+01
   1.1320810e+03   8.0088500e+00
   1.1325630e+03   1.0590150e+01
   1.1330450e+03   1.2100950e+01
   1.1335270e+03   7.2479250e+00
   1.1340090e+03   3.3936001e-02
   1.1344910e+03   1.5091550e+00
   1.1349730e+03   2.1794430e+00
   1.1354550e+03   4.4486080e+00
   1.1359380e+03   4.2213750e+00
   1.1364200e+03   3.7440800e+00
   1.1369020e+03   6.7364500e+00
   1.1373840e+03   8.3330690e+00
   1.1378660e+03   2.5260010e+00
   1.1383480e+03   8.5689700e+00
   1.1388300e+03   1.1593140e+01
   1.1393120e+03   5.6646120e+00
   1.1397950e+03   4.9567260e+00
   1.1402770e+03   1.6461670e+01
   1.1407590e+03   2.6821840e+01
   1.1412410e+03   1.6903630e+01
   1.1417230e+03   9.7247300e-01
   1.1422050e+03   2.8159180e+00
   1.1426870e+03   1.0704220e+01
   1.1431690e+03   1.5908690e+01
   1.1436510e+03   1.0774540e+01
   1.1441340e+03   6.0026250e+00
   1.1446160e+03   7.7136230e+00
   1.1450980e+03   1.2116940e+01
   1.1455800e+03   1.4242550e+01
   1.1460620e+03   1.4631900e+01
   1.1465440e+03   1.4289250e+01
   1.1470260e+03   1.3961790e+01
   1.1475080e+03   1.1236150e+01
   1.1479900e+03   3.9863280e+00
   1.1484730e+03   5.9826700e-01
   1.1489550e+03   7.3016970e+00
   1.1494370e+03   2.0531250e+01
   1.1499190e+03   2.2920720e+01
   1.1504010e+03   1.6198490e+01
   1.1508830e+03   8.2547000e+00
   1.1513650e+03   9.9163800e-01
   1.1518470e+03   6.7459110e+00
   1.1523300e+03   7.6730960e+00
   1.1528120e+03   6.0176390e+00
   1.1532940e+03   3.7351680e+00
   1.1537760e+03   1.2674560e+00
   1.1542580e+03   2.5726300e-01
   1.1547400e+03   7.5573700e-01
   1.1552220e+03   1.5224610e+00
   1.1557040e+03   4.8638310e+00
   1.1561860e+03   4.5068970e+00
   1.1566690e+03   4.3169560e+00
   1.1571510e+03   1.5703740e+01
   1.1576330e+03   1.6571350e+01
   1.1581150e+03   8.3832400e+00
   1.1585970e+03   9.7918700e-01
   1.1590790e+03   1.0750370e+01
   1.1595610e+03   1.5736270e+01
   1.1600430e+03   4.5565190e+00
   1.1605260e+03   4.4313350e+00
   1.1610080e+03   2.7882690e+00
   1.1614900e+03   2.0942870e+01
   1.1619720e+03   2.5880310e+01
   1.1624540e+03   1.8341800e+01
   1.1629360e+03   1.0717830e+01
   1.1634180e+03   6.6896360e+00
   1.1639000e+03   3.4231570e+00
   1.1643820e+03   4.8621220e+00
   1.1648650e+03   1.0618290e+01
   1.1653470e+03   4.6971440e+00
   1.1658290e+03   1.2877990e+01
   1.1663110e+03   1.9425660e+01
   1.1667930e+03   1.4619020e+01
   1.1672750e+03   8.2993160e+00
   1.1677570e+03   3.4848630e+00
   1.1682390e+03   1.4152830e+00
   1.1687210e+03   5.5148930e+00
   1.1692040e+03   1.1867310e+01
   1.1696860e+03   1.5770630e+01
   1.1701680e+03   1.6684270e+01
   1.1706500e+03   1.6083250e+01
   1.1711320e+03   1.3377690e+01
   1.1716140e+03   1.3544980e+01
   1.1720960e+03   2.4296880e+01
   1.1725780e+03   3.5847530e+01
   1.1730610e+03   3.4617490e+01
   1.1735430e+03   2.6383610e+01
   1.1740250e+03   2.4590330e+01
   1.1745070e+03   3.4264710e+01
   1.1749890e+03   4.0232790e+01
   1.1754710e+03   4.1821470e+01
   1.1759530e+03   4.0152830e+01
   1.1764350e+03   3.3583500e+01
   1.1769170e+03   2.6146670e+01
   1.1774000e+03   2.3657960e+01
   1.1778820e+03   2.5133120e+01
   1.1783640e+03   2.5354680e+01
   1.1788460e+03   2.2122560e+01
   1.1793280e+03   2.1152650e+01
   1.1798100e+03   2.3597410e+01
   1.1802920e+03   2.6975520e+01
   1.1807740e+03   3.0214780e+01
   1.1812560e+03   3.1605530e+01
   1.1817390e+03   2.5118100e+01
   1.1822210e+03   1.1827270e+01
   1.1827030e+03   8.5800170e+00
   1.1831850e+03   2.5215580e+01
   1.1836670e+03   3.8026430e+01
   1.1841490e+03   4.1237550e+01
   1.1846310e+03   4.0331390e+01
   1.1851130e+03   4.4778380e+01
   1.1855960e+03   5.0616880e+01
   1.1860780e+03   4.9189540e+01
   1.1865600e+03   3.8742250e+01
   1.1870420e+03   3.1466860e+01
   1.1875240e+03   3.0915440e+01
   1.1880060e+03   3.2303470e+01
   1.1884880e+03   3.4504060e+01
   1.1889700e+03   3.7342190e+01
   1.1894530e+03   4.1396760e+01
   1.1899350e+03   4.5535030e+01
   1.1904170e+03   4.6832460e+01
   1.1908990e+03   4.3573700e+01
   1.1913810e+03   4.2991420e+01
   1.1918630e+03   5.0194460e+01
   1.1923450e+03   5.4569550e+01
   1.1928270e+03   5.0359040e+01
   1.1933090e+03   4.1091460e+01
   1.1937920e+03   3.3729830e+01
   1.1942740e+03   2.9674590e+01
   1.1947560e+03   3.4192170e+01
   1.1952380e+03   5.5445070e+01
   1.1957200e+03   6.7460210e+01
   1.1962020e+03   5.9386510e+01
   1.1966840e+03   4.7288120e+01
   1.1971660e+03   4.0289640e+01
   1.1976480e+03   3.6900480e+01
   1.1981310e+03   3.1641360e+01
   1.1986130e+03   2.5625460e+01
   1.1990950e+03   2.3768400e+01
   1.1995770e+03   3.2873410e+01
   1.2000590e+03   3.6937840e+01
   1.2005410e+03   2.8367370e+01
   1.2010230e+03   1.8660740e+01
   1.2015050e+03   1.7401060e+01
   1.2019880e+03   2.2947570e+01
   1.2024700e+03   2.8774320e+01
   1.2029520e+03   3.4136050e+01
   1.2034340e+03   3.6641050e+01
   1.2039160e+03   3.2684020e+01
   1.2043980e+03   2.9402340e+01
   1.2048800e+03   2.8647860e+01
   1.2053620e+03   2.8992400e+01
   1.2058440e+03   2.9459410e+01
   1.2063270e+03   2.9745330e+01
   1.2068090e+03   2.8114260e+01
   1.2072910e+03   2.4666870e+01
   1.2077730e+03   2.3453000e+01
   1.2082550e+03   2.9616880e+01
   1.2087370e+03   3.5101590e+01
   1.2092190e+03   3.8431850e+01
   1.2097010e+03   3.9108310e+01
   1.2101830e+03   3.6691590e+01
   1.2106660e+03   3.1255130e+01
   1.2111480e+03   2.2169620e+01
   1.2116300e+03   1.0198730e+01
   1.2121120e+03   2.7437740e+00
   1.2125940e+03   7.1194460e+00
   1.2130760e+03   1.1265260e+01
   1.2135580e+03   9.8527830e+00
   1.2140400e+03   8.1479490e+00
   1.2145230e+03   1.7556430e+01
   1.2150050e+03   3.3248780e+01
   1.2154870e+03   3.7531190e+01
   1.2159690e+03   2.9366820e+01
   1.2164510e+03   2.0382870e+01
   1.2169330e+03   1.2762210e+01
   1.2174150e+03   8.7796630e+00
   1.2178970e+03   9.6035770e+00
   1.2183800e+03   1.3125730e+01
   1.2188620e+03   1.6897340e+01
   1.2193440e+03   2.0894040e+01
   1.2198260e+03   2.6246770e+01
   1.2203080e+03   3.3220340e+01
   1.2207900e+03   3.6492370e+01
   1.2212720e+03   3.0610810e+01
   1.2217540e+03   2.3912930e+01
   1.2222360e+03   1.7645450e+01
   1.2227190e+03   1.3262820e+01
   1.2232010e+03   1.6411800e+01
   1.2236830e+03   2.4719390e+01
   1.2241650e+03   3.0857880e+01
   1.2246470e+03   3.3780150e+01
   1.2251290e+03   3.0909120e+01
   1.2256110e+03   9.8266910e+00
   1.2260930e+03   2.4979860e+00
   1.2265750e+03   6.7776790e+00
   1.2270580e+03   2.7044430e+01
   1.2275400e+03   3.2904270e+01
   1.2280220e+03   2.8699490e+01
   1.2285040e+03   2.5681580e+01
   1.2289860e+03   2.7048830e+01
   1.2294680e+03   2.7981080e+01
   1.2299500e+03   2.6708370e+01
   1.2304320e+03   2.4723240e+01
   1.2309150e+03   2.1869110e+01
   1.2313970e+03   1.9458590e+01
   1.2318790e+03   2.3225310e+01
   1.2323610e+03   2.9877040e+01
   1.2328430e+03   3.0183110e+01
   1.2333250e+03   2.0168120e+01
   1.2338070e+03   1.3136600e+01
   1.2342890e+03   1.2821560e+01
   1.2347710e+03   1.3803860e+01
   1.2352540e+03   1.3060970e+01
   1.2357360e+03   1.2352510e+01
   1.2362180e+03   1.7388370e+01
   1.2367000e+03   2.5324950e+01
   1.2371820e+03   2.9517460e+01
   1.2376640e+03   2.6547180e+01
   1.2381460e+03   2.4746550e+01
   1.2386280e+03   2.6365880e+01
   1.2391100e+03   2.6266420e+01
   1.2395930e+03   1.9646790e+01
   1.2400750e+03   1.0796330e+01
   1.2405570e+03   1.0481870e+01
   1.2410390e+03   1.5319090e+01
   1.2415210e+03   1.8539250e+01
   1.2420030e+03   1.7956570e+01
   1.2424850e+03   1.4775020e+01
   1.2429670e+03   7.3013000e+00
   1.2434490e+03   2.9064940e+00
   1.2439320e+03   8.2430110e+00
   1.2444140e+03   1.7567350e+01
   1.2448960e+03   2.1218720e+01
   1.2453780e+03   2.0892000e+01
   1.2458600e+03   2.0105990e+01
   1.2463420e+03   1.8624020e+01
   1.2468240e+03   1.8963070e+01
   1.2473060e+03   2.1751190e+01
   1.2477890e+03   2.3141820e+01
   1.2482710e+03   2.0564880e+01
   1.2487530e+03   1.5750890e+01
   1.2492350e+03   8.9814150e+00
   1.2497170e+03   2.5590210e+00
   1.2501990e+03   2.1611020e+00
   1.2506810e+03   1.4096160e+01
   1.2511630e+03   1.7654210e+01
   1.2516460e+03   1.1560460e+01
   1.2521280e+03   4.3671260e+00
   1.2526100e+03   8.0127000e-01
   1.2530920e+03   1.4917000e-01
   1.2535740e+03   3.5387570e+00
   1.2540560e+03   8.7893980e+00
   1.2545380e+03   1.1163910e+01
   1.2550200e+03   1.0791410e+01
   1.2555020e+03   1.1054530e+01
   1.2559840e+03   1.1911040e+01
   1.2564670e+03   1.3202120e+01
   1.2569490e+03   1.5982210e+01
   1.2574310e+03   1.8021420e+01
   1.2579130e+03   1.7337400e+01
   1.2583950e+03   1.4538020e+01
   1.2588770e+03   1.0551760e+01
   1.2593590e+03   4.8696590e+00
   1.2598410e+03   3.0012820e+00
   1.2603240e+03   5.0220340e+00
   1.2608060e+03   8.2636720e+00
   1.2612880e+03   9.9955750e+00
   1.2617700e+03   1.3288360e+01
   1.2622520e+03   2.5189760e+01
   1.2627340e+03   3.7021120e+01
   1.2632160e+03   3.4602720e+01
   1.2636980e+03   1.8359710e+01
   1.2641810e+03   1.0870670e+01
   1.2646630e+03   1.2513980e+01
   1.2651450e+03   1.5782350e+01
   1.2656270e+03   1.9373470e+01
   1.2661090e+03   1.9477750e+01
   1.2665910e+03   1.0603790e+01
   1.2670730e+03   5.9765600e-01
   1.2675550e+03   1.2575380e+00
   1.2680370e+03   3.4276730e+00
   1.2685200e+03   3.5658570e+00
   1.2690020e+03   6.1337300e-01
   1.2694840e+03   2.5842290e+00
   1.2699660e+03   4.6506650e+00
   1.2704480e+03   9.5957640e+00
   1.2709300e+03   8.5321960e+00
   1.2714120e+03   5.2278750e+00
   1.2718940e+03   3.1949770e+00
   1.2723760e+03   2.8182070e+00
   1.2728590e+03   6.4870910e+00
   1.2733410e+03   1.3545040e+01
   1.2738230e+03   1.9797940e+01
   1.2743050e+03   2.5859440e+01
   1.2747870e+03   2.7010620e+01
   1.2752690e+03   2.0466190e+01
   1.2757510e+03   1.2849820e+01
   1.2762330e+03   6.2313230e+00
   1.2767160e+03   4.1619570e+00
   1.2771980e+03   5.1066280e+00
   1.2776800e+03   7.9436340e+00
   1.2781620e+03   8.3739010e+00
   1.2786440e+03   3.3101500e+00
   1.2791260e+03   1.7150900e-01
   1.2796080e+03   3.9700000e-04
   1.2800900e+03   1.3790890e+00
   1.2805730e+03   4.2286990e+00
   1.2810550e+03   6.6501460e+00
   1.2815370e+03   6.2516480e+00
   1.2820190e+03   3.5429990e+00
   1.2825010e+03   0.0000000e+00
   1.5000000e+03   0.0000000e+00
