   1.0000000e+02   0.0000000e+00
   1.3378970e+02   0.0000000e+00
   1.3427180e+02   5.5713810e+00
   1.3475390e+02   6.3029790e+00
   1.3523600e+02   1.0878300e+00
   1.3571820e+02   1.0141910e+00
   1.3620030e+02   1.2542420e+00
   1.3668240e+02   1.0173000e+01
   1.3716450e+02   2.6706670e+01
   1.3764660e+02   4.0422580e+01
   1.3812870e+02   5.2089260e+01
   1.3861090e+02   6.0265750e+01
   1.3909300e+02   5.9724730e+01
   1.3957510e+02   4.7130190e+01
   1.4005720e+02   3.4031370e+01
   1.4053930e+02   2.7936710e+01
   1.4102140e+02   3.2332150e+01
   1.4150360e+02   3.2513520e+01
   1.4198570e+02   2.4983000e+01
   1.4246780e+02   1.1585690e+01
   1.4294990e+02   4.7966310e+00
   1.4343200e+02   7.3357850e+00
   1.4391410e+02   1.3266940e+01
   1.4439630e+02   1.7926210e+01
   1.4487840e+02   1.9882140e+01
   1.4536050e+02   2.3169740e+01
   1.4584260e+02   2.9864780e+01
   1.4632470e+02   4.0678990e+01
   1.4680680e+02   4.5894040e+01
   1.4728900e+02   3.8998840e+01
   1.4777110e+02   2.9779480e+01
   1.4825320e+02   2.9239990e+01
   1.4873530e+02   4.6426570e+01
   1.4921740e+02   6.2678340e+01
   1.4969950e+02   7.3081240e+01
   1.5018170e+02   7.4606260e+01
   1.5066380e+02   7.8735840e+01
   1.5114590e+02   8.8099850e+01
   1.5162800e+02   9.9791380e+01
   1.5211010e+02   1.0882290e+02
   1.5259220e+02   1.0899500e+02
   1.5307440e+02   1.1119310e+02
   1.5355650e+02   1.2012850e+02
   1.5403860e+02   1.4460250e+02
   1.5452070e+02   1.6247760e+02
   1.5500280e+02   1.6868260e+02
   1.5548490e+02   1.6574280e+02
   1.5596710e+02   1.6143630e+02
   1.5644920e+02   1.5298540e+02
   1.5693130e+02   1.4634890e+02
   1.5741340e+02   1.4484200e+02
   1.5789550e+02   1.5236050e+02
   1.5837770e+02   1.6173560e+02
   1.5885980e+02   1.7108940e+02
   1.5934190e+02   1.8094900e+02
   1.5982400e+02   1.9218430e+02
   1.6030610e+02   2.0843180e+02
   1.6078820e+02   2.2537340e+02
   1.6127040e+02   2.3963480e+02
   1.6175250e+02   2.4465380e+02
   1.6223460e+02   2.5151130e+02
   1.6271670e+02   2.6516390e+02
   1.6319880e+02   2.8593350e+02
   1.6368090e+02   3.0884200e+02
   1.6416310e+02   3.3069770e+02
   1.6464520e+02   3.5377270e+02
   1.6512730e+02   3.8113600e+02
   1.6560940e+02   4.1494940e+02
   1.6609150e+02   4.5329060e+02
   1.6657360e+02   4.9401000e+02
   1.6705580e+02   5.3618070e+02
   1.6753790e+02   5.7942260e+02
   1.6802000e+02   6.1929930e+02
   1.6850210e+02   6.5910000e+02
   1.6898420e+02   7.0496430e+02
   1.6946630e+02   7.7277000e+02
   1.6994850e+02   8.4206810e+02
   1.7043060e+02   8.9621340e+02
   1.7091270e+02   9.3542950e+02
   1.7139480e+02   9.5051200e+02
   1.7187690e+02   9.2661510e+02
   1.7235900e+02   8.6989830e+02
   1.7284120e+02   7.9978860e+02
   1.7332330e+02   7.2303910e+02
   1.7380540e+02   6.4199910e+02
   1.7428750e+02   5.5921980e+02
   1.7476960e+02   4.7161810e+02
   1.7525170e+02   3.8717280e+02
   1.7573390e+02   3.1205530e+02
   1.7621600e+02   2.4610400e+02
   1.7669810e+02   1.9311420e+02
   1.7718020e+02   1.6033260e+02
   1.7766230e+02   1.4172200e+02
   1.7814440e+02   1.2540420e+02
   1.7862660e+02   1.0838980e+02
   1.7910870e+02   9.1384580e+01
   1.7959080e+02   7.4752010e+01
   1.8007290e+02   5.8580990e+01
   1.8055500e+02   4.5094910e+01
   1.8103710e+02   3.7397710e+01
   1.8151930e+02   3.4360660e+01
   1.8200140e+02   3.2652710e+01
   1.8248350e+02   3.3236760e+01
   1.8296560e+02   3.3854800e+01
   1.8344770e+02   2.7274290e+01
   1.8392980e+02   1.2482240e+01
   1.8441200e+02   1.4654540e+00
   1.8489410e+02   1.9469600e+00
   1.8537620e+02   8.8408810e+00
   1.8585830e+02   1.7676450e+01
   1.8634040e+02   1.7652160e+01
   1.8682250e+02   1.0922550e+01
   1.8730470e+02   5.4639890e+00
   1.8778680e+02   1.5186160e+00
   1.8826890e+02   1.4496460e+00
   1.8875100e+02   4.1440430e+00
   1.8923310e+02   6.5517580e+00
   1.8971520e+02   8.4521480e+00
   1.9019740e+02   9.7089230e+00
   1.9067950e+02   1.0350710e+01
   1.9116160e+02   1.0469360e+01
   1.9164370e+02   1.0503360e+01
   1.9212580e+02   1.0162900e+01
   1.9260800e+02   9.7506100e+00
   1.9309010e+02   9.2111210e+00
   1.9357220e+02   8.7184450e+00
   1.9405430e+02   8.2349850e+00
   1.9453640e+02   7.8488770e+00
   1.9501850e+02   7.6065060e+00
   1.9550070e+02   7.5001220e+00
   1.9598280e+02   7.5744630e+00
   1.9646490e+02   7.9191890e+00
   1.9694700e+02   8.4827880e+00
   1.9742910e+02   9.4866330e+00
   1.9791120e+02   1.2598940e+01
   1.9839340e+02   1.8183290e+01
   1.9887550e+02   1.8117190e+01
   1.9935760e+02   9.2952880e+00
   1.9983970e+02   5.3811650e+00
   2.0032180e+02   1.4528440e+01
   2.0080390e+02   1.7148800e+01
   2.0128610e+02   1.7628050e+01
   2.0176820e+02   1.9073790e+01
   2.0225030e+02   2.1419620e+01
   2.0273240e+02   2.5380680e+01
   2.0321450e+02   3.1817810e+01
   2.0369660e+02   4.0175170e+01
   2.0417880e+02   4.6036990e+01
   2.0466090e+02   4.8519650e+01
   2.0514300e+02   5.0373660e+01
   2.0562510e+02   5.3316710e+01
   2.0610720e+02   5.6534300e+01
   2.0658930e+02   6.4617980e+01
   2.0707150e+02   7.9672180e+01
   2.0755360e+02   1.0133920e+02
   2.0803570e+02   1.2373470e+02
   2.0851780e+02   1.4857210e+02
   2.0899990e+02   1.7142690e+02
   2.0948200e+02   1.8662290e+02
   2.0996420e+02   1.9200520e+02
   2.1044630e+02   1.9668070e+02
   2.1092840e+02   2.0283220e+02
   2.1141050e+02   2.1038500e+02
   2.1189260e+02   2.1923670e+02
   2.1237470e+02   2.2879830e+02
   2.1285690e+02   2.4035970e+02
   2.1333900e+02   2.5624270e+02
   2.1382110e+02   2.7710680e+02
   2.1430320e+02   3.0015050e+02
   2.1478530e+02   3.2511570e+02
   2.1526740e+02   3.5228890e+02
   2.1574960e+02   3.7839460e+02
   2.1623170e+02   4.0387660e+02
   2.1671380e+02   4.2800590e+02
   2.1719590e+02   4.4859570e+02
   2.1767800e+02   4.6253850e+02
   2.1816010e+02   4.8001900e+02
   2.1864230e+02   5.0626010e+02
   2.1912440e+02   5.4582440e+02
   2.1960650e+02   5.7836380e+02
   2.2008860e+02   6.0329510e+02
   2.2057070e+02   6.2191890e+02
   2.2105280e+02   6.3624190e+02
   2.2153500e+02   6.4621910e+02
   2.2201710e+02   6.5246990e+02
   2.2249920e+02   6.5492520e+02
   2.2298130e+02   6.5222470e+02
   2.2346340e+02   6.4932590e+02
   2.2394550e+02   6.4693230e+02
   2.2442770e+02   6.4411790e+02
   2.2490980e+02   6.3893790e+02
   2.2539190e+02   6.3263480e+02
   2.2587400e+02   6.2192800e+02
   2.2635610e+02   6.0395510e+02
   2.2683820e+02   5.7371880e+02
   2.2732040e+02   5.4817560e+02
   2.2780250e+02   5.2755530e+02
   2.2828460e+02   5.1212690e+02
   2.2876670e+02   5.0314610e+02
   2.2924880e+02   5.0361220e+02
   2.2973100e+02   5.0641210e+02
   2.3021310e+02   5.0795110e+02
   2.3069520e+02   5.0747790e+02
   2.3117730e+02   5.0718710e+02
   2.3165940e+02   5.0631590e+02
   2.3214150e+02   5.0563510e+02
   2.3262370e+02   5.0857070e+02
   2.3310580e+02   5.1561550e+02
   2.3358790e+02   5.2562940e+02
   2.3407000e+02   5.3870400e+02
   2.3455210e+02   5.5818160e+02
   2.3503420e+02   5.7347820e+02
   2.3551640e+02   5.8225290e+02
   2.3599850e+02   5.8567180e+02
   2.3648060e+02   5.9199040e+02
   2.3696270e+02   6.0816720e+02
   2.3744480e+02   6.1838150e+02
   2.3792690e+02   6.1042900e+02
   2.3840910e+02   5.7109810e+02
   2.3889120e+02   5.4031500e+02
   2.3937330e+02   5.2506180e+02
   2.3985540e+02   5.2303100e+02
   2.4033750e+02   5.1546080e+02
   2.4081960e+02   5.0024300e+02
   2.4130180e+02   4.8192270e+02
   2.4178390e+02   4.6349990e+02
   2.4226600e+02   4.4534310e+02
   2.4274810e+02   4.2622500e+02
   2.4323020e+02   4.0611320e+02
   2.4371230e+02   3.8493850e+02
   2.4419450e+02   3.6205000e+02
   2.4467660e+02   3.3412360e+02
   2.4515870e+02   3.0833830e+02
   2.4564080e+02   2.9074390e+02
   2.4612290e+02   2.8675490e+02
   2.4660500e+02   2.7975270e+02
   2.4708720e+02   2.6724180e+02
   2.4756930e+02   2.4944660e+02
   2.4805140e+02   2.2970460e+02
   2.4853350e+02   2.0537350e+02
   2.4901560e+02   1.8206760e+02
   2.4949770e+02   1.6451020e+02
   2.4997990e+02   1.5342180e+02
   2.5046200e+02   1.4695510e+02
   2.5094410e+02   1.4714230e+02
   2.5142620e+02   1.5349650e+02
   2.5190830e+02   1.5296750e+02
   2.5239040e+02   1.4179070e+02
   2.5287260e+02   1.2816270e+02
   2.5335470e+02   1.2011850e+02
   2.5383680e+02   1.2199130e+02
   2.5431890e+02   1.1914290e+02
   2.5480100e+02   1.0562550e+02
   2.5528310e+02   8.2087710e+01
   2.5576530e+02   7.3007140e+01
   2.5624740e+02   8.7116330e+01
   2.5672950e+02   1.0486510e+02
   2.5721160e+02   1.0608690e+02
   2.5769370e+02   8.0708010e+01
   2.5817580e+02   6.3471980e+01
   2.5865800e+02   6.2754940e+01
   2.5914010e+02   7.7966130e+01
   2.5962220e+02   9.1182010e+01
   2.6010430e+02   1.0326640e+02
   2.6058640e+02   1.1199950e+02
   2.6106850e+02   1.1386300e+02
   2.6155070e+02   1.0530110e+02
   2.6203280e+02   9.9812620e+01
   2.6251490e+02   1.0088200e+02
   2.6299700e+02   1.0824770e+02
   2.6347910e+02   1.1344370e+02
   2.6396120e+02   1.1553280e+02
   2.6444340e+02   1.1697550e+02
   2.6492550e+02   1.2005530e+02
   2.6540760e+02   1.2493130e+02
   2.6588970e+02   1.3085360e+02
   2.6637180e+02   1.3745400e+02
   2.6685390e+02   1.4477150e+02
   2.6733610e+02   1.5525810e+02
   2.6781820e+02   1.7033670e+02
   2.6830030e+02   1.8588130e+02
   2.6878240e+02   1.9789090e+02
   2.6926450e+02   2.0557350e+02
   2.6974660e+02   2.1223600e+02
   2.7022880e+02   2.1719720e+02
   2.7071090e+02   2.2113840e+02
   2.7119300e+02   2.3277080e+02
   2.7167510e+02   2.5484050e+02
   2.7215720e+02   2.7975370e+02
   2.7263930e+02   2.9902750e+02
   2.7312150e+02   3.1123170e+02
   2.7360360e+02   3.2731400e+02
   2.7408570e+02   3.5029000e+02
   2.7456780e+02   3.7866660e+02
   2.7504990e+02   4.0391020e+02
   2.7553200e+02   4.2542420e+02
   2.7601420e+02   4.4622830e+02
   2.7649630e+02   4.6849870e+02
   2.7697840e+02   4.9321000e+02
   2.7746050e+02   5.2225970e+02
   2.7794260e+02   5.5755300e+02
   2.7842470e+02   5.9596590e+02
   2.7890690e+02   6.2422560e+02
   2.7938900e+02   6.3974960e+02
   2.7987110e+02   6.5553090e+02
   2.8035320e+02   6.8355200e+02
   2.8083540e+02   7.2370670e+02
   2.8131750e+02   7.6680220e+02
   2.8179960e+02   8.1305810e+02
   2.8228170e+02   8.6033060e+02
   2.8276380e+02   8.9746370e+02
   2.8324590e+02   9.2304100e+02
   2.8372810e+02   9.4613340e+02
   2.8421020e+02   9.7577400e+02
   2.8469230e+02   1.0110990e+03
   2.8517440e+02   1.0421380e+03
   2.8565650e+02   1.0645750e+03
   2.8613860e+02   1.0820060e+03
   2.8662080e+02   1.1062300e+03
   2.8710290e+02   1.1383320e+03
   2.8758500e+02   1.1685470e+03
   2.8806710e+02   1.1900210e+03
   2.8854920e+02   1.2030460e+03
   2.8903130e+02   1.2077550e+03
   2.8951350e+02   1.2028510e+03
   2.8999560e+02   1.1906610e+03
   2.9047770e+02   1.1759280e+03
   2.9095980e+02   1.1586030e+03
   2.9144190e+02   1.1391950e+03
   2.9192400e+02   1.1193580e+03
   2.9240620e+02   1.0980430e+03
   2.9288830e+02   1.0710160e+03
   2.9337040e+02   1.0357020e+03
   2.9385250e+02   9.9607870e+02
   2.9433460e+02   9.5859390e+02
   2.9481670e+02   9.2333280e+02
   2.9529890e+02   8.8673280e+02
   2.9578100e+02   8.4274270e+02
   2.9626310e+02   7.9546130e+02
   2.9674520e+02   7.5480760e+02
   2.9722730e+02   7.2433730e+02
   2.9770940e+02   6.9936980e+02
   2.9819160e+02   6.7373580e+02
   2.9867370e+02   6.4781080e+02
   2.9915580e+02   6.2248300e+02
   2.9963790e+02   5.9889420e+02
   3.0012000e+02   5.7638570e+02
   3.0060210e+02   5.5256960e+02
   3.0108430e+02   5.2586130e+02
   3.0156640e+02   5.0059610e+02
   3.0204850e+02   4.8224260e+02
   3.0253060e+02   4.6967680e+02
   3.0301270e+02   4.5924790e+02
   3.0349480e+02   4.4990260e+02
   3.0397700e+02   4.4086520e+02
   3.0445910e+02   4.3116210e+02
   3.0494120e+02   4.2104250e+02
   3.0542330e+02   4.0929440e+02
   3.0590540e+02   3.9299510e+02
   3.0638750e+02   3.7395250e+02
   3.0686970e+02   3.5675080e+02
   3.0735180e+02   3.4431380e+02
   3.0783390e+02   3.3491860e+02
   3.0831600e+02   3.2786870e+02
   3.0879810e+02   3.2403000e+02
   3.0928020e+02   3.1897970e+02
   3.0976240e+02   3.1007650e+02
   3.1024450e+02   2.9774710e+02
   3.1072660e+02   2.8294970e+02
   3.1120870e+02   2.6240010e+02
   3.1169080e+02   2.4177010e+02
   3.1217290e+02   2.2539310e+02
   3.1265510e+02   2.1402670e+02
   3.1313720e+02   2.0465610e+02
   3.1361930e+02   1.9679880e+02
   3.1410140e+02   1.8974650e+02
   3.1458350e+02   1.8249020e+02
   3.1506560e+02   1.7539940e+02
   3.1554780e+02   1.6731690e+02
   3.1602990e+02   1.5789590e+02
   3.1651200e+02   1.4723610e+02
   3.1699410e+02   1.3419060e+02
   3.1747620e+02   1.1309530e+02
   3.1795830e+02   9.1154300e+01
   3.1844050e+02   7.6721620e+01
   3.1892260e+02   7.8704770e+01
   3.1940470e+02   8.3053160e+01
   3.1988680e+02   8.5022030e+01
   3.2036890e+02   8.4209900e+01
   3.2085100e+02   8.2440670e+01
   3.2133320e+02   8.0916560e+01
   3.2181530e+02   7.8309200e+01
   3.2229740e+02   7.3344300e+01
   3.2277950e+02   6.3717900e+01
   3.2326160e+02   5.3816830e+01
   3.2374370e+02   4.3332890e+01
   3.2422590e+02   3.2212100e+01
   3.2470800e+02   2.5402770e+01
   3.2519010e+02   2.6909060e+01
   3.2567220e+02   3.1005740e+01
   3.2615430e+02   3.3409610e+01
   3.2663640e+02   3.5383850e+01
   3.2711860e+02   3.4010560e+01
   3.2760070e+02   2.7555910e+01
   3.2808280e+02   1.6515990e+01
   3.2856490e+02   6.9612430e+00
   3.2904700e+02   2.5128200e-01
   3.2952910e+02   6.6957400e+00
   3.3001130e+02   1.3579650e+01
   3.3049340e+02   2.4738950e+01
   3.3097550e+02   3.0181030e+01
   3.3145760e+02   2.7316590e+01
   3.3193970e+02   1.7988160e+01
   3.3242180e+02   9.4742430e+00
   3.3290400e+02   9.0429700e-01
   3.3338610e+02   6.8930050e+00
   3.3386820e+02   3.2575680e+00
   3.3435030e+02   1.8151490e+01
   3.3483240e+02   2.7007080e+01
   3.3531450e+02   1.6806520e+01
   3.3579670e+02   4.0177000e+00
   3.3627880e+02   1.2333680e+01
   3.3676090e+02   3.6924440e+00
   3.3724300e+02   6.3757320e+00
   3.3772510e+02   9.6477660e+00
   3.3820720e+02   4.4335940e+00
   3.3868940e+02   3.4168090e+00
   3.3917150e+02   7.8711550e+00
   3.3965360e+02   1.4924620e+01
   3.4013570e+02   2.0853450e+01
   3.4061780e+02   2.6428650e+01
   3.4109990e+02   2.6356380e+01
   3.4158210e+02   1.4783260e+01
   3.4206420e+02   7.1215210e+00
   3.4254630e+02   1.9631290e+01
   3.4302840e+02   2.1445430e+01
   3.4351050e+02   1.7552370e+01
   3.4399260e+02   1.1502440e+01
   3.4447480e+02   3.6538090e+00
   3.4495690e+02   1.5538330e+00
   3.4543900e+02   1.1767150e+01
   3.4592110e+02   2.9549740e+01
   3.4640320e+02   3.7789000e+01
   3.4688530e+02   3.5870910e+01
   3.4736750e+02   3.1660830e+01
   3.4784960e+02   3.2694210e+01
   3.4833170e+02   3.7955990e+01
   3.4881380e+02   4.3863400e+01
   3.4929590e+02   4.9585510e+01
   3.4977800e+02   5.5053590e+01
   3.5026020e+02   5.9903020e+01
   3.5074230e+02   6.4212650e+01
   3.5122440e+02   6.9316530e+01
   3.5170650e+02   7.6939820e+01
   3.5218870e+02   8.5989750e+01
   3.5267080e+02   9.4283390e+01
   3.5315290e+02   1.0089500e+02
   3.5363500e+02   1.0718040e+02
   3.5411710e+02   1.1414860e+02
   3.5459920e+02   1.2194040e+02
   3.5508140e+02   1.3086200e+02
   3.5556350e+02   1.4431990e+02
   3.5604560e+02   1.5752520e+02
   3.5652770e+02   1.6410630e+02
   3.5700980e+02   1.5935740e+02
   3.5749190e+02   1.5700560e+02
   3.5797410e+02   1.6879120e+02
   3.5845620e+02   1.8930120e+02
   3.5893830e+02   2.0743460e+02
   3.5942040e+02   2.1596130e+02
   3.5990250e+02   2.2196770e+02
   3.6038460e+02   2.2931350e+02
   3.6086680e+02   2.3826350e+02
   3.6134890e+02   2.4948200e+02
   3.6183100e+02   2.6553160e+02
   3.6231310e+02   2.8333640e+02
   3.6279520e+02   2.9876660e+02
   3.6327730e+02   3.0759070e+02
   3.6375950e+02   3.1650010e+02
   3.6424160e+02   3.2910330e+02
   3.6472370e+02   3.4637270e+02
   3.6520580e+02   3.5928600e+02
   3.6568790e+02   3.6271030e+02
   3.6617000e+02   3.6277350e+02
   3.6665220e+02   3.6482150e+02
   3.6713430e+02   3.7117020e+02
   3.6761640e+02   3.7751880e+02
   3.6809850e+02   3.8355420e+02
   3.6858060e+02   3.8925020e+02
   3.6906270e+02   3.9417600e+02
   3.6954490e+02   3.9831920e+02
   3.7002700e+02   4.0168820e+02
   3.7050910e+02   4.0441160e+02
   3.7099120e+02   4.0696560e+02
   3.7147330e+02   4.0778300e+02
   3.7195540e+02   4.0507200e+02
   3.7243760e+02   4.0067220e+02
   3.7291970e+02   4.0218090e+02
   3.7340180e+02   4.1431240e+02
   3.7388390e+02   4.2362850e+02
   3.7436600e+02   4.2242660e+02
   3.7484810e+02   4.0761580e+02
   3.7533030e+02   3.9611960e+02
   3.7581240e+02   3.8936500e+02
   3.7629450e+02   3.8469420e+02
   3.7677660e+02   3.7624850e+02
   3.7725870e+02   3.6297810e+02
   3.7774080e+02   3.5236070e+02
   3.7822300e+02   3.4899610e+02
   3.7870510e+02   3.5212660e+02
   3.7918720e+02   3.5070320e+02
   3.7966930e+02   3.4407140e+02
   3.8015140e+02   3.3549730e+02
   3.8063350e+02   3.2823540e+02
   3.8111570e+02   3.2216380e+02
   3.8159780e+02   3.1769080e+02
   3.8207990e+02   3.1576040e+02
   3.8256200e+02   3.1511790e+02
   3.8304410e+02   3.1214300e+02
   3.8352620e+02   3.0689180e+02
   3.8400840e+02   3.0294870e+02
   3.8449050e+02   3.0656810e+02
   3.8497260e+02   3.1348170e+02
   3.8545470e+02   3.1314890e+02
   3.8593680e+02   2.9855090e+02
   3.8641890e+02   2.8253470e+02
   3.8690110e+02   2.8229390e+02
   3.8738320e+02   2.9425650e+02
   3.8786530e+02   3.0428450e+02
   3.8834740e+02   3.0018370e+02
   3.8882950e+02   2.9140970e+02
   3.8931160e+02   2.8861720e+02
   3.8979380e+02   2.9528420e+02
   3.9027590e+02   3.0332700e+02
   3.9075800e+02   3.0925790e+02
   3.9124010e+02   3.1275490e+02
   3.9172220e+02   3.1358110e+02
   3.9220430e+02   3.0634380e+02
   3.9268650e+02   2.9914630e+02
   3.9316860e+02   2.9719880e+02
   3.9365070e+02   3.0171500e+02
   3.9413280e+02   3.0861250e+02
   3.9461490e+02   3.1903670e+02
   3.9509700e+02   3.2971580e+02
   3.9557920e+02   3.3814000e+02
   3.9606130e+02   3.4363100e+02
   3.9654340e+02   3.4780450e+02
   3.9702550e+02   3.4880480e+02
   3.9750760e+02   3.4668480e+02
   3.9798970e+02   3.4864620e+02
   3.9847190e+02   3.6036180e+02
   3.9895400e+02   3.7308230e+02
   3.9943610e+02   3.8259060e+02
   3.9991820e+02   3.8744950e+02
   4.0040030e+02   3.9194660e+02
   4.0088240e+02   3.9593100e+02
   4.0136460e+02   3.9890940e+02
   4.0184670e+02   3.9977470e+02
   4.0232880e+02   3.9694640e+02
   4.0281090e+02   3.9491170e+02
   4.0329300e+02   3.9632430e+02
   4.0377510e+02   4.0203060e+02
   4.0425730e+02   4.0555240e+02
   4.0473940e+02   4.0671570e+02
   4.0522150e+02   4.0601610e+02
   4.0570360e+02   4.0452310e+02
   4.0618570e+02   4.0255270e+02
   4.0666780e+02   3.9776090e+02
   4.0715000e+02   3.8891740e+02
   4.0763210e+02   3.7648560e+02
   4.0811420e+02   3.6222500e+02
   4.0859630e+02   3.4633820e+02
   4.0907840e+02   3.3190160e+02
   4.0956050e+02   3.2068680e+02
   4.1004270e+02   3.1182880e+02
   4.1052480e+02   3.0452820e+02
   4.1100690e+02   2.9961710e+02
   4.1148900e+02   2.9488910e+02
   4.1197110e+02   2.8534020e+02
   4.1245320e+02   2.7148270e+02
   4.1293540e+02   2.5827100e+02
   4.1341750e+02   2.5177610e+02
   4.1389960e+02   2.4788920e+02
   4.1438170e+02   2.3959260e+02
   4.1486380e+02   2.2483150e+02
   4.1534590e+02   2.1010600e+02
   4.1582810e+02   2.0308560e+02
   4.1631020e+02   2.0005940e+02
   4.1679230e+02   1.9389550e+02
   4.1727440e+02   1.7739160e+02
   4.1775650e+02   1.5969670e+02
   4.1823860e+02   1.4743820e+02
   4.1872080e+02   1.4102190e+02
   4.1920290e+02   1.3487030e+02
   4.1968500e+02   1.2314370e+02
   4.2016710e+02   1.1210320e+02
   4.2064920e+02   1.0741240e+02
   4.2113130e+02   1.2214000e+02
   4.2161350e+02   1.3099480e+02
   4.2209560e+02   1.2416800e+02
   4.2257770e+02   1.0490220e+02
   4.2305980e+02   9.0868900e+01
   4.2354200e+02   9.1478150e+01
   4.2402410e+02   9.2165410e+01
   4.2450620e+02   8.5458440e+01
   4.2498830e+02   6.1388730e+01
   4.2547040e+02   4.8593930e+01
   4.2595250e+02   5.3834410e+01
   4.2643470e+02   6.7328310e+01
   4.2691680e+02   7.1207520e+01
   4.2739890e+02   5.9864440e+01
   4.2788100e+02   4.9786870e+01
   4.2836310e+02   4.7304630e+01
   4.2884520e+02   5.2901370e+01
   4.2932740e+02   5.1405400e+01
   4.2980950e+02   4.0539490e+01
   4.3029160e+02   2.7482790e+01
   4.3077370e+02   1.9050720e+01
   4.3125580e+02   1.5376280e+01
   4.3173790e+02   1.4410950e+01
   4.3222010e+02   1.6454650e+01
   4.3270220e+02   2.0403810e+01
   4.3318430e+02   2.3942320e+01
   4.3366640e+02   2.7041630e+01
   4.3414850e+02   2.8617070e+01
   4.3463060e+02   2.7318300e+01
   4.3511280e+02   2.3899410e+01
   4.3559490e+02   2.0223880e+01
   4.3607700e+02   1.6337650e+01
   4.3655910e+02   1.2894170e+01
   4.3704120e+02   9.9813230e+00
   4.3752330e+02   8.0928960e+00
   4.3800550e+02   8.5410770e+00
   4.3848760e+02   1.4806150e+01
   4.3896970e+02   2.1946410e+01
   4.3945180e+02   2.5778930e+01
   4.3993390e+02   2.6201290e+01
   4.4041600e+02   2.3213010e+01
   4.4089820e+02   1.3159910e+01
   4.4138030e+02   1.3200070e+00
   4.4186240e+02   7.1995240e+00
   4.4234450e+02   1.0262940e+01
   4.4282660e+02   1.0658690e+01
   4.4330870e+02   8.1965940e+00
   4.4379090e+02   3.5882570e+00
   4.4427300e+02   7.3284900e-01
   4.4475510e+02   4.8074950e+00
   4.4523720e+02   8.0178830e+00
   4.4571930e+02   1.0040650e+01
   4.4620140e+02   1.0431400e+01
   4.4668360e+02   1.0666810e+01
   4.4716570e+02   1.1235960e+01
   4.4764780e+02   1.1465940e+01
   4.4812990e+02   1.0148500e+01
   4.4861200e+02   4.5386350e+00
   4.4909410e+02   2.1413570e+00
   4.4957630e+02   5.4732670e+00
   4.5005840e+02   1.4159790e+01
   4.5054050e+02   2.1696720e+01
   4.5102260e+02   2.9066590e+01
   4.5150470e+02   3.3268740e+01
   4.5198680e+02   3.0869020e+01
   4.5246900e+02   2.1125120e+01
   4.5295110e+02   1.2609010e+01
   4.5343320e+02   5.7485960e+00
   4.5391530e+02   1.2937620e+00
   4.5439740e+02   2.3810420e+00
   4.5487950e+02   8.7756960e+00
   4.5536170e+02   1.4071350e+01
   4.5584380e+02   1.5002630e+01
   4.5632590e+02   1.2418820e+01
   4.5680800e+02   7.3233640e+00
   4.5729010e+02   4.5123300e-01
   4.5777220e+02   6.9140630e+00
   4.5825440e+02   7.2139890e+00
   4.5873650e+02   3.5683590e+00
   4.5921860e+02   1.8981900e-01
   4.5970070e+02   9.9292000e-01
   4.6018280e+02   2.0378420e+00
   4.6066490e+02   5.3732300e+00
   4.6114710e+02   1.0305180e+01
   4.6162920e+02   1.3966370e+01
   4.6211130e+02   1.4603700e+01
   4.6259340e+02   1.3706790e+01
   4.6307550e+02   1.1911010e+01
   4.6355760e+02   8.5147710e+00
   4.6403980e+02   6.6260990e+00
   4.6452190e+02   1.0723820e+01
   4.6500400e+02   1.6033510e+01
   4.6548610e+02   1.5803470e+01
   4.6596820e+02   1.9531860e+00
   4.6645030e+02   1.2955570e+01
   4.6693250e+02   7.8867190e+00
   4.6741460e+02   1.2283080e+01
   4.6789670e+02   2.1194460e+01
   4.6837880e+02   1.3584110e+01
   4.6886090e+02   2.9548950e+00
   4.6934300e+02   2.5435790e+00
   4.6982520e+02   2.7343140e+00
   4.7030730e+02   3.3917240e+00
   4.7078940e+02   1.8951970e+01
   4.7127150e+02   3.8234990e+01
   4.7175360e+02   4.7826050e+01
   4.7223570e+02   4.6400510e+01
   4.7271790e+02   4.1258360e+01
   4.7320000e+02   3.4751650e+01
   4.7368210e+02   2.7707890e+01
   4.7416420e+02   2.3282960e+01
   4.7464630e+02   2.1465030e+01
   4.7512840e+02   2.2362240e+01
   4.7561060e+02   2.8014830e+01
   4.7609270e+02   3.6758610e+01
   4.7657480e+02   4.2820560e+01
   4.7705690e+02   4.2987610e+01
   4.7753900e+02   4.2534360e+01
   4.7802110e+02   4.9182130e+01
   4.7850330e+02   6.1023740e+01
   4.7898540e+02   7.1137820e+01
   4.7946750e+02   7.6139590e+01
   4.7994960e+02   7.7227420e+01
   4.8043170e+02   7.3679500e+01
   4.8091380e+02   6.4147340e+01
   4.8139600e+02   5.7812260e+01
   4.8187810e+02   5.9582950e+01
   4.8236020e+02   6.6591250e+01
   4.8284230e+02   7.5436520e+01
   4.8332440e+02   8.7716610e+01
   4.8380650e+02   9.9232240e+01
   4.8428870e+02   1.1025480e+02
   4.8477080e+02   1.2028820e+02
   4.8525290e+02   1.2548510e+02
   4.8573500e+02   1.2208810e+02
   4.8621710e+02   1.1757600e+02
   4.8669920e+02   1.1509840e+02
   4.8718140e+02   1.1485780e+02
   4.8766350e+02   1.1665330e+02
   4.8814560e+02   1.2264570e+02
   4.8862770e+02   1.2861070e+02
   4.8910980e+02   1.2642580e+02
   4.8959190e+02   1.1337610e+02
   4.9007410e+02   1.0556670e+02
   4.9055620e+02   1.0886630e+02
   4.9103830e+02   1.2086110e+02
   4.9152040e+02   1.3130440e+02
   4.9200260e+02   1.4034440e+02
   4.9248470e+02   1.4712450e+02
   4.9296680e+02   1.4935620e+02
   4.9344890e+02   1.4868930e+02
   4.9393100e+02   1.5133000e+02
   4.9441310e+02   1.5961090e+02
   4.9489530e+02   1.6625270e+02
   4.9537740e+02   1.5895390e+02
   4.9585950e+02   1.4327800e+02
   4.9634160e+02   1.3309360e+02
   4.9682370e+02   1.4246750e+02
   4.9730580e+02   1.5370090e+02
   4.9778800e+02   1.5004100e+02
   4.9827010e+02   1.3219680e+02
   4.9875220e+02   1.1931020e+02
   4.9923430e+02   1.2343150e+02
   4.9971640e+02   1.3379720e+02
   5.0019850e+02   1.4327370e+02
   5.0068070e+02   1.5284190e+02
   5.0116280e+02   1.5799260e+02
   5.0164490e+02   1.5508110e+02
   5.0212700e+02   1.4760750e+02
   5.0260910e+02   1.4307260e+02
   5.0309120e+02   1.4464770e+02
   5.0357340e+02   1.4522110e+02
   5.0405550e+02   1.4231860e+02
   5.0453760e+02   1.3576570e+02
   5.0501970e+02   1.3184810e+02
   5.0550180e+02   1.3228620e+02
   5.0598390e+02   1.3234970e+02
   5.0646610e+02   1.2721750e+02
   5.0694820e+02   1.1613040e+02
   5.0743030e+02   1.0739150e+02
   5.0791240e+02   1.0234430e+02
   5.0839450e+02   9.9539000e+01
   5.0887660e+02   9.6554320e+01
   5.0935880e+02   9.3437070e+01
   5.0984090e+02   9.0829830e+01
   5.1032300e+02   9.0195740e+01
   5.1080510e+02   8.9937620e+01
   5.1128720e+02   8.6082640e+01
   5.1176930e+02   7.8590940e+01
   5.1225150e+02   7.1763550e+01
   5.1273360e+02   6.9488710e+01
   5.1321570e+02   6.9562990e+01
   5.1369780e+02   6.9479430e+01
   5.1417990e+02   6.9708500e+01
   5.1466200e+02   6.7617070e+01
   5.1514420e+02   5.9188540e+01
   5.1562630e+02   4.7078860e+01
   5.1610840e+02   3.7935730e+01
   5.1659050e+02   3.4725950e+01
   5.1707260e+02   3.4253360e+01
   5.1755470e+02   3.7034240e+01
   5.1803690e+02   4.4175540e+01
   5.1851900e+02   4.5004390e+01
   5.1900110e+02   3.4379880e+01
   5.1948320e+02   2.1211180e+01
   5.1996530e+02   1.1302490e+01
   5.2044740e+02   4.6567380e+00
   5.2092960e+02   1.8895260e+00
   5.2141170e+02   4.9506840e+00
   5.2189380e+02   1.0455380e+01
   5.2237590e+02   1.0579160e+01
   5.2285800e+02   4.5430910e+00
   5.2334010e+02   2.8553470e+00
   5.2382230e+02   1.3413210e+01
   5.2430440e+02   2.4892880e+01
   5.2478650e+02   1.9921390e+01
   5.2526860e+02   3.0998540e+00
   5.2575070e+02   2.4535890e+01
   5.2623280e+02   2.4190000e+01
   5.2671500e+02   9.5249020e+00
   5.2719710e+02   2.2529300e+00
   5.2767920e+02   6.9085080e+00
   5.2816130e+02   8.4331050e+00
   5.2864340e+02   1.2063780e+01
   5.2912550e+02   1.6120910e+01
   5.2960770e+02   1.6250370e+01
   5.3008980e+02   5.0984500e+00
   5.3057190e+02   6.1121830e+00
   5.3105400e+02   9.5758670e+00
   5.3153610e+02   5.0543210e+00
   5.3201820e+02   4.0615230e+00
   5.3250040e+02   1.5445860e+01
   5.3298250e+02   2.7549870e+01
   5.3346460e+02   3.2633120e+01
   5.3394670e+02   2.4723140e+01
   5.3442880e+02   1.8089420e+01
   5.3491090e+02   1.2145080e+01
   5.3539310e+02   7.4994510e+00
   5.3587520e+02   5.1610110e+00
   5.3635730e+02   4.5984500e+00
   5.3683940e+02   8.2185060e+00
   5.3732150e+02   1.9389400e+01
   5.3780360e+02   3.5788760e+01
   5.3828580e+02   3.9524170e+01
   5.3876790e+02   2.8514220e+01
   5.3925000e+02   1.9563960e+01
   5.3973210e+02   2.9251890e+01
   5.4021420e+02   5.2432800e+01
   5.4069640e+02   6.8919860e+01
   5.4117850e+02   7.5733580e+01
   5.4166060e+02   7.8542110e+01
   5.4214270e+02   8.2040100e+01
   5.4262480e+02   8.6224610e+01
   5.4310690e+02   9.1091490e+01
   5.4358910e+02   9.7374570e+01
   5.4407120e+02   1.0373170e+02
   5.4455330e+02   1.0909610e+02
   5.4503540e+02   1.1364840e+02
   5.4551750e+02   1.1835130e+02
   5.4599960e+02   1.2213620e+02
   5.4648180e+02   1.2727440e+02
   5.4696390e+02   1.3565600e+02
   5.4744600e+02   1.4985120e+02
   5.4792810e+02   1.6094190e+02
   5.4841020e+02   1.6674190e+02
   5.4889230e+02   1.7008450e+02
   5.4937450e+02   1.7360450e+02
   5.4985660e+02   1.7661900e+02
   5.5033870e+02   1.8157710e+02
   5.5082080e+02   1.9042380e+02
   5.5130290e+02   2.0099990e+02
   5.5178500e+02   2.0467800e+02
   5.5226720e+02   2.0037890e+02
   5.5274930e+02   1.9593200e+02
   5.5323140e+02   1.9537050e+02
   5.5371350e+02   1.9821310e+02
   5.5419560e+02   2.0296880e+02
   5.5467770e+02   2.0994840e+02
   5.5515990e+02   2.1524900e+02
   5.5564200e+02   2.1221220e+02
   5.5612410e+02   2.0508470e+02
   5.5660620e+02   2.0296620e+02
   5.5708830e+02   2.1150640e+02
   5.5757040e+02   2.1949900e+02
   5.5805260e+02   2.1673510e+02
   5.5853470e+02   2.0682180e+02
   5.5901680e+02   1.9768430e+02
   5.5949890e+02   1.9393270e+02
   5.5998100e+02   1.9063460e+02
   5.6046310e+02   1.8412480e+02
   5.6094530e+02   1.7395780e+02
   5.6142740e+02   1.6924740e+02
   5.6190950e+02   1.7915880e+02
   5.6239160e+02   1.8892470e+02
   5.6287370e+02   1.8970060e+02
   5.6335580e+02   1.7529430e+02
   5.6383800e+02   1.6580770e+02
   5.6432010e+02   1.6305330e+02
   5.6480220e+02   1.6373270e+02
   5.6528430e+02   1.6321530e+02
   5.6576640e+02   1.6164760e+02
   5.6624850e+02   1.5764170e+02
   5.6673070e+02   1.4962620e+02
   5.6721280e+02   1.3953140e+02
   5.6769490e+02   1.3194350e+02
   5.6817700e+02   1.2690220e+02
   5.6865910e+02   1.2541410e+02
   5.6914120e+02   1.3388300e+02
   5.6962340e+02   1.4435370e+02
   5.7010550e+02   1.4289220e+02
   5.7058760e+02   1.2706210e+02
   5.7106970e+02   1.0930660e+02
   5.7155180e+02   9.7316280e+01
   5.7203390e+02   8.8739990e+01
   5.7251610e+02   8.1018130e+01
   5.7299820e+02   7.4747800e+01
   5.7348030e+02   6.7676640e+01
   5.7396240e+02   5.7981990e+01
   5.7444450e+02   4.6858700e+01
   5.7492660e+02   3.8138430e+01
   5.7540880e+02   2.9812810e+01
   5.7589090e+02   2.6606320e+01
   5.7637300e+02   3.2146120e+01
   5.7685510e+02   4.6960940e+01
   5.7733720e+02   5.4436830e+01
   5.7781930e+02   5.2760860e+01
   5.7830150e+02   4.7383240e+01
   5.7878360e+02   4.1234620e+01
   5.7926570e+02   3.4484070e+01
   5.7974780e+02   3.0771790e+01
   5.8022990e+02   3.1268740e+01
   5.8071200e+02   3.2409970e+01
   5.8119420e+02   2.7530090e+01
   5.8167630e+02   1.8000240e+01
   5.8215840e+02   1.0326050e+01
   5.8264050e+02   1.1031310e+01
   5.8312260e+02   1.4118840e+01
   5.8360470e+02   9.9179690e+00
   5.8408690e+02   7.2509997e-02
   5.8456900e+02   8.3496700e+00
   5.8505110e+02   1.3019040e+01
   5.8553320e+02   1.4489070e+01
   5.8601530e+02   1.2168640e+01
   5.8649740e+02   5.2826540e+00
   5.8697960e+02   7.7679400e-01
   5.8746170e+02   5.9575200e+00
   5.8794380e+02   1.0405090e+01
   5.8842590e+02   1.3396420e+01
   5.8890800e+02   1.3668880e+01
   5.8939010e+02   1.4016720e+01
   5.8987230e+02   1.5505070e+01
   5.9035440e+02   1.6567930e+01
   5.9083650e+02   1.2275330e+01
   5.9131860e+02   1.2908330e+00
   5.9180070e+02   5.9798580e+00
   5.9228280e+02   6.1118770e+00
   5.9276500e+02   3.7298600e-01
   5.9324710e+02   1.6225520e+01
   5.9372920e+02   4.1049800e+01
   5.9421130e+02   5.9181460e+01
   5.9469340e+02   5.1904170e+01
   5.9517550e+02   3.3532960e+01
   5.9565770e+02   2.6154850e+01
   5.9613980e+02   3.3951480e+01
   5.9662190e+02   4.3381770e+01
   5.9710400e+02   4.7622500e+01
   5.9758620e+02   4.7718080e+01
   5.9806830e+02   4.4966190e+01
   5.9855040e+02   3.4192140e+01
   5.9903250e+02   2.6857600e+01
   5.9951460e+02   2.6580990e+01
   5.9999680e+02   3.1808040e+01
   6.0047890e+02   3.7938230e+01
   6.0096100e+02   4.6314450e+01
   6.0144310e+02   5.3511660e+01
   6.0192520e+02   5.9186890e+01
   6.0240730e+02   6.3156250e+01
   6.0288950e+02   6.1391660e+01
   6.0337160e+02   5.2141540e+01
   6.0385370e+02   4.3259580e+01
   6.0433580e+02   4.1204220e+01
   6.0481790e+02   4.5031920e+01
   6.0530000e+02   4.8780400e+01
   6.0578220e+02   5.2014890e+01
   6.0626430e+02   5.4679200e+01
   6.0674640e+02   5.6531560e+01
   6.0722850e+02   5.7858400e+01
   6.0771060e+02   5.9471620e+01
   6.0819270e+02   6.3623840e+01
   6.0867490e+02   6.5670410e+01
   6.0915700e+02   6.1154720e+01
   6.0963910e+02   5.1881350e+01
   6.1012120e+02   4.3002320e+01
   6.1060330e+02   3.4740360e+01
   6.1108540e+02   2.8461550e+01
   6.1156760e+02   2.5355960e+01
   6.1204970e+02   2.5741940e+01
   6.1253180e+02   2.5801270e+01
   6.1301390e+02   2.6029910e+01
   6.1349600e+02   2.5321530e+01
   6.1397810e+02   2.1921450e+01
   6.1446030e+02   1.4375850e+01
   6.1494240e+02   1.2882200e+01
   6.1542450e+02   1.9183780e+01
   6.1590660e+02   2.8296020e+01
   6.1638870e+02   3.5209590e+01
   6.1687080e+02   3.9607790e+01
   6.1735300e+02   3.9321840e+01
   6.1783510e+02   3.2319700e+01
   6.1831720e+02   2.2595760e+01
   6.1879930e+02   1.3304140e+01
   6.1928140e+02   5.2006230e+00
   6.1976350e+02   4.7833300e-01
   6.2024570e+02   3.9281620e+00
   6.2072780e+02   8.1660770e+00
   6.2120990e+02   6.7241210e+00
   6.2169200e+02   4.4372600e-01
   6.2217410e+02   2.8766480e+00
   6.2265630e+02   9.5521850e+00
   6.2313840e+02   2.1865910e+01
   6.2362050e+02   2.4965580e+01
   6.2410260e+02   1.4263240e+01
   6.2458470e+02   5.8616940e+00
   6.2506680e+02   5.5090300e-01
   6.2554900e+02   4.3028560e+00
   6.2603110e+02   3.2203370e+00
   6.2651320e+02   3.4646610e+00
   6.2699530e+02   6.4703370e+00
   6.2747740e+02   2.6166990e+00
   6.2795950e+02   3.4672850e+00
   6.2844170e+02   2.6310420e+00
   6.2892380e+02   4.1555180e+00
   6.2940590e+02   1.1615600e+01
   6.2988800e+02   1.8807250e+01
   6.3037010e+02   2.4368230e+01
   6.3085220e+02   2.5128660e+01
   6.3133440e+02   2.1929380e+01
   6.3181650e+02   2.0991580e+01
   6.3229860e+02   2.7708010e+01
   6.3278070e+02   3.6090700e+01
   6.3326280e+02   4.3110780e+01
   6.3374490e+02   4.9645940e+01
   6.3422710e+02   5.0319270e+01
   6.3470920e+02   3.8410030e+01
   6.3519130e+02   2.5053710e+01
   6.3567340e+02   1.9769840e+01
   6.3615550e+02   2.5582820e+01
   6.3663760e+02   3.1121640e+01
   6.3711980e+02   3.5495850e+01
   6.3760190e+02   3.9078980e+01
   6.3808400e+02   4.3207640e+01
   6.3856610e+02   4.7765260e+01
   6.3904820e+02   4.9945070e+01
   6.3953030e+02   4.6185610e+01
   6.4001250e+02   4.1740300e+01
   6.4049460e+02   4.7530270e+01
   6.4097670e+02   6.1569270e+01
   6.4145880e+02   7.4893800e+01
   6.4194090e+02   8.2966670e+01
   6.4242300e+02   8.7263790e+01
   6.4290520e+02   8.7230530e+01
   6.4338730e+02   8.2663510e+01
   6.4386940e+02   8.1980290e+01
   6.4435150e+02   9.2177800e+01
   6.4483360e+02   1.0432180e+02
   6.4531570e+02   1.1215000e+02
   6.4579790e+02   1.1442810e+02
   6.4628000e+02   1.1510290e+02
   6.4676210e+02   1.1341030e+02
   6.4724420e+02   1.1018740e+02
   6.4772630e+02   1.0633570e+02
   6.4820840e+02   1.0164330e+02
   6.4869060e+02   9.9401000e+01
   6.4917270e+02   1.0016540e+02
   6.4965480e+02   1.0329970e+02
   6.5013690e+02   1.0992350e+02
   6.5061900e+02   1.1911780e+02
   6.5110110e+02   1.2584860e+02
   6.5158330e+02   1.2545670e+02
   6.5206540e+02   1.2255340e+02
   6.5254750e+02   1.2157180e+02
   6.5302960e+02   1.2243290e+02
   6.5351170e+02   1.2388570e+02
   6.5399380e+02   1.2679990e+02
   6.5447600e+02   1.2886530e+02
   6.5495810e+02   1.2790910e+02
   6.5544020e+02   1.2207600e+02
   6.5592230e+02   1.2025640e+02
   6.5640440e+02   1.2617600e+02
   6.5688650e+02   1.3313570e+02
   6.5736870e+02   1.3521630e+02
   6.5785080e+02   1.3050430e+02
   6.5833290e+02   1.2901560e+02
   6.5881500e+02   1.3316760e+02
   6.5929710e+02   1.3740020e+02
   6.5977920e+02   1.3013480e+02
   6.6026140e+02   1.1372240e+02
   6.6074350e+02   1.0500030e+02
   6.6122560e+02   1.1261240e+02
   6.6170770e+02   1.2489060e+02
   6.6218980e+02   1.2740950e+02
   6.6267190e+02   1.2271190e+02
   6.6315410e+02   1.1802820e+02
   6.6363620e+02   1.1514660e+02
   6.6411830e+02   1.1479350e+02
   6.6460040e+02   1.1987990e+02
   6.6508250e+02   1.2986580e+02
   6.6556460e+02   1.3410020e+02
   6.6604680e+02   1.2580920e+02
   6.6652890e+02   1.1600600e+02
   6.6701100e+02   1.0874580e+02
   6.6749310e+02   1.0417350e+02
   6.6797520e+02   1.0159200e+02
   6.6845730e+02   1.0250980e+02
   6.6893950e+02   1.0217830e+02
   6.6942160e+02   9.3355160e+01
   6.6990370e+02   7.7763850e+01
   6.7038580e+02   6.9198730e+01
   6.7086790e+02   7.0315430e+01
   6.7135000e+02   7.6571590e+01
   6.7183220e+02   8.4745610e+01
   6.7231430e+02   9.3182310e+01
   6.7279640e+02   9.9053590e+01
   6.7327850e+02   1.0074540e+02
   6.7376060e+02   1.0071730e+02
   6.7424270e+02   1.0148980e+02
   6.7472490e+02   1.0175360e+02
   6.7520700e+02   9.7404420e+01
   6.7568910e+02   7.9922790e+01
   6.7617120e+02   6.5775940e+01
   6.7665330e+02   5.8914610e+01
   6.7713540e+02   5.8985110e+01
   6.7761760e+02   6.3291020e+01
   6.7809970e+02   7.4273320e+01
   6.7858180e+02   8.2579960e+01
   6.7906390e+02   8.1945980e+01
   6.7954600e+02   7.3296390e+01
   6.8002810e+02   6.5774540e+01
   6.8051030e+02   5.9523130e+01
   6.8099240e+02   5.3077580e+01
   6.8147450e+02   4.1408200e+01
   6.8195660e+02   3.0015620e+01
   6.8243870e+02   2.9034060e+01
   6.8292080e+02   4.2158020e+01
   6.8340300e+02   5.6564210e+01
   6.8388510e+02   6.8647460e+01
   6.8436720e+02   7.6430660e+01
   6.8484930e+02   7.7663570e+01
   6.8533140e+02   6.7251950e+01
   6.8581350e+02   5.5917600e+01
   6.8629570e+02   4.1849910e+01
   6.8677780e+02   2.8554570e+01
   6.8725990e+02   2.3504390e+01
   6.8774200e+02   2.9527470e+01
   6.8822410e+02   3.3704650e+01
   6.8870620e+02   3.2417050e+01
   6.8918840e+02   2.7315490e+01
   6.8967050e+02   2.1767940e+01
   6.9015260e+02   1.6043580e+01
   6.9063470e+02   1.2804080e+01
   6.9111680e+02   1.5791140e+01
   6.9159890e+02   2.0820070e+01
   6.9208110e+02   2.3059690e+01
   6.9256320e+02   2.2742980e+01
   6.9304530e+02   2.1513550e+01
   6.9352740e+02   1.9980830e+01
   6.9400950e+02   1.7869380e+01
   6.9449160e+02   1.3933110e+01
   6.9497380e+02   6.5130620e+00
   6.9545590e+02   3.6527710e+00
   6.9593800e+02   6.2181400e+00
   6.9642010e+02   1.2945430e+01
   6.9690220e+02   2.5446470e+01
   6.9738430e+02   4.6834230e+01
   6.9786650e+02   5.3900330e+01
   6.9834860e+02   4.1670290e+01
   6.9883070e+02   2.4095150e+01
   6.9931280e+02   2.0288880e+01
   6.9979490e+02   2.7545040e+01
   7.0027700e+02   3.4669490e+01
   7.0075920e+02   3.9255980e+01
   7.0124130e+02   4.1936650e+01
   7.0172340e+02   4.3950680e+01
   7.0220550e+02   4.4199100e+01
   7.0268760e+02   4.0678220e+01
   7.0316970e+02   2.4885680e+01
   7.0365190e+02   1.2889590e+01
   7.0413400e+02   1.3786250e+01
   7.0461610e+02   2.4637760e+01
   7.0509820e+02   2.9046200e+01
   7.0558030e+02   2.2021610e+01
   7.0606240e+02   1.8275510e+01
   7.0654460e+02   2.3854740e+01
   7.0702670e+02   3.6668460e+01
   7.0750880e+02   4.2662110e+01
   7.0799090e+02   4.1245970e+01
   7.0847300e+02   3.9611570e+01
   7.0895510e+02   4.5049930e+01
   7.0943730e+02   5.3209590e+01
   7.0991940e+02   5.3924990e+01
   7.1040150e+02   4.6903080e+01
   7.1088360e+02   3.9963380e+01
   7.1136570e+02   3.8766110e+01
   7.1184780e+02   3.9707340e+01
   7.1233000e+02   3.9834720e+01
   7.1281210e+02   3.8771480e+01
   7.1329420e+02   3.6614810e+01
   7.1377630e+02   2.8598080e+01
   7.1425840e+02   2.2632200e+01
   7.1474050e+02   2.6920900e+01
   7.1522270e+02   4.7411990e+01
   7.1570480e+02   5.9717410e+01
   7.1618690e+02   6.0993290e+01
   7.1666900e+02   5.5345700e+01
   7.1715110e+02   4.5861210e+01
   7.1763320e+02   3.3632020e+01
   7.1811540e+02   2.7499510e+01
   7.1859750e+02   3.1501040e+01
   7.1907960e+02   3.9836730e+01
   7.1956170e+02   4.9091310e+01
   7.2004380e+02   5.7435550e+01
   7.2052590e+02   6.0982180e+01
   7.2100810e+02   5.3898320e+01
   7.2149020e+02   4.5807740e+01
   7.2197230e+02   4.0581050e+01
   7.2245440e+02   3.7820800e+01
   7.2293650e+02   3.4269170e+01
   7.2341860e+02   2.6911070e+01
   7.2390080e+02   2.3333130e+01
   7.2438290e+02   2.7631900e+01
   7.2486500e+02   3.8478940e+01
   7.2534710e+02   4.3688050e+01
   7.2582920e+02   4.3009160e+01
   7.2631130e+02   3.9299070e+01
   7.2679350e+02   3.3332760e+01
   7.2727560e+02   2.5974670e+01
   7.2775770e+02   1.7319820e+01
   7.2823980e+02   7.5833740e+00
   7.2872190e+02   2.6245120e+00
   7.2920400e+02   9.0509640e+00
   7.2968620e+02   2.0337040e+01
   7.3016830e+02   3.2695130e+01
   7.3065040e+02   4.7966740e+01
   7.3113250e+02   5.5045100e+01
   7.3161460e+02   4.1033020e+01
   7.3209670e+02   2.6127140e+01
   7.3257890e+02   2.6303040e+01
   7.3306100e+02   4.7947880e+01
   7.3354310e+02   6.1978520e+01
   7.3402520e+02   6.5676090e+01
   7.3450730e+02   6.4007450e+01
   7.3498940e+02   6.2789730e+01
   7.3547160e+02   6.1699100e+01
   7.3595370e+02   5.8120360e+01
   7.3643580e+02   4.9262760e+01
   7.3691790e+02   4.3447080e+01
   7.3740000e+02   5.4220580e+01
   7.3788210e+02   7.2930360e+01
   7.3836430e+02   8.4878360e+01
   7.3884640e+02   8.2510500e+01
   7.3932860e+02   7.5241940e+01
   7.3981070e+02   6.0654720e+01
   7.4029280e+02   4.3498840e+01
   7.4077490e+02   3.6465330e+01
   7.4125700e+02   4.5644290e+01
   7.4173910e+02   5.2153870e+01
   7.4222130e+02   4.9824040e+01
   7.4270340e+02   4.2364810e+01
   7.4318550e+02   4.3612180e+01
   7.4366760e+02   5.3239560e+01
   7.4414970e+02   6.2011720e+01
   7.4463180e+02   6.6278690e+01
   7.4511400e+02   6.6193660e+01
   7.4559610e+02   6.0016360e+01
   7.4607820e+02   4.8907170e+01
   7.4656030e+02   3.9124020e+01
   7.4704240e+02   3.3550840e+01
   7.4752450e+02   3.0527890e+01
   7.4800670e+02   3.0670720e+01
   7.4848880e+02   3.4516600e+01
   7.4897090e+02   3.3203860e+01
   7.4945300e+02   2.4584410e+01
   7.4993510e+02   1.3519590e+01
   7.5041720e+02   1.2694700e+00
   7.5089940e+02   1.2540830e+01
   7.5138150e+02   1.9411250e+01
   7.5186360e+02   1.8641600e+01
   7.5234570e+02   1.6288880e+01
   7.5282780e+02   1.7453190e+01
   7.5330990e+02   2.0949280e+01
   7.5379210e+02   2.5186460e+01
   7.5427420e+02   3.0359740e+01
   7.5475630e+02   3.2664430e+01
   7.5523840e+02   2.8399170e+01
   7.5572050e+02   2.0847720e+01
   7.5620260e+02   1.2364620e+01
   7.5668480e+02   5.4040500e-01
   7.5716690e+02   5.8787840e+00
   7.5764900e+02   7.5354000e-01
   7.5813110e+02   1.1309330e+01
   7.5861320e+02   1.7771480e+01
   7.5909530e+02   1.9820800e+01
   7.5957750e+02   1.9770140e+01
   7.6005960e+02   1.7960210e+01
   7.6054170e+02   1.3867550e+01
   7.6102380e+02   2.9857180e+00
   7.6150590e+02   1.0677730e+01
   7.6198800e+02   1.5591430e+01
   7.6247020e+02   4.8427730e+00
   7.6295230e+02   9.3043210e+00
   7.6343440e+02   2.1527100e+01
   7.6391650e+02   3.0586300e+01
   7.6439860e+02   3.4073850e+01
   7.6488070e+02   2.7621220e+01
   7.6536290e+02   2.0111690e+01
   7.6584500e+02   1.2338260e+01
   7.6632710e+02   4.7878420e+00
   7.6680920e+02   1.6389160e+00
   7.6729130e+02   7.0395510e+00
   7.6777340e+02   1.0625120e+01
   7.6825560e+02   1.1617920e+01
   7.6873770e+02   1.0928470e+01
   7.6921980e+02   1.0072630e+01
   7.6970190e+02   9.2359620e+00
   7.7018400e+02   9.0812990e+00
   7.7066610e+02   1.1492920e+01
   7.7114830e+02   1.3382930e+01
   7.7163040e+02   1.1307370e+01
   7.7211250e+02   6.2329100e+00
   7.7259460e+02   3.1859130e+00
   7.7307670e+02   4.5405270e+00
   7.7355880e+02   7.0228270e+00
   7.7404100e+02   9.2274170e+00
   7.7452310e+02   1.1431880e+01
   7.7500520e+02   1.6520870e+01
   7.7548730e+02   2.4552000e+01
   7.7596940e+02   3.4889770e+01
   7.7645150e+02   5.0691530e+01
   7.7693370e+02   6.8530150e+01
   7.7741580e+02   7.6103150e+01
   7.7789790e+02   7.4132810e+01
   7.7838000e+02   7.1498170e+01
   7.7886210e+02   7.1493160e+01
   7.7934420e+02   7.5184450e+01
   7.7982640e+02   8.5868160e+01
   7.8030850e+02   1.0447570e+02
   7.8079060e+02   1.1764400e+02
   7.8127270e+02   1.1584960e+02
   7.8175480e+02   1.1422220e+02
   7.8223690e+02   1.2032190e+02
   7.8271910e+02   1.3504200e+02
   7.8320120e+02   1.4941850e+02
   7.8368330e+02   1.6324990e+02
   7.8416540e+02   1.7675810e+02
   7.8464750e+02   1.8906120e+02
   7.8512960e+02   2.0136520e+02
   7.8561180e+02   2.1760490e+02
   7.8609390e+02   2.3825720e+02
   7.8657600e+02   2.5864900e+02
   7.8705810e+02   2.7379820e+02
   7.8754020e+02   2.8840160e+02
   7.8802230e+02   3.0536350e+02
   7.8850450e+02   3.2257530e+02
   7.8898660e+02   3.4940430e+02
   7.8946870e+02   3.9473620e+02
   7.8995080e+02   4.4168520e+02
   7.9043290e+02   4.7574290e+02
   7.9091500e+02   4.9487570e+02
   7.9139720e+02   5.1796460e+02
   7.9187930e+02   5.4590060e+02
   7.9236140e+02   5.7949110e+02
   7.9284350e+02   6.2376100e+02
   7.9332560e+02   6.7432400e+02
   7.9380770e+02   7.2084280e+02
   7.9428990e+02   7.6108650e+02
   7.9477200e+02   8.0022160e+02
   7.9525410e+02   8.3270200e+02
   7.9573620e+02   8.7106910e+02
   7.9621830e+02   9.2890770e+02
   7.9670040e+02   1.0217280e+03
   7.9718260e+02   1.1173460e+03
   7.9766470e+02   1.2158810e+03
   7.9814680e+02   1.3163510e+03
   7.9862890e+02   1.4127290e+03
   7.9911100e+02   1.5049020e+03
   7.9959310e+02   1.6053680e+03
   8.0007530e+02   1.7164590e+03
   8.0055740e+02   1.8383800e+03
   8.0103950e+02   1.9757250e+03
   8.0152160e+02   2.1232920e+03
   8.0200370e+02   2.2734480e+03
   8.0248580e+02   2.4191450e+03
   8.0296800e+02   2.5698450e+03
   8.0345010e+02   2.7307850e+03
   8.0393220e+02   2.8989820e+03
   8.0441430e+02   3.0694050e+03
   8.0489640e+02   3.2328820e+03
   8.0537850e+02   3.4148350e+03
   8.0586070e+02   3.6231350e+03
   8.0634280e+02   3.8437120e+03
   8.0682490e+02   4.0623120e+03
   8.0730700e+02   4.2776210e+03
   8.0778910e+02   4.4690140e+03
   8.0827120e+02   4.6246880e+03
   8.0875340e+02   4.7668120e+03
   8.0923550e+02   4.9293590e+03
   8.0971760e+02   5.0985010e+03
   8.1019970e+02   5.2445070e+03
   8.1068180e+02   5.3495320e+03
   8.1116390e+02   5.4394150e+03
   8.1164610e+02   5.5298280e+03
   8.1212820e+02   5.6076200e+03
   8.1261030e+02   5.6473700e+03
   8.1309240e+02   5.6456660e+03
   8.1357450e+02   5.6176480e+03
   8.1405660e+02   5.5647610e+03
   8.1453880e+02   5.4899040e+03
   8.1502090e+02   5.3954970e+03
   8.1550300e+02   5.2815750e+03
   8.1598510e+02   5.1531900e+03
   8.1646720e+02   5.0021600e+03
   8.1694930e+02   4.8500230e+03
   8.1743150e+02   4.7221360e+03
   8.1791360e+02   4.6079140e+03
   8.1839570e+02   4.4839280e+03
   8.1887780e+02   4.3258550e+03
   8.1935990e+02   4.1793090e+03
   8.1984200e+02   4.0492340e+03
   8.2032420e+02   3.9368300e+03
   8.2080630e+02   3.8499200e+03
   8.2128840e+02   3.7921300e+03
   8.2177050e+02   3.7389670e+03
   8.2225260e+02   3.6823180e+03
   8.2273470e+02   3.6287390e+03
   8.2321690e+02   3.5911570e+03
   8.2369900e+02   3.5651910e+03
   8.2418110e+02   3.5371430e+03
   8.2466320e+02   3.4915250e+03
   8.2514530e+02   3.4513660e+03
   8.2562740e+02   3.4229240e+03
   8.2610960e+02   3.4083420e+03
   8.2659170e+02   3.4147510e+03
   8.2707380e+02   3.4571290e+03
   8.2755590e+02   3.4928490e+03
   8.2803800e+02   3.5086330e+03
   8.2852010e+02   3.5159500e+03
   8.2900230e+02   3.5470080e+03
   8.2948440e+02   3.5999720e+03
   8.2996650e+02   3.6540330e+03
   8.3044860e+02   3.7018850e+03
   8.3093070e+02   3.7458360e+03
   8.3141280e+02   3.7826280e+03
   8.3189500e+02   3.8166720e+03
   8.3237710e+02   3.8593150e+03
   8.3285920e+02   3.9347180e+03
   8.3334130e+02   3.9964540e+03
   8.3382340e+02   4.0143090e+03
   8.3430550e+02   4.0113250e+03
   8.3478770e+02   4.0446590e+03
   8.3526980e+02   4.1295460e+03
   8.3575190e+02   4.1955530e+03
   8.3623400e+02   4.2180300e+03
   8.3671610e+02   4.2187500e+03
   8.3719820e+02   4.2483990e+03
   8.3768040e+02   4.2976820e+03
   8.3816250e+02   4.3315250e+03
   8.3864460e+02   4.3307080e+03
   8.3912670e+02   4.3135400e+03
   8.3960880e+02   4.2892110e+03
   8.4009090e+02   4.2574380e+03
   8.4057310e+02   4.2185100e+03
   8.4105520e+02   4.1747350e+03
   8.4153730e+02   4.1188490e+03
   8.4201940e+02   4.0426440e+03
   8.4250150e+02   3.9582960e+03
   8.4298360e+02   3.8982070e+03
   8.4346580e+02   3.8621330e+03
   8.4394790e+02   3.8229230e+03
   8.4443000e+02   3.7811570e+03
   8.4491210e+02   3.7176560e+03
   8.4539420e+02   3.5938800e+03
   8.4587630e+02   3.4307770e+03
   8.4635850e+02   3.2729330e+03
   8.4684060e+02   3.1300270e+03
   8.4732270e+02   3.0033900e+03
   8.4780480e+02   2.9034840e+03
   8.4828690e+02   2.8179860e+03
   8.4876900e+02   2.7224660e+03
   8.4925120e+02   2.6154290e+03
   8.4973330e+02   2.5058230e+03
   8.5021540e+02   2.3935330e+03
   8.5069750e+02   2.2829100e+03
   8.5117960e+02   2.1818830e+03
   8.5166170e+02   2.0893210e+03
   8.5214390e+02   2.0003240e+03
   8.5262600e+02   1.9123910e+03
   8.5310810e+02   1.8277640e+03
   8.5359020e+02   1.7512780e+03
   8.5407230e+02   1.6779380e+03
   8.5455440e+02   1.6003660e+03
   8.5503660e+02   1.5037800e+03
   8.5551870e+02   1.4223410e+03
   8.5600080e+02   1.3629630e+03
   8.5648290e+02   1.3155470e+03
   8.5696500e+02   1.2636630e+03
   8.5744710e+02   1.2082380e+03
   8.5792930e+02   1.1595350e+03
   8.5841140e+02   1.1221820e+03
   8.5889350e+02   1.0850210e+03
   8.5937560e+02   1.0310410e+03
   8.5985770e+02   9.7030490e+02
   8.6033980e+02   9.1781880e+02
   8.6082200e+02   8.8749490e+02
   8.6130410e+02   8.5191410e+02
   8.6178620e+02   7.9499460e+02
   8.6226830e+02   7.3579530e+02
   8.6275040e+02   6.9618570e+02
   8.6323250e+02   6.8277340e+02
   8.6371470e+02   6.5553390e+02
   8.6419680e+02   6.0689830e+02
   8.6467890e+02   5.5593840e+02
   8.6516100e+02   5.3103760e+02
   8.6564310e+02   5.2069170e+02
   8.6612520e+02   4.9699110e+02
   8.6660740e+02   4.4866320e+02
   8.6708950e+02   4.0581070e+02
   8.6757160e+02   3.8853930e+02
   8.6805370e+02   3.8143530e+02
   8.6853580e+02   3.6949210e+02
   8.6901790e+02   3.5315720e+02
   8.6950010e+02   3.2680600e+02
   8.6998220e+02   2.8431630e+02
   8.7046430e+02   2.4435080e+02
   8.7094640e+02   2.3308300e+02
   8.7142850e+02   2.4286170e+02
   8.7191060e+02   2.3669090e+02
   8.7239280e+02   2.0954940e+02
   8.7287490e+02   1.8177970e+02
   8.7335700e+02   1.7376510e+02
   8.7383910e+02   1.7054590e+02
   8.7432120e+02   1.5601530e+02
   8.7480330e+02   1.2193910e+02
   8.7528550e+02   1.0052940e+02
   8.7576760e+02   1.0115910e+02
   8.7624970e+02   1.0550830e+02
   8.7673180e+02   1.0247250e+02
   8.7721390e+02   9.1984620e+01
   8.7769600e+02   7.7111940e+01
   8.7817820e+02   5.7368770e+01
   8.7866030e+02   4.1042600e+01
   8.7914240e+02   3.7740600e+01
   8.7962450e+02   3.9612060e+01
   8.8010670e+02   3.7111450e+01
   8.8058880e+02   2.9520260e+01
   8.8107090e+02   2.2934810e+01
   8.8155300e+02   1.7744870e+01
   8.8203520e+02   1.5952270e+01
   8.8251730e+02   2.0592040e+01
   8.8299940e+02   3.1237300e+01
   8.8348150e+02   3.0204960e+01
   8.8396360e+02   1.5794560e+01
   8.8444570e+02   2.0697020e+00
   8.8492790e+02   2.6989750e+00
   8.8541000e+02   1.0382080e+00
   8.8589210e+02   5.9916990e+00
   8.8637420e+02   1.6402340e+01
   8.8685630e+02   2.0415410e+01
   8.8733840e+02   7.8494870e+00
   8.8782060e+02   6.9790040e+00
   8.8830270e+02   1.9940310e+01
   8.8878480e+02   2.9847900e+01
   8.8926690e+02   3.0675660e+01
   8.8974900e+02   1.9231080e+01
   8.9023110e+02   9.2977290e+00
   8.9071330e+02   5.7814940e+00
   8.9119540e+02   6.6943360e+00
   8.9167750e+02   9.0129390e+00
   8.9215960e+02   1.2089110e+01
   8.9264170e+02   1.3655640e+01
   8.9312380e+02   1.3267820e+01
   8.9360600e+02   1.0328250e+01
   8.9408810e+02   1.1712650e+00
   8.9457020e+02   1.0923220e+01
   8.9505230e+02   1.6489010e+01
   8.9553440e+02   9.8112790e+00
   8.9601650e+02   7.2556150e+00
   8.9649870e+02   1.3789310e+01
   8.9698080e+02   2.3498170e+01
   8.9746290e+02   2.3052000e+01
   8.9794500e+02   1.4652950e+01
   8.9842710e+02   9.5191650e+00
   8.9890920e+02   1.0777590e+01
   8.9939140e+02   1.7123540e+01
   8.9987350e+02   3.2920040e+01
   9.0035560e+02   5.0703120e+01
   9.0083770e+02   6.0257930e+01
   9.0131980e+02   5.2687740e+01
   9.0180190e+02   4.5575440e+01
   9.0228410e+02   3.6699220e+01
   9.0276620e+02   3.1683350e+01
   9.0324830e+02   4.0837890e+01
   9.0373040e+02   6.2172850e+01
   9.0421250e+02   7.2939450e+01
   9.0469460e+02   6.9030760e+01
   9.0517680e+02   6.3754520e+01
   9.0565890e+02   7.0001460e+01
   9.0614100e+02   8.0370240e+01
   9.0662310e+02   8.6736690e+01
   9.0710520e+02   8.7182370e+01
   9.0758730e+02   8.9666990e+01
   9.0806950e+02   9.6529170e+01
   9.0855160e+02   1.0311580e+02
   9.0903370e+02   1.0589220e+02
   9.0951580e+02   1.0499480e+02
   9.0999790e+02   1.0626450e+02
   9.1048000e+02   1.1000010e+02
   9.1096220e+02   1.1328020e+02
   9.1144430e+02   1.1085270e+02
   9.1192640e+02   1.1032740e+02
   9.1240850e+02   1.2110190e+02
   9.1289060e+02   1.4186100e+02
   9.1337270e+02   1.6049410e+02
   9.1385490e+02   1.7512590e+02
   9.1433700e+02   1.8571700e+02
   9.1481910e+02   1.9029910e+02
   9.1530120e+02   1.8992700e+02
   9.1578330e+02   1.9203820e+02
   9.1626540e+02   1.9701440e+02
   9.1674760e+02   2.0265090e+02
   9.1722970e+02   2.0801920e+02
   9.1771180e+02   2.1429770e+02
   9.1819390e+02   2.2357240e+02
   9.1867600e+02   2.3426260e+02
   9.1915810e+02   2.4302810e+02
   9.1964030e+02   2.4796480e+02
   9.2012240e+02   2.5151710e+02
   9.2060450e+02   2.5397620e+02
   9.2108660e+02   2.5565210e+02
   9.2156870e+02   2.5779650e+02
   9.2205080e+02   2.6089480e+02
   9.2253300e+02   2.5949080e+02
   9.2301510e+02   2.5145310e+02
   9.2349720e+02   2.4139660e+02
   9.2397930e+02   2.3332800e+02
   9.2446140e+02   2.2771470e+02
   9.2494350e+02   2.2547110e+02
   9.2542570e+02   2.2886820e+02
   9.2590780e+02   2.3123560e+02
   9.2638990e+02   2.3080240e+02
   9.2687200e+02   2.2857480e+02
   9.2735410e+02   2.2494670e+02
   9.2783620e+02   2.1930860e+02
   9.2831840e+02   2.1610460e+02
   9.2880050e+02   2.1577550e+02
   9.2928260e+02   2.1561720e+02
   9.2976470e+02   2.1626830e+02
   9.3024680e+02   2.1377370e+02
   9.3072890e+02   1.9869870e+02
   9.3121110e+02   1.6983850e+02
   9.3169320e+02   1.4820560e+02
   9.3217530e+02   1.4898630e+02
   9.3265740e+02   1.5150310e+02
   9.3313950e+02   1.4454060e+02
   9.3362160e+02   1.2900600e+02
   9.3410380e+02   1.1943900e+02
   9.3458590e+02   1.1629370e+02
   9.3506800e+02   1.1583040e+02
   9.3555010e+02   1.1797560e+02
   9.3603220e+02   1.2029210e+02
   9.3651430e+02   1.2085100e+02
   9.3699650e+02   1.1866110e+02
   9.3747860e+02   1.1022800e+02
   9.3796070e+02   8.5085450e+01
   9.3844280e+02   6.4570920e+01
   9.3892490e+02   5.5122560e+01
   9.3940700e+02   5.4076900e+01
   9.3988920e+02   5.6547360e+01
   9.4037130e+02   6.3322270e+01
   9.4085340e+02   6.7804200e+01
   9.4133550e+02   6.8899170e+01
   9.4181760e+02   6.5787110e+01
   9.4229970e+02   5.4152470e+01
   9.4278190e+02   3.8609620e+01
   9.4326400e+02   2.6772340e+01
   9.4374610e+02   1.9975220e+01
   9.4422820e+02   1.8710940e+01
   9.4471030e+02   2.8748780e+01
   9.4519240e+02   4.0108150e+01
   9.4567460e+02   4.3640380e+01
   9.4615670e+02   3.8356810e+01
   9.4663880e+02   3.5042970e+01
   9.4712090e+02   3.4539670e+01
   9.4760300e+02   3.4795650e+01
   9.4808510e+02   3.4703610e+01
   9.4856730e+02   3.3112430e+01
   9.4904940e+02   2.7726440e+01
   9.4953150e+02   1.8343510e+01
   9.5001360e+02   1.0518550e+01
   9.5049570e+02   7.9510500e+00
   9.5097780e+02   5.1671140e+00
   9.5146000e+02   1.0036620e+00
   9.5194210e+02   9.4753420e+00
   9.5242420e+02   1.0057620e+01
   9.5290630e+02   2.7502440e+00
   9.5338840e+02   2.8104250e+00
   9.5387050e+02   1.8845210e+00
   9.5435270e+02   8.0886230e+00
   9.5483480e+02   3.3538820e+00
   9.5531690e+02   7.6282960e+00
   9.5579900e+02   1.2679200e+01
   9.5628110e+02   2.8663330e+00
   9.5676320e+02   6.6323240e+00
   9.5724540e+02   1.4229740e+01
   9.5772750e+02   1.9299070e+01
   9.5820960e+02   1.9867070e+01
   9.5869170e+02   1.6425290e+01
   9.5917380e+02   1.2972410e+01
   9.5965590e+02   1.0092650e+01
   9.6013810e+02   7.5845950e+00
   9.6062020e+02   7.3281250e+00
   9.6110230e+02   7.0987550e+00
   9.6158440e+02   3.0311280e+00
   9.6206650e+02   8.8419190e+00
   9.6254860e+02   1.6704830e+01
   9.6303080e+02   2.0192990e+01
   9.6351290e+02   1.8617430e+01
   9.6399500e+02   9.4318850e+00
   9.6447710e+02   5.7539060e+00
   9.6495920e+02   1.4473750e+01
   9.6544130e+02   1.6822880e+01
   9.6592350e+02   1.4197880e+01
   9.6640560e+02   2.7443850e+00
   9.6688770e+02   9.2308350e+00
   9.6736980e+02   1.7883300e+01
   9.6785190e+02   2.2264530e+01
   9.6833400e+02   1.6530400e+01
   9.6881620e+02   8.3234860e+00
   9.6929830e+02   2.2620850e+01
   9.6978040e+02   1.4194270e+01
   9.7026250e+02   5.3573000e+00
   9.7074460e+02   8.4998780e+00
   9.7122670e+02   6.2243700e-01
   9.7170890e+02   7.3972170e+00
   9.7219100e+02   6.5520630e+00
   9.7267310e+02   1.7023930e+00
   9.7315520e+02   1.0906490e+01
   9.7363730e+02   2.3221250e+01
   9.7411940e+02   2.4018070e+01
   9.7460160e+02   7.0737920e+00
   9.7508370e+02   2.6297610e+00
   9.7556580e+02   3.0457760e+00
   9.7604790e+02   6.5222200e-01
   9.7653000e+02   4.0288700e+00
   9.7701210e+02   7.4588620e+00
   9.7749430e+02   1.1800900e+01
   9.7797640e+02   1.7125430e+01
   9.7845850e+02   2.2684080e+01
   9.7894060e+02   3.0320800e+01
   9.7942270e+02   3.5828000e+01
   9.7990480e+02   3.5698910e+01
   9.8038700e+02   3.0825260e+01
   9.8086910e+02   3.0814150e+01
   9.8135120e+02   3.6190920e+01
   9.8183330e+02   4.1784240e+01
   9.8231540e+02   4.6554750e+01
   9.8279750e+02   4.8790890e+01
   9.8327970e+02   4.5243040e+01
   9.8376180e+02   3.7228520e+01
   9.8424390e+02   2.7823970e+01
   9.8472600e+02   1.2215820e+01
   9.8520810e+02   3.5612790e+00
   9.8569020e+02   7.8552250e+00
   9.8617240e+02   1.6188840e+01
   9.8665450e+02   1.3848020e+01
   9.8713660e+02   1.4385990e+00
   9.8761870e+02   4.1943400e-01
   9.8810080e+02   1.2255740e+01
   9.8858290e+02   2.6291440e+01
   9.8906510e+02   2.7128540e+01
   9.8954720e+02   2.4383540e+01
   9.9002930e+02   2.9545350e+01
   9.9051140e+02   4.6653690e+01
   9.9099350e+02   5.4987370e+01
   9.9147560e+02   4.9013610e+01
   9.9195780e+02   4.2333190e+01
   9.9243990e+02   4.2597410e+01
   9.9292200e+02   4.7644470e+01
   9.9340410e+02   4.6351620e+01
   9.9388620e+02   4.0256590e+01
   9.9436830e+02   3.8506100e+01
   9.9485050e+02   5.5527590e+01
   9.9533260e+02   6.8564580e+01
   9.9581470e+02   5.7442810e+01
   9.9629680e+02   3.3592770e+01
   9.9677890e+02   2.5999510e+01
   9.9726100e+02   4.2494630e+01
   9.9774320e+02   5.1571410e+01
   9.9822530e+02   4.6810000e+01
   9.9870740e+02   3.8338680e+01
   9.9918950e+02   3.9467830e+01
   9.9967160e+02   4.6799800e+01
   1.0001540e+03   5.3913570e+01
   1.0006360e+03   5.9958500e+01
   1.0011180e+03   6.4236390e+01
   1.0016000e+03   6.7350160e+01
   1.0020820e+03   6.7513670e+01
   1.0025640e+03   6.2799500e+01
   1.0030460e+03   5.3143010e+01
   1.0035290e+03   4.7825320e+01
   1.0040110e+03   4.6996700e+01
   1.0044930e+03   4.6396970e+01
   1.0049750e+03   4.0981140e+01
   1.0054570e+03   3.6207580e+01
   1.0059390e+03   3.8675540e+01
   1.0064210e+03   4.6902530e+01
   1.0069030e+03   5.6436160e+01
   1.0073850e+03   7.4715520e+01
   1.0078680e+03   8.1275150e+01
   1.0083500e+03   6.8435550e+01
   1.0088320e+03   4.8656620e+01
   1.0093140e+03   4.3280700e+01
   1.0097960e+03   4.9614320e+01
   1.0102780e+03   5.5558900e+01
   1.0107600e+03   5.9621340e+01
   1.0112420e+03   6.0735600e+01
   1.0117250e+03   5.5418150e+01
   1.0122070e+03   4.7867430e+01
   1.0126890e+03   4.1899230e+01
   1.0131710e+03   3.7770690e+01
   1.0136530e+03   3.7645200e+01
   1.0141350e+03   4.2913390e+01
   1.0146170e+03   4.5930110e+01
   1.0150990e+03   3.9931460e+01
   1.0155810e+03   3.0245120e+01
   1.0160640e+03   3.0525630e+01
   1.0165460e+03   3.7683900e+01
   1.0170280e+03   4.0188720e+01
   1.0175100e+03   2.2581790e+01
   1.0179920e+03   1.2405090e+01
   1.0184740e+03   2.5875850e+01
   1.0189560e+03   4.6326900e+01
   1.0194380e+03   4.3858460e+01
   1.0199210e+03   1.7655880e+01
   1.0204030e+03   7.8344120e+00
   1.0208850e+03   2.2612300e+01
   1.0213670e+03   4.1460210e+01
   1.0218490e+03   4.3697140e+01
   1.0223310e+03   3.8604490e+01
   1.0228130e+03   3.7035890e+01
   1.0232950e+03   4.1531430e+01
   1.0237780e+03   4.6435360e+01
   1.0242600e+03   5.5263120e+01
   1.0247420e+03   5.8064030e+01
   1.0252240e+03   4.5651000e+01
   1.0257060e+03   2.4384090e+01
   1.0261880e+03   1.5058110e+01
   1.0266700e+03   1.5176940e+01
   1.0271520e+03   1.9142330e+01
   1.0276340e+03   3.0904050e+01
   1.0281170e+03   4.1853030e+01
   1.0285990e+03   4.8989690e+01
   1.0290810e+03   4.9990170e+01
   1.0295630e+03   3.9898190e+01
   1.0300450e+03   1.4374150e+01
   1.0305270e+03   6.3657230e+00
   1.0310090e+03   2.2178590e+01
   1.0314910e+03   4.1663880e+01
   1.0319740e+03   4.0475460e+01
   1.0324560e+03   3.0194700e+01
   1.0329380e+03   2.6803830e+01
   1.0334200e+03   3.2932800e+01
   1.0339020e+03   3.9830690e+01
   1.0343840e+03   4.7805360e+01
   1.0348660e+03   5.2670350e+01
   1.0353480e+03   5.2007320e+01
   1.0358300e+03   4.7380490e+01
   1.0363130e+03   4.4585630e+01
   1.0367950e+03   4.3226990e+01
   1.0372770e+03   4.0642210e+01
   1.0377590e+03   3.3983460e+01
   1.0382410e+03   2.8486020e+01
   1.0387230e+03   2.6992430e+01
   1.0392050e+03   2.9213380e+01
   1.0396870e+03   3.5376590e+01
   1.0401690e+03   4.9065980e+01
   1.0406520e+03   5.3885500e+01
   1.0411340e+03   4.7480530e+01
   1.0416160e+03   4.0382930e+01
   1.0420980e+03   4.5069460e+01
   1.0425800e+03   5.3648740e+01
   1.0430620e+03   5.2690920e+01
   1.0435440e+03   4.3011230e+01
   1.0440260e+03   3.5841000e+01
   1.0445090e+03   3.7716610e+01
   1.0449910e+03   3.7988590e+01
   1.0454730e+03   3.2669310e+01
   1.0459550e+03   2.5882140e+01
   1.0464370e+03   2.8733700e+01
   1.0469190e+03   3.9327700e+01
   1.0474010e+03   4.6075200e+01
   1.0478830e+03   4.5196040e+01
   1.0483650e+03   4.1778200e+01
   1.0488480e+03   3.7983460e+01
   1.0493300e+03   3.4231510e+01
   1.0498120e+03   3.0718440e+01
   1.0502940e+03   2.6849550e+01
   1.0507760e+03   2.6402590e+01
   1.0512580e+03   2.9901250e+01
   1.0517400e+03   3.4333920e+01
   1.0522220e+03   3.8843140e+01
   1.0527040e+03   4.2373960e+01
   1.0531870e+03   4.2520570e+01
   1.0536690e+03   3.9820620e+01
   1.0541510e+03   3.6275820e+01
   1.0546330e+03   2.9515010e+01
   1.0551150e+03   2.7202330e+01
   1.0555970e+03   3.2827090e+01
   1.0560790e+03   4.0980160e+01
   1.0565610e+03   4.2998230e+01
   1.0570440e+03   3.9354060e+01
   1.0575260e+03   3.1643010e+01
   1.0580080e+03   1.9256160e+01
   1.0584900e+03   9.4594120e+00
   1.0589720e+03   7.9993900e+00
   1.0594540e+03   1.1134030e+01
   1.0599360e+03   1.7207520e+01
   1.0604180e+03   2.6143740e+01
   1.0609010e+03   3.1949650e+01
   1.0613830e+03   3.4725590e+01
   1.0618650e+03   3.4149290e+01
   1.0623470e+03   2.8136230e+01
   1.0628290e+03   2.1352480e+01
   1.0633110e+03   2.2168460e+01
   1.0637930e+03   2.8071660e+01
   1.0642750e+03   3.3459900e+01
   1.0647570e+03   3.6707400e+01
   1.0652400e+03   3.8881230e+01
   1.0657220e+03   4.0204160e+01
   1.0662040e+03   4.0448060e+01
   1.0666860e+03   3.8152530e+01
   1.0671680e+03   3.4168700e+01
   1.0676500e+03   3.5576970e+01
   1.0681320e+03   4.2350400e+01
   1.0686140e+03   4.5953550e+01
   1.0690960e+03   3.6955570e+01
   1.0695790e+03   2.7005740e+01
   1.0700610e+03   2.2664490e+01
   1.0705430e+03   2.3287600e+01
   1.0710250e+03   2.8276610e+01
   1.0715070e+03   3.9674560e+01
   1.0719890e+03   3.9738100e+01
   1.0724710e+03   1.9691470e+01
   1.0729530e+03   2.8216600e-01
   1.0734360e+03   1.0482300e+01
   1.0739180e+03   3.3318120e+01
   1.0744000e+03   4.2088870e+01
   1.0748820e+03   2.5969670e+01
   1.0753640e+03   1.7179500e+01
   1.0758460e+03   1.9829160e+01
   1.0763280e+03   2.7483520e+01
   1.0768100e+03   3.9377620e+01
   1.0772920e+03   5.1791990e+01
   1.0777750e+03   5.0387760e+01
   1.0782570e+03   3.8321900e+01
   1.0787390e+03   2.8938050e+01
   1.0792210e+03   3.1249880e+01
   1.0797030e+03   3.3247680e+01
   1.0801850e+03   3.1588930e+01
   1.0806670e+03   2.6575260e+01
   1.0811490e+03   1.5511780e+01
   1.0816310e+03   2.2330930e+00
   1.0821140e+03   7.5753170e+00
   1.0825960e+03   1.3187260e+00
   1.0830780e+03   1.5505800e+01
   1.0835600e+03   3.5515380e+01
   1.0840420e+03   5.0663940e+01
   1.0845240e+03   4.7251650e+01
   1.0850060e+03   2.6737430e+01
   1.0854880e+03   1.8242370e+01
   1.0859710e+03   2.6733090e+01
   1.0864530e+03   3.2871460e+01
   1.0869350e+03   2.9954590e+01
   1.0874170e+03   2.4870910e+01
   1.0878990e+03   3.1786740e+01
   1.0883810e+03   4.3444760e+01
   1.0888630e+03   4.5496890e+01
   1.0893450e+03   2.9442380e+01
   1.0898280e+03   1.9624270e+01
   1.0903100e+03   2.4824890e+01
   1.0907920e+03   3.2548770e+01
   1.0912740e+03   3.6074220e+01
   1.0917560e+03   3.5945310e+01
   1.0922380e+03   3.4330320e+01
   1.0927200e+03   3.1525390e+01
   1.0932020e+03   2.9355590e+01
   1.0936840e+03   2.9386600e+01
   1.0941670e+03   2.9648680e+01
   1.0946490e+03   3.1129030e+01
   1.0951310e+03   3.1160580e+01
   1.0956130e+03   2.4412290e+01
   1.0960950e+03   8.9845580e+00
   1.0965770e+03   3.4093630e+00
   1.0970590e+03   9.9470210e+00
   1.0975410e+03   1.7987490e+01
   1.0980240e+03   1.8222290e+01
   1.0985060e+03   1.5076660e+01
   1.0989880e+03   1.0999510e+01
   1.0994700e+03   6.8620000e+00
   1.0999520e+03   9.0899660e+00
   1.1004340e+03   2.2538510e+01
   1.1009160e+03   2.9502500e+01
   1.1013980e+03   2.3343260e+01
   1.1018800e+03   1.3149600e+01
   1.1023630e+03   1.6405520e+01
   1.1028450e+03   2.6317750e+01
   1.1033270e+03   2.9213750e+01
   1.1038090e+03   1.9933900e+01
   1.1042910e+03   1.2972660e+01
   1.1047730e+03   1.3256350e+01
   1.1052550e+03   1.5161320e+01
   1.1057370e+03   1.6018130e+01
   1.1062190e+03   1.6168820e+01
   1.1067020e+03   1.8448670e+01
   1.1071840e+03   2.1987000e+01
   1.1076660e+03   2.2032350e+01
   1.1081480e+03   1.3235410e+01
   1.1086300e+03   4.3036500e+00
   1.1091120e+03   3.2467650e+00
   1.1095940e+03   6.9880980e+00
   1.1100760e+03   2.8115840e+00
   1.1105590e+03   1.0784060e+01
   1.1110410e+03   1.6924380e+01
   1.1115230e+03   1.4544740e+01
   1.1120050e+03   1.2617130e+01
   1.1124870e+03   2.3270940e+01
   1.1129690e+03   3.3307920e+01
   1.1134510e+03   2.8144710e+01
   1.1139330e+03   1.1242310e+01
   1.1144160e+03   1.3193360e+00
   1.1148980e+03   2.9034400e-01
   1.1153800e+03   4.3097530e+00
   1.1158620e+03   1.6529360e+01
   1.1163440e+03   2.9154910e+01
   1.1168260e+03   3.4048890e+01
   1.1173080e+03   3.2169310e+01
   1.1177900e+03   2.1857540e+01
   1.1182720e+03   1.1155400e+00
   1.1187550e+03   9.8279420e+00
   1.1192370e+03   3.3430180e+00
   1.1197190e+03   6.3217770e+00
   1.1202010e+03   1.5640010e+01
   1.1206830e+03   2.2767210e+01
   1.1211650e+03   1.9407170e+01
   1.1216470e+03   9.8646850e+00
   1.1221290e+03   8.0340580e+00
   1.1226110e+03   2.5206850e+01
   1.1230940e+03   3.6530640e+01
   1.1235760e+03   2.6178710e+01
   1.1240580e+03   1.2386050e+01
   1.1245400e+03   7.4316410e+00
   1.1250220e+03   1.0983460e+01
   1.1255040e+03   1.9044680e+01
   1.1259860e+03   3.0970030e+01
   1.1264680e+03   3.9549190e+01
   1.1269510e+03   3.9507930e+01
   1.1274330e+03   3.5844600e+01
   1.1279150e+03   2.7942320e+01
   1.1283970e+03   1.9802120e+01
   1.1288790e+03   1.8586490e+01
   1.1293610e+03   2.5352970e+01
   1.1298430e+03   3.3585510e+01
   1.1303250e+03   4.3282960e+01
   1.1308070e+03   4.8237850e+01
   1.1312900e+03   3.6950440e+01
   1.1317720e+03   2.2896000e+01
   1.1322540e+03   1.9599430e+01
   1.1327360e+03   2.6715150e+01
   1.1332180e+03   3.4032960e+01
   1.1337000e+03   4.2161130e+01
   1.1341820e+03   4.7119870e+01
   1.1346640e+03   4.8191530e+01
   1.1351460e+03   4.5429140e+01
   1.1356290e+03   3.4867370e+01
   1.1361110e+03   2.2366700e+01
   1.1365930e+03   1.7101870e+01
   1.1370750e+03   2.1539790e+01
   1.1375570e+03   2.7897950e+01
   1.1380390e+03   3.8072880e+01
   1.1385210e+03   4.3977360e+01
   1.1390030e+03   4.0118960e+01
   1.1394860e+03   3.1609990e+01
   1.1399680e+03   3.4005130e+01
   1.1404500e+03   4.2258670e+01
   1.1409320e+03   4.0737300e+01
   1.1414140e+03   1.1783450e+01
   1.1418960e+03   1.9476930e+00
   1.1423780e+03   2.4400270e+01
   1.1428600e+03   5.3883910e+01
   1.1433430e+03   5.8347350e+01
   1.1438250e+03   4.1406250e+01
   1.1443070e+03   3.2529540e+01
   1.1447890e+03   3.0672850e+01
   1.1452710e+03   2.9471010e+01
   1.1457530e+03   2.5231990e+01
   1.1462350e+03   2.2276250e+01
   1.1467170e+03   2.3387150e+01
   1.1471990e+03   2.6416260e+01
   1.1476820e+03   2.9374630e+01
   1.1481640e+03   3.1925350e+01
   1.1486460e+03   3.1954830e+01
   1.1491280e+03   2.9668700e+01
   1.1496100e+03   2.8654300e+01
   1.1500920e+03   3.6995790e+01
   1.1505740e+03   4.2439760e+01
   1.1510560e+03   3.0654850e+01
   1.1515380e+03   9.0616460e+00
   1.1520210e+03   4.3297730e+00
   1.1525030e+03   1.9221010e+01
   1.1529850e+03   2.9197080e+01
   1.1534670e+03   2.8813720e+01
   1.1539490e+03   2.6706050e+01
   1.1544310e+03   3.4279600e+01
   1.1549130e+03   4.3147830e+01
   1.1553950e+03   4.3624630e+01
   1.1558780e+03   3.4164980e+01
   1.1563600e+03   3.0486390e+01
   1.1568420e+03   3.4303960e+01
   1.1573240e+03   3.6893310e+01
   1.1578060e+03   3.4660100e+01
   1.1582880e+03   3.1117680e+01
   1.1587700e+03   3.1715640e+01
   1.1592520e+03   3.4011720e+01
   1.1597340e+03   3.4719540e+01
   1.1602170e+03   3.3758670e+01
   1.1606990e+03   2.8096920e+01
   1.1611810e+03   1.5274230e+01
   1.1616630e+03   5.0158690e+00
   1.1621450e+03   3.3812870e+00
   1.1626270e+03   6.2907710e+00
   1.1631090e+03   8.7458500e+00
   1.1635910e+03   1.1836730e+01
   1.1640730e+03   1.7792850e+01
   1.1645560e+03   3.3113400e+01
   1.1650380e+03   4.1438480e+01
   1.1655200e+03   3.9250920e+01
   1.1660020e+03   3.4460080e+01
   1.1664840e+03   3.5575560e+01
   1.1669660e+03   3.9162780e+01
   1.1674480e+03   3.1794430e+01
   1.1679300e+03   1.6479550e+01
   1.1684130e+03   7.8816530e+00
   1.1688950e+03   1.8775760e+01
   1.1693770e+03   2.7562070e+01
   1.1698590e+03   2.8991880e+01
   1.1703410e+03   2.7511960e+01
   1.1708230e+03   2.9137820e+01
   1.1713050e+03   3.2463500e+01
   1.1717870e+03   3.1020690e+01
   1.1722700e+03   2.4438480e+01
   1.1727520e+03   1.7149540e+01
   1.1732340e+03   9.6895750e+00
   1.1737160e+03   4.1770630e+00
   1.1741980e+03   4.9963400e-01
   1.1746800e+03   4.0148900e-01
   1.1751620e+03   5.2557980e+00
   1.1756440e+03   1.5897580e+01
   1.1761260e+03   2.3390810e+01
   1.1766090e+03   2.6118840e+01
   1.1770910e+03   2.6236270e+01
   1.1775730e+03   2.2024900e+01
   1.1780550e+03   1.7592220e+01
   1.1785370e+03   1.6851990e+01
   1.1790190e+03   1.8859440e+01
   1.1795010e+03   1.7167600e+01
   1.1799830e+03   1.2344730e+01
   1.1804650e+03   1.0736270e+01
   1.1809480e+03   1.4795720e+01
   1.1814300e+03   2.0340030e+01
   1.1819120e+03   2.6459660e+01
   1.1823940e+03   3.1222290e+01
   1.1828760e+03   3.2912290e+01
   1.1833580e+03   3.1318360e+01
   1.1838400e+03   2.7258790e+01
   1.1843220e+03   2.0928220e+01
   1.1848050e+03   1.7923950e+01
   1.1852870e+03   2.3514100e+01
   1.1857690e+03   2.6948430e+01
   1.1862510e+03   1.6155580e+01
   1.1867330e+03   1.8307500e+00
   1.1872150e+03   8.1494100e-01
   1.1876970e+03   1.0557190e+01
   1.1881790e+03   1.9663570e+01
   1.1886610e+03   2.5332640e+01
   1.1891440e+03   2.8016540e+01
   1.1896260e+03   2.4938290e+01
   1.1901080e+03   2.1075990e+01
   1.1905900e+03   2.1907840e+01
   1.1910720e+03   2.4782350e+01
   1.1915540e+03   2.7929750e+01
   1.1920360e+03   3.2143370e+01
   1.1925180e+03   3.1166200e+01
   1.1930000e+03   2.4106020e+01
   1.1934830e+03   1.8612730e+01
   1.1939650e+03   2.3530150e+01
   1.1944470e+03   3.0412410e+01
   1.1949290e+03   3.1112430e+01
   1.1954110e+03   2.7486390e+01
   1.1958930e+03   2.5363650e+01
   1.1963750e+03   2.5394780e+01
   1.1968570e+03   2.5517460e+01
   1.1973400e+03   2.5720460e+01
   1.1978220e+03   2.4033570e+01
   1.1983040e+03   1.6062260e+01
   1.1987860e+03   7.0919190e+00
   1.1992680e+03   3.8588870e+00
   1.1997500e+03   5.8866580e+00
   1.2002320e+03   6.1702880e+00
   1.2007140e+03   4.3038330e+00
   1.2011970e+03   1.4064940e+00
   1.2016790e+03   3.1276860e+00
   1.2021610e+03   4.5850220e+00
   1.2026430e+03   8.4431150e+00
   1.2031250e+03   2.3357850e+01
   1.2036070e+03   2.4564030e+01
   1.2040890e+03   1.0664180e+01
   1.2045710e+03   5.4174800e-01
   1.2050530e+03   5.7724000e+00
   1.2055360e+03   6.0910030e+00
   1.2060180e+03   2.0264890e+00
   1.2065000e+03   1.0916750e+01
   1.2069820e+03   7.5091550e+00
   1.2074640e+03   9.4213900e-01
   1.2079460e+03   4.6229250e+00
   1.2084280e+03   2.2510860e+01
   1.2089100e+03   2.9726810e+01
   1.2093920e+03   2.4098020e+01
   1.2098750e+03   1.5613770e+01
   1.2103570e+03   6.1062010e+00
   1.2108390e+03   3.9538600e-01
   1.2113210e+03   3.1455080e+00
   1.2118030e+03   1.2380130e+01
   1.2122850e+03   2.2070070e+01
   1.2127670e+03   3.2384770e+01
   1.2132490e+03   3.7368650e+01
   1.2137320e+03   3.6028320e+01
   1.2142140e+03   3.3921630e+01
   1.2146960e+03   3.4723880e+01
   1.2151780e+03   3.5163700e+01
   1.2156600e+03   2.7593990e+01
   1.2161420e+03   1.7541870e+01
   1.2166240e+03   1.5113400e+01
   1.2171060e+03   2.8252930e+01
   1.2175890e+03   3.1532100e+01
   1.2180710e+03   2.3515500e+01
   1.2185530e+03   1.2545530e+01
   1.2190350e+03   1.3056640e+00
   1.2195170e+03   1.0615840e+01
   1.2199990e+03   7.3046900e-01
   1.2204810e+03   2.2224000e+01
   1.2209630e+03   3.1766720e+01
   1.2214450e+03   1.9663700e+01
   1.2219270e+03   1.0878660e+01
   1.2224100e+03   5.0015870e+00
   1.2228920e+03   6.1092530e+00
   1.2233740e+03   2.5622070e+01
   1.2238560e+03   4.7413210e+01
   1.2243380e+03   5.2383670e+01
   1.2248200e+03   4.3443480e+01
   1.2253020e+03   2.7416380e+01
   1.2257840e+03   1.9431150e+00
   1.2262670e+03   1.5625240e+01
   1.2267490e+03   1.0035160e+01
   1.2272310e+03   7.5012200e-01
   1.2277130e+03   5.9038090e+00
   1.2281950e+03   8.2761230e+00
   1.2286770e+03   9.2174070e+00
   1.2291590e+03   9.9849850e+00
   1.2296410e+03   1.5355220e+01
   1.2301240e+03   2.8118160e+01
   1.2306060e+03   3.5453490e+01
   1.2310880e+03   3.5785400e+01
   1.2315700e+03   3.1809690e+01
   1.2320520e+03   2.0645260e+01
   1.2325340e+03   1.0802980e+01
   1.2330160e+03   1.6185910e+01
   1.2334980e+03   3.2064330e+01
   1.2339800e+03   2.9795040e+01
   1.2344630e+03   2.4436040e+00
   1.2349450e+03   1.0556150e+01
   1.2354270e+03   1.4460450e+00
   1.2359090e+03   1.3125610e+01
   1.2363910e+03   1.9089720e+01
   1.2368730e+03   2.0081910e+01
   1.2373550e+03   1.7878420e+01
   1.2378370e+03   1.3285770e+01
   1.2383200e+03   1.0736820e+01
   1.2388020e+03   1.0655520e+01
   1.2392840e+03   9.0167240e+00
   1.2397660e+03   4.2685550e+00
   1.2402480e+03   1.6708980e+00
   1.2407300e+03   1.2322140e+01
   1.2412120e+03   2.2680540e+01
   1.2416940e+03   1.6687620e+01
   1.2421770e+03   2.3765870e+00
   1.2426590e+03   8.8100590e+00
   1.2431410e+03   1.8430180e+00
   1.2436230e+03   7.3902590e+00
   1.2441050e+03   8.6220700e+00
   1.2445870e+03   1.7580930e+01
   1.2450690e+03   1.9882200e+01
   1.2455510e+03   4.1511230e+00
   1.2460330e+03   6.7268070e+00
   1.2465160e+03   3.9525150e+00
   1.2469980e+03   5.4736300e-01
   1.2474800e+03   1.6188960e+01
   1.2479620e+03   3.2047120e+00
   1.2484440e+03   1.2055790e+01
   1.2489260e+03   1.3472410e+01
   1.2494080e+03   2.1241820e+01
   1.2498900e+03   1.5205810e+01
   1.2503720e+03   1.3401250e+01
   1.2508550e+03   2.5286010e+01
   1.2513370e+03   2.9370850e+01
   1.2518190e+03   2.1468260e+01
   1.2523010e+03   2.9218630e+01
   1.2527830e+03   8.1807860e+00
   1.2532650e+03   1.2611940e+01
   1.2537470e+03   2.7690310e+01
   1.2542290e+03   1.9727050e+01
   1.2547120e+03   2.7036250e+01
   1.2551940e+03   2.9157470e+01
   1.2556760e+03   4.6164550e+00
   1.2561580e+03   2.6454220e+01
   1.2566400e+03   2.8295900e+01
   1.2571220e+03   9.2485350e+00
   1.2576040e+03   2.9194460e+01
   1.2580860e+03   1.3415410e+01
   1.2585680e+03   2.7304570e+01
   1.2590510e+03   3.3911500e+01
   1.2595330e+03   3.6528690e+01
   1.2600150e+03   3.6768550e+01
   1.2604970e+03   3.5315060e+01
   1.2609790e+03   3.3118290e+01
   1.2614610e+03   2.8515260e+01
   1.2619430e+03   2.5634890e+01
   1.2624250e+03   2.1844970e+01
   1.2629070e+03   2.0756840e+01
   1.2633900e+03   2.8261600e+01
   1.2638720e+03   4.0155520e+01
   1.2643540e+03   3.8748540e+01
   1.2648360e+03   2.6447270e+01
   1.2653180e+03   2.1337400e+01
   1.2658000e+03   3.5764160e+01
   1.2662820e+03   4.4765260e+01
   1.2667640e+03   4.6187620e+01
   1.2672470e+03   4.2635130e+01
   1.2677290e+03   3.2754150e+01
   1.2682110e+03   2.0488280e+01
   1.2686930e+03   1.3623050e+01
   1.2691750e+03   9.3487550e+00
   1.2696570e+03   1.0797610e+01
   1.2701390e+03   2.1456300e+01
   1.2706210e+03   3.0146850e+01
   1.2711040e+03   3.7215700e+01
   1.2715860e+03   4.0346070e+01
   1.2720680e+03   3.6096070e+01
   1.2725500e+03   2.9130000e+01
   1.2730320e+03   2.0826420e+01
   1.2735140e+03   1.3891480e+01
   1.2739960e+03   9.3594970e+00
   1.2744780e+03   8.7255900e-01
   1.2749600e+03   5.2736820e+00
   1.2754430e+03   3.0671390e+01
   1.2759250e+03   4.7969480e+01
   1.2764070e+03   2.7132080e+01
   1.2768890e+03   1.3666990e+00
   1.2773710e+03   1.0572020e+01
   1.2778530e+03   3.7028200e+01
   1.2783350e+03   4.7352780e+01
   1.2788170e+03   3.8563480e+01
   1.2792990e+03   2.9472050e+01
   1.2797820e+03   1.9648190e+01
   1.2802640e+03   1.3073120e+01
   1.2807460e+03   1.3974000e+01
   1.2812280e+03   1.6359380e+01
   1.2817100e+03   1.5749510e+01
   1.2821920e+03   1.3926270e+01
   1.2826740e+03   1.3312500e+01
   1.2831560e+03   1.3863530e+01
   1.2836390e+03   1.9156490e+01
   1.2841210e+03   2.8143680e+01
   1.2846030e+03   3.1481690e+01
   1.2850850e+03   1.3878300e+01
   1.2855670e+03   1.5415040e+00
   1.2860490e+03   8.8488770e+00
   1.2865310e+03   2.3991820e+01
   1.2870130e+03   3.8962520e+01
   1.2874950e+03   5.2115840e+01
   1.2879780e+03   5.1054570e+01
   1.2884600e+03   3.7509030e+01
   1.2889420e+03   2.3561520e+01
   1.2894240e+03   1.4257320e+01
   1.2899060e+03   1.2073490e+01
   1.2903880e+03   1.8965700e+01
   1.2908700e+03   2.7833740e+01
   1.2913520e+03   2.9895750e+01
   1.2918340e+03   2.6300170e+01
   1.2923170e+03   1.7365600e+01
   1.2927990e+03   5.3112790e+00
   1.2932810e+03   1.4732670e+00
   1.2937630e+03   1.2139890e+00
   1.2942450e+03   9.2412110e+00
   1.2947270e+03   2.5237550e+01
   1.2952090e+03   3.7266720e+01
   1.2956910e+03   2.7729490e+01
   1.2961740e+03   1.0528080e+01
   1.2966560e+03   5.9956050e+00
   1.2971380e+03   1.1024900e+01
   1.2976200e+03   1.2650880e+01
   1.2981020e+03   7.8887940e+00
   1.2985840e+03   5.8892820e+00
   1.2990660e+03   8.4211430e+00
   1.2995480e+03   1.0842040e+01
   1.3000310e+03   8.8327640e+00
   1.3005130e+03   5.7205810e+00
   1.3009950e+03   4.6904300e+00
   1.3014770e+03   4.8541260e+00
   1.3019590e+03   3.8782960e+00
   1.3024410e+03   1.8856200e+00
   1.3029230e+03   0.0000000e+00
   1.5000000e+03   0.0000000e+00
