   1.0000000e+02   0.0000000e+00
   1.8052870e+02   0.0000000e+00
   1.8101080e+02   8.3740003e-02
   1.8149290e+02   3.7447880e+01
   1.8197500e+02   9.8370000e+01
   1.8245720e+02   1.1586470e+02
   1.8293930e+02   8.3609380e+01
   1.8342140e+02   4.0994750e+01
   1.8390350e+02   4.1450560e+01
   1.8438560e+02   6.6175170e+01
   1.8486770e+02   8.3728390e+01
   1.8534990e+02   7.2933110e+01
   1.8583200e+02   4.2987180e+01
   1.8631410e+02   1.9382690e+01
   1.8679620e+02   2.6860350e+00
   1.8727830e+02   6.1950680e+00
   1.8776040e+02   2.0313720e+00
   1.8824260e+02   1.3917970e+01
   1.8872470e+02   2.8249270e+01
   1.8920680e+02   3.2628540e+01
   1.8968890e+02   2.8504880e+01
   1.9017100e+02   2.1999760e+01
   1.9065310e+02   1.1939580e+01
   1.9113530e+02   2.2556150e+00
   1.9161740e+02   2.7927250e+00
   1.9209950e+02   1.3787110e+01
   1.9258160e+02   2.4552610e+01
   1.9306370e+02   2.5848390e+01
   1.9354580e+02   1.8717900e+01
   1.9402800e+02   1.4935180e+01
   1.9451010e+02   1.6719970e+01
   1.9499220e+02   2.2677860e+01
   1.9547430e+02   3.0401980e+01
   1.9595640e+02   4.0662230e+01
   1.9643850e+02   4.8756100e+01
   1.9692070e+02   5.0523560e+01
   1.9740280e+02   4.5996340e+01
   1.9788490e+02   3.8898680e+01
   1.9836700e+02   2.8192260e+01
   1.9884910e+02   1.5557370e+01
   1.9933120e+02   7.8757320e+00
   1.9981340e+02   4.7812500e+00
   2.0029550e+02   7.7434080e+00
   2.0077760e+02   2.1193360e+01
   2.0125970e+02   4.6945070e+01
   2.0174180e+02   6.8814450e+01
   2.0222390e+02   7.8876100e+01
   2.0270610e+02   7.8885130e+01
   2.0318820e+02   9.4761600e+01
   2.0367030e+02   1.3241740e+02
   2.0415240e+02   1.7301540e+02
   2.0463450e+02   1.9024010e+02
   2.0511660e+02   1.7948560e+02
   2.0559880e+02   1.7009310e+02
   2.0608090e+02   1.7230970e+02
   2.0656300e+02   1.8670970e+02
   2.0704510e+02   1.9660440e+02
   2.0752720e+02   1.9814730e+02
   2.0800930e+02   2.0067290e+02
   2.0849150e+02   2.2417240e+02
   2.0897360e+02   2.7880420e+02
   2.0945570e+02   3.1955000e+02
   2.0993780e+02   3.1921670e+02
   2.1041990e+02   2.6579140e+02
   2.1090200e+02   2.5366160e+02
   2.1138420e+02   2.9982710e+02
   2.1186630e+02   3.7294090e+02
   2.1234840e+02   4.0919640e+02
   2.1283050e+02   3.9584380e+02
   2.1331260e+02   3.8150870e+02
   2.1379470e+02   3.8968410e+02
   2.1427690e+02   4.3094530e+02
   2.1475900e+02   4.5918480e+02
   2.1524110e+02   4.6710420e+02
   2.1572320e+02   4.6341140e+02
   2.1620530e+02   4.6560130e+02
   2.1668740e+02   4.7390210e+02
   2.1716960e+02   4.8754130e+02
   2.1765170e+02   5.0996950e+02
   2.1813380e+02   5.4783870e+02
   2.1861590e+02   5.6946070e+02
   2.1909800e+02   5.6826610e+02
   2.1958010e+02   5.5039550e+02
   2.2006230e+02   5.4188920e+02
   2.2054440e+02   5.4664670e+02
   2.2102650e+02   5.5172200e+02
   2.2150860e+02   5.5468090e+02
   2.2199070e+02   5.4151930e+02
   2.2247280e+02   5.4926830e+02
   2.2295500e+02   5.9157350e+02
   2.2343710e+02   6.4642760e+02
   2.2391920e+02   6.7746510e+02
   2.2440130e+02   6.7429390e+02
   2.2488340e+02   6.5328910e+02
   2.2536550e+02   6.3039220e+02
   2.2584770e+02   6.1456350e+02
   2.2632980e+02   5.9837550e+02
   2.2681190e+02   5.8051290e+02
   2.2729400e+02   5.5976730e+02
   2.2777610e+02   5.2888280e+02
   2.2825820e+02   4.7903800e+02
   2.2874040e+02   4.3174850e+02
   2.2922250e+02   4.0649510e+02
   2.2970460e+02   4.1823600e+02
   2.3018670e+02   4.1977100e+02
   2.3066880e+02   4.0111080e+02
   2.3115090e+02   3.6255070e+02
   2.3163310e+02   3.2904570e+02
   2.3211520e+02   3.0204690e+02
   2.3259730e+02   2.7848730e+02
   2.3307940e+02   2.5644260e+02
   2.3356150e+02   2.3678690e+02
   2.3404360e+02   2.1673130e+02
   2.3452580e+02   1.9389340e+02
   2.3500790e+02   1.6796810e+02
   2.3549000e+02   1.5157750e+02
   2.3597210e+02   1.4962300e+02
   2.3645420e+02   1.5264120e+02
   2.3693630e+02   1.5148470e+02
   2.3741850e+02   1.4721510e+02
   2.3790060e+02   1.3659900e+02
   2.3838270e+02   1.1674050e+02
   2.3886480e+02   8.3325440e+01
   2.3934690e+02   6.5941770e+01
   2.3982900e+02   7.4286500e+01
   2.4031120e+02   9.0302250e+01
   2.4079330e+02   9.1675660e+01
   2.4127540e+02   6.8615600e+01
   2.4175750e+02   4.8311890e+01
   2.4223960e+02   3.7126460e+01
   2.4272170e+02   3.5770020e+01
   2.4320390e+02   3.8677730e+01
   2.4368600e+02   4.9439330e+01
   2.4416810e+02   6.1747440e+01
   2.4465020e+02   6.6567380e+01
   2.4513230e+02   5.8402950e+01
   2.4561440e+02   5.2177610e+01
   2.4609660e+02   5.3378300e+01
   2.4657870e+02   6.5123900e+01
   2.4706080e+02   6.6082400e+01
   2.4754290e+02   4.7896730e+01
   2.4802500e+02   2.5162720e+01
   2.4850710e+02   1.9728760e+01
   2.4898930e+02   3.9190550e+01
   2.4947140e+02   6.2500240e+01
   2.4995350e+02   8.6983150e+01
   2.5043560e+02   1.1708170e+02
   2.5091770e+02   1.2560860e+02
   2.5139980e+02   1.0002470e+02
   2.5188200e+02   6.1558960e+01
   2.5236410e+02   4.4731200e+01
   2.5284620e+02   6.3553710e+01
   2.5332830e+02   7.8481450e+01
   2.5381040e+02   7.3044680e+01
   2.5429250e+02   3.7825070e+01
   2.5477470e+02   2.5035640e+01
   2.5525680e+02   4.4537230e+01
   2.5573890e+02   7.9858400e+01
   2.5622100e+02   1.0361830e+02
   2.5670310e+02   1.1615040e+02
   2.5718520e+02   1.1688560e+02
   2.5766740e+02   1.0327980e+02
   2.5814950e+02   7.0704100e+01
   2.5863160e+02   4.2422730e+01
   2.5911370e+02   1.7711060e+01
   2.5959580e+02   2.0021970e+00
   2.6007790e+02   1.2271730e+01
   2.6056010e+02   7.4768070e+00
   2.6104220e+02   4.9705810e+00
   2.6152430e+02   1.2847050e+01
   2.6200640e+02   3.5253780e+01
   2.6248850e+02   4.9618530e+01
   2.6297060e+02   5.2175290e+01
   2.6345280e+02   4.9512700e+01
   2.6393490e+02   5.6158200e+01
   2.6441700e+02   7.9806760e+01
   2.6489910e+02   9.4784670e+01
   2.6538120e+02   8.5740110e+01
   2.6586330e+02   4.3409910e+01
   2.6634550e+02   2.4555300e+01
   2.6682760e+02   3.8733150e+01
   2.6730970e+02   6.8111940e+01
   2.6779180e+02   7.9322020e+01
   2.6827390e+02   6.7903810e+01
   2.6875600e+02   5.0458370e+01
   2.6923820e+02   3.1388310e+01
   2.6972030e+02   8.7724610e+00
   2.7020240e+02   3.8251950e+00
   2.7068450e+02   3.8452150e+00
   2.7116660e+02   3.4295650e+00
   2.7164870e+02   8.7442630e+00
   2.7213090e+02   1.2054440e+01
   2.7261300e+02   1.3646120e+01
   2.7309510e+02   1.3700200e+01
   2.7357720e+02   1.2315190e+01
   2.7405930e+02   9.4803470e+00
   2.7454140e+02   6.6706540e+00
   2.7502360e+02   4.0002400e-01
   2.7550570e+02   1.9182620e+01
   2.7598780e+02   5.6033570e+01
   2.7646990e+02   8.7499880e+01
   2.7695200e+02   9.8865720e+01
   2.7743410e+02   8.7837520e+01
   2.7791630e+02   9.0712650e+01
   2.7839840e+02   1.1170450e+02
   2.7888050e+02   1.4013400e+02
   2.7936260e+02   1.5847690e+02
   2.7984470e+02   1.6628110e+02
   2.8032680e+02   1.6838330e+02
   2.8080900e+02   1.6687330e+02
   2.8129110e+02   1.6175500e+02
   2.8177320e+02   1.5028190e+02
   2.8225530e+02   1.3037100e+02
   2.8273740e+02   1.0824160e+02
   2.8321950e+02   9.1729490e+01
   2.8370170e+02   8.0604740e+01
   2.8418380e+02   7.8239620e+01
   2.8466590e+02   9.1209960e+01
   2.8514800e+02   1.1786100e+02
   2.8563010e+02   1.3540950e+02
   2.8611220e+02   1.4349440e+02
   2.8659440e+02   1.4350420e+02
   2.8707650e+02   1.3177890e+02
   2.8755860e+02   1.0865600e+02
   2.8804070e+02   9.4275880e+01
   2.8852280e+02   1.0747530e+02
   2.8900490e+02   1.4125020e+02
   2.8948710e+02   1.4719520e+02
   2.8996920e+02   1.1921170e+02
   2.9045130e+02   8.6220700e+01
   2.9093340e+02   9.3701780e+01
   2.9141550e+02   1.3695640e+02
   2.9189760e+02   1.7094700e+02
   2.9237980e+02   1.6922810e+02
   2.9286190e+02   1.4183260e+02
   2.9334400e+02   1.2029130e+02
   2.9382610e+02   1.0467940e+02
   2.9430820e+02   9.6593260e+01
   2.9479030e+02   9.9782960e+01
   2.9527250e+02   1.1297940e+02
   2.9575460e+02   1.3038320e+02
   2.9623670e+02   1.5423710e+02
   2.9671880e+02   1.7983520e+02
   2.9720090e+02   1.9399390e+02
   2.9768300e+02   1.9555590e+02
   2.9816520e+02   1.9544460e+02
   2.9864730e+02   2.0815360e+02
   2.9912940e+02   2.2905790e+02
   2.9961150e+02   2.4424540e+02
   3.0009360e+02   2.3872880e+02
   3.0057570e+02   2.2711080e+02
   3.0105790e+02   2.3536520e+02
   3.0154000e+02   2.6395190e+02
   3.0202210e+02   2.9797120e+02
   3.0250420e+02   3.2349070e+02
   3.0298630e+02   3.4422190e+02
   3.0346840e+02   3.6752370e+02
   3.0395060e+02   4.0352710e+02
   3.0443270e+02   4.4012110e+02
   3.0491480e+02   4.5816700e+02
   3.0539690e+02   4.5777200e+02
   3.0587900e+02   4.6231960e+02
   3.0636110e+02   4.9428080e+02
   3.0684330e+02   5.4377510e+02
   3.0732540e+02   5.9285400e+02
   3.0780750e+02   6.3511940e+02
   3.0828960e+02   6.7473390e+02
   3.0877170e+02   7.1128960e+02
   3.0925380e+02   7.4619700e+02
   3.0973600e+02   7.9016360e+02
   3.1021810e+02   8.5228780e+02
   3.1070020e+02   9.2733640e+02
   3.1118230e+02   1.0086390e+03
   3.1166440e+02   1.1080980e+03
   3.1214650e+02   1.2000240e+03
   3.1262870e+02   1.2573600e+03
   3.1311080e+02   1.2865700e+03
   3.1359290e+02   1.3238440e+03
   3.1407500e+02   1.3938180e+03
   3.1455710e+02   1.4789400e+03
   3.1503920e+02   1.5635320e+03
   3.1552140e+02   1.6433460e+03
   3.1600350e+02   1.7218460e+03
   3.1648560e+02   1.7961400e+03
   3.1696770e+02   1.8681880e+03
   3.1744980e+02   1.9475360e+03
   3.1793190e+02   2.0407500e+03
   3.1841410e+02   2.1419990e+03
   3.1889620e+02   2.2463780e+03
   3.1937830e+02   2.3580900e+03
   3.1986040e+02   2.4649460e+03
   3.2034250e+02   2.5571530e+03
   3.2082460e+02   2.6417750e+03
   3.2130680e+02   2.7391090e+03
   3.2178890e+02   2.8675140e+03
   3.2227100e+02   2.9975790e+03
   3.2275310e+02   3.1147360e+03
   3.2323520e+02   3.2139950e+03
   3.2371730e+02   3.3108900e+03
   3.2419950e+02   3.4052410e+03
   3.2468160e+02   3.4950860e+03
   3.2516370e+02   3.5798450e+03
   3.2564580e+02   3.6627540e+03
   3.2612790e+02   3.7413120e+03
   3.2661000e+02   3.8202580e+03
   3.2709220e+02   3.9257540e+03
   3.2757430e+02   3.9794610e+03
   3.2805640e+02   3.9408050e+03
   3.2853850e+02   3.8514130e+03
   3.2902060e+02   3.7871960e+03
   3.2950270e+02   3.7793500e+03
   3.2998490e+02   3.7661060e+03
   3.3046700e+02   3.7323600e+03
   3.3094910e+02   3.6781660e+03
   3.3143120e+02   3.6036560e+03
   3.3191330e+02   3.5042320e+03
   3.3239540e+02   3.3868190e+03
   3.3287760e+02   3.2583850e+03
   3.3335970e+02   3.1063170e+03
   3.3384180e+02   2.9640710e+03
   3.3432390e+02   2.8424900e+03
   3.3480600e+02   2.7445820e+03
   3.3528810e+02   2.6355680e+03
   3.3577030e+02   2.5079480e+03
   3.3625240e+02   2.3755580e+03
   3.3673450e+02   2.2560380e+03
   3.3721660e+02   2.1528920e+03
   3.3769870e+02   2.0499450e+03
   3.3818080e+02   1.9443280e+03
   3.3866300e+02   1.8353320e+03
   3.3914510e+02   1.7351040e+03
   3.3962720e+02   1.6456620e+03
   3.4010930e+02   1.5588990e+03
   3.4059140e+02   1.4652280e+03
   3.4107350e+02   1.3608330e+03
   3.4155570e+02   1.2705580e+03
   3.4203780e+02   1.2012120e+03
   3.4251990e+02   1.1490190e+03
   3.4300200e+02   1.0998380e+03
   3.4348410e+02   1.0546450e+03
   3.4396620e+02   1.0096090e+03
   3.4444840e+02   9.6165820e+02
   3.4493050e+02   9.1069070e+02
   3.4541260e+02   8.6171190e+02
   3.4589470e+02   8.1388530e+02
   3.4637680e+02   7.6976610e+02
   3.4685890e+02   7.3461450e+02
   3.4734110e+02   7.0807640e+02
   3.4782320e+02   6.8434810e+02
   3.4830530e+02   6.6093210e+02
   3.4878740e+02   6.3723560e+02
   3.4926950e+02   6.0949220e+02
   3.4975160e+02   5.7488960e+02
   3.5023380e+02   5.4127950e+02
   3.5071590e+02   5.2132930e+02
   3.5119800e+02   5.1240920e+02
   3.5168010e+02   5.0239400e+02
   3.5216220e+02   4.8046780e+02
   3.5264430e+02   4.5416800e+02
   3.5312650e+02   4.3639920e+02
   3.5360860e+02   4.2904790e+02
   3.5409070e+02   4.2555350e+02
   3.5457280e+02   4.2103170e+02
   3.5505490e+02   4.1560210e+02
   3.5553700e+02   4.0949320e+02
   3.5601920e+02   3.9917940e+02
   3.5650130e+02   3.9049150e+02
   3.5698340e+02   3.8778610e+02
   3.5746550e+02   3.9127250e+02
   3.5794760e+02   4.0332570e+02
   3.5842970e+02   4.3715190e+02
   3.5891190e+02   4.7718410e+02
   3.5939400e+02   5.0413350e+02
   3.5987610e+02   4.9497340e+02
   3.6035820e+02   4.8388960e+02
   3.6084030e+02   4.9091160e+02
   3.6132240e+02   5.1498850e+02
   3.6180460e+02   5.4036280e+02
   3.6228670e+02   5.5542530e+02
   3.6276880e+02   5.7154080e+02
   3.6325090e+02   5.9816970e+02
   3.6373300e+02   6.6373020e+02
   3.6421510e+02   7.1135940e+02
   3.6469730e+02   7.0851930e+02
   3.6517940e+02   6.6906540e+02
   3.6566150e+02   6.5233350e+02
   3.6614360e+02   6.7613770e+02
   3.6662570e+02   7.2259110e+02
   3.6710780e+02   7.8525320e+02
   3.6759000e+02   8.9073830e+02
   3.6807210e+02   9.7046920e+02
   3.6855420e+02   1.0077120e+03
   3.6903630e+02   1.0154600e+03
   3.6951840e+02   1.0245420e+03
   3.7000050e+02   1.0241970e+03
   3.7048270e+02   1.0368520e+03
   3.7096480e+02   1.0718590e+03
   3.7144690e+02   1.1380010e+03
   3.7192900e+02   1.2014000e+03
   3.7241110e+02   1.2631230e+03
   3.7289320e+02   1.3226030e+03
   3.7337540e+02   1.3771150e+03
   3.7385750e+02   1.4192770e+03
   3.7433960e+02   1.4687180e+03
   3.7482170e+02   1.5298930e+03
   3.7530380e+02   1.6017260e+03
   3.7578590e+02   1.6880070e+03
   3.7626810e+02   1.7968920e+03
   3.7675020e+02   1.9083600e+03
   3.7723230e+02   2.0023360e+03
   3.7771440e+02   2.0752450e+03
   3.7819650e+02   2.1473130e+03
   3.7867860e+02   2.2255810e+03
   3.7916080e+02   2.3047190e+03
   3.7964290e+02   2.3649890e+03
   3.8012500e+02   2.4044950e+03
   3.8060710e+02   2.4399030e+03
   3.8108920e+02   2.4858910e+03
   3.8157140e+02   2.5402660e+03
   3.8205350e+02   2.5834180e+03
   3.8253560e+02   2.6144360e+03
   3.8301770e+02   2.6327170e+03
   3.8349980e+02   2.6329520e+03
   3.8398190e+02   2.6141390e+03
   3.8446410e+02   2.5874400e+03
   3.8494620e+02   2.5683920e+03
   3.8542830e+02   2.5445530e+03
   3.8591040e+02   2.4845650e+03
   3.8639250e+02   2.3831570e+03
   3.8687460e+02   2.2595650e+03
   3.8735680e+02   2.1273990e+03
   3.8783890e+02   1.9900970e+03
   3.8832100e+02   1.8538840e+03
   3.8880310e+02   1.7239880e+03
   3.8928520e+02   1.5962700e+03
   3.8976730e+02   1.4676570e+03
   3.9024950e+02   1.3363510e+03
   3.9073160e+02   1.2082210e+03
   3.9121370e+02   1.0815960e+03
   3.9169580e+02   9.6156490e+02
   3.9217790e+02   8.5628030e+02
   3.9266000e+02   7.7752170e+02
   3.9314220e+02   7.0613620e+02
   3.9362430e+02   6.2824800e+02
   3.9410640e+02   5.4709060e+02
   3.9458850e+02   4.8128470e+02
   3.9507060e+02   4.4890160e+02
   3.9555270e+02   4.2760130e+02
   3.9603490e+02   4.0239160e+02
   3.9651700e+02   3.6664380e+02
   3.9699910e+02   3.3265530e+02
   3.9748120e+02   3.0410840e+02
   3.9796330e+02   2.7913430e+02
   3.9844540e+02   2.5182350e+02
   3.9892760e+02   2.1200340e+02
   3.9940970e+02   1.7783010e+02
   3.9989180e+02   1.5666140e+02
   4.0037390e+02   1.5256740e+02
   4.0085600e+02   1.5068950e+02
   4.0133810e+02   1.5567090e+02
   4.0182030e+02   1.6063260e+02
   4.0230240e+02   1.5587280e+02
   4.0278450e+02   1.3334200e+02
   4.0326660e+02   1.1420580e+02
   4.0374870e+02   1.0263670e+02
   4.0423080e+02   9.9775390e+01
   4.0471300e+02   1.0388960e+02
   4.0519510e+02   1.1312040e+02
   4.0567720e+02   1.2799050e+02
   4.0615930e+02   1.5500320e+02
   4.0664140e+02   2.0028760e+02
   4.0712350e+02   2.2287870e+02
   4.0760570e+02   2.0772780e+02
   4.0808780e+02   1.7243120e+02
   4.0856990e+02   1.7198460e+02
   4.0905200e+02   2.0811790e+02
   4.0953410e+02   2.4669580e+02
   4.1001620e+02   2.6309620e+02
   4.1049840e+02   2.6104100e+02
   4.1098050e+02   2.6560620e+02
   4.1146260e+02   2.7950000e+02
   4.1194470e+02   2.9890550e+02
   4.1242680e+02   3.2070170e+02
   4.1290890e+02   3.4401420e+02
   4.1339110e+02   3.6459860e+02
   4.1387320e+02   3.7815600e+02
   4.1435530e+02   3.8803170e+02
   4.1483740e+02   4.0183540e+02
   4.1531950e+02   4.2057980e+02
   4.1580160e+02   4.3380470e+02
   4.1628380e+02   4.2503050e+02
   4.1676590e+02   4.0596410e+02
   4.1724800e+02   3.9411280e+02
   4.1773010e+02   4.0247830e+02
   4.1821220e+02   4.1306370e+02
   4.1869430e+02   4.1586060e+02
   4.1917650e+02   4.1093600e+02
   4.1965860e+02   3.9896900e+02
   4.2014070e+02   3.7504640e+02
   4.2062280e+02   3.4718290e+02
   4.2110490e+02   3.2154420e+02
   4.2158700e+02   3.0303050e+02
   4.2206920e+02   2.7993210e+02
   4.2255130e+02   2.4296360e+02
   4.2303340e+02   1.9918090e+02
   4.2351550e+02   1.6246700e+02
   4.2399760e+02   1.4491240e+02
   4.2447970e+02   1.2633130e+02
   4.2496190e+02   9.7116210e+01
   4.2544400e+02   5.0478760e+01
   4.2592610e+02   2.0601810e+01
   4.2640820e+02   1.8815430e+01
   4.2689030e+02   2.7059330e+01
   4.2737240e+02   2.7004640e+01
   4.2785460e+02   1.1211910e+01
   4.2833670e+02   1.3400880e+00
   4.2881880e+02   5.2238770e+00
   4.2930090e+02   1.8932130e+01
   4.2978300e+02   1.3645510e+01
   4.3026510e+02   1.8739870e+01
   4.3074730e+02   5.2047490e+01
   4.3122940e+02   6.9650270e+01
   4.3171150e+02   7.0385990e+01
   4.3219360e+02   6.5088750e+01
   4.3267570e+02   5.2294430e+01
   4.3315780e+02   3.7141970e+01
   4.3364000e+02   3.0916630e+01
   4.3412210e+02   3.3650880e+01
   4.3460420e+02   3.7555540e+01
   4.3508630e+02   4.1265990e+01
   4.3556840e+02   4.3559200e+01
   4.3605050e+02   3.7258180e+01
   4.3653270e+02   2.1429930e+01
   4.3701480e+02   8.2175290e+00
   4.3749690e+02   1.4682620e+01
   4.3797900e+02   3.3153690e+01
   4.3846110e+02   4.4932620e+01
   4.3894320e+02   4.0664790e+01
   4.3942540e+02   3.1366580e+01
   4.3990750e+02   3.4246950e+01
   4.4038960e+02   4.4786620e+01
   4.4087170e+02   4.2078370e+01
   4.4135380e+02   9.4477540e+00
   4.4183590e+02   6.7467290e+01
   4.4231810e+02   8.9808840e+01
   4.4280020e+02   5.7694460e+01
   4.4328230e+02   2.5732670e+01
   4.4376440e+02   1.7190670e+01
   4.4424650e+02   2.5132080e+01
   4.4472860e+02   3.8534790e+01
   4.4521080e+02   6.3732910e+01
   4.4569290e+02   8.5046020e+01
   4.4617500e+02   9.4629030e+01
   4.4665710e+02   9.1024050e+01
   4.4713920e+02   9.0883420e+01
   4.4762130e+02   1.0040040e+02
   4.4810350e+02   1.1119270e+02
   4.4858560e+02   1.1671810e+02
   4.4906770e+02   1.0882760e+02
   4.4954980e+02   1.0871090e+02
   4.5003190e+02   1.2490730e+02
   4.5051400e+02   1.4964840e+02
   4.5099620e+02   1.5403910e+02
   4.5147830e+02   1.2751140e+02
   4.5196040e+02   1.0192370e+02
   4.5244250e+02   9.4670410e+01
   4.5292460e+02   1.1017020e+02
   4.5340670e+02   1.0877920e+02
   4.5388890e+02   8.4343140e+01
   4.5437100e+02   5.6268680e+01
   4.5485310e+02   5.7329960e+01
   4.5533520e+02   8.7206790e+01
   4.5581730e+02   1.0430620e+02
   4.5629940e+02   8.8916750e+01
   4.5678160e+02   5.5103520e+01
   4.5726370e+02   4.0806400e+01
   4.5774580e+02   4.5716550e+01
   4.5822790e+02   5.1791380e+01
   4.5871000e+02   4.1055050e+01
   4.5919210e+02   2.2080570e+01
   4.5967430e+02   1.3738530e+01
   4.6015640e+02   2.3458500e+01
   4.6063850e+02   3.3234740e+01
   4.6112060e+02   2.0820560e+01
   4.6160270e+02   4.4910890e+00
   4.6208480e+02   2.2215700e+01
   4.6256700e+02   1.5344730e+01
   4.6304910e+02   2.5521240e+00
   4.6353120e+02   4.9176030e+00
   4.6401330e+02   6.2149660e+00
   4.6449540e+02   3.9105220e+00
   4.6497750e+02   9.4793700e+00
   4.6545970e+02   2.1825070e+01
   4.6594180e+02   2.2261230e+01
   4.6642390e+02   7.9265140e+00
   4.6690600e+02   3.1189330e+01
   4.6738810e+02   3.9147220e+01
   4.6787020e+02   3.4438840e+01
   4.6835240e+02   2.8781010e+01
   4.6883450e+02   2.0950070e+01
   4.6931660e+02   1.3564450e+01
   4.6979870e+02   7.5970460e+00
   4.7028080e+02   2.9333500e+00
   4.7076290e+02   2.7197300e-01
   4.7124510e+02   8.4814500e-01
   4.7172720e+02   1.2811280e+00
   4.7220930e+02   8.3393550e+00
   4.7269140e+02   2.6820430e+01
   4.7317350e+02   2.7311770e+01
   4.7365560e+02   6.4855960e+00
   4.7413780e+02   6.1488770e+01
   4.7461990e+02   8.1235230e+01
   4.7510200e+02   6.3468990e+01
   4.7558410e+02   3.7255740e+01
   4.7606620e+02   2.1509770e+01
   4.7654830e+02   1.4729490e+01
   4.7703050e+02   1.2023680e+01
   4.7751260e+02   1.3677980e+01
   4.7799470e+02   1.6270870e+01
   4.7847680e+02   1.3907100e+01
   4.7895890e+02   8.9106450e+00
   4.7944100e+02   7.6574710e+00
   4.7992320e+02   1.4583740e+01
   4.8040530e+02   2.5580320e+01
   4.8088740e+02   3.9625490e+01
   4.8136950e+02   5.5909790e+01
   4.8185160e+02   6.6815430e+01
   4.8233370e+02   6.6907350e+01
   4.8281590e+02   6.0336790e+01
   4.8329800e+02   4.9522220e+01
   4.8378010e+02   2.4864010e+01
   4.8426220e+02   1.1614500e+01
   4.8474430e+02   2.4994630e+01
   4.8522640e+02   5.4729980e+01
   4.8570860e+02   7.7607300e+01
   4.8619070e+02   9.2906490e+01
   4.8667280e+02   9.8535520e+01
   4.8715490e+02   9.1593510e+01
   4.8763700e+02   6.9631350e+01
   4.8811910e+02   5.0810300e+01
   4.8860130e+02   2.9937990e+01
   4.8908340e+02   1.6350590e+01
   4.8956550e+02   2.2393800e+01
   4.9004760e+02   5.7399050e+01
   4.9052970e+02   8.1654050e+01
   4.9101180e+02   8.8182500e+01
   4.9149400e+02   8.2110960e+01
   4.9197610e+02   7.5792720e+01
   4.9245820e+02   6.8690430e+01
   4.9294030e+02   6.6021730e+01
   4.9342240e+02   7.3740840e+01
   4.9390450e+02   8.9266600e+01
   4.9438670e+02   1.0051530e+02
   4.9486880e+02   1.0674050e+02
   4.9535090e+02   1.0942260e+02
   4.9583300e+02   1.0443020e+02
   4.9631510e+02   9.7277100e+01
   4.9679720e+02   1.0221480e+02
   4.9727940e+02   1.3184960e+02
   4.9776150e+02   1.6452380e+02
   4.9824360e+02   1.7646030e+02
   4.9872570e+02   1.7398110e+02
   4.9920780e+02   1.7834800e+02
   4.9968990e+02   2.0582320e+02
   5.0017210e+02   2.3560770e+02
   5.0065420e+02   2.5070040e+02
   5.0113630e+02   2.4418760e+02
   5.0161840e+02   2.4534970e+02
   5.0210050e+02   2.6846840e+02
   5.0258260e+02   3.0113540e+02
   5.0306480e+02   3.2985960e+02
   5.0354690e+02   3.4672310e+02
   5.0402900e+02   3.6701290e+02
   5.0451110e+02   3.9543820e+02
   5.0499320e+02   4.2987380e+02
   5.0547530e+02   4.5611910e+02
   5.0595750e+02   4.6688230e+02
   5.0643960e+02   4.8199950e+02
   5.0692170e+02   5.1513380e+02
   5.0740380e+02   5.7236770e+02
   5.0788590e+02   6.0948710e+02
   5.0836800e+02   6.2104390e+02
   5.0885020e+02   6.2436910e+02
   5.0933230e+02   6.4325020e+02
   5.0981440e+02   6.7704690e+02
   5.1029650e+02   7.1005320e+02
   5.1077860e+02   7.3839530e+02
   5.1126070e+02   7.6258790e+02
   5.1174290e+02   7.8462620e+02
   5.1222500e+02   8.0392210e+02
   5.1270710e+02   8.1556190e+02
   5.1318920e+02   8.1021680e+02
   5.1367130e+02   7.9747920e+02
   5.1415340e+02   7.9167050e+02
   5.1463560e+02   7.9609990e+02
   5.1511770e+02   7.9782300e+02
   5.1559980e+02   7.8449450e+02
   5.1608190e+02   7.6408250e+02
   5.1656400e+02   7.4715610e+02
   5.1704610e+02   7.3597880e+02
   5.1752830e+02   7.3040100e+02
   5.1801040e+02   7.3531580e+02
   5.1849250e+02   7.4798270e+02
   5.1897460e+02   7.5326920e+02
   5.1945670e+02   7.3413670e+02
   5.1993880e+02   7.1744240e+02
   5.2042100e+02   7.1673340e+02
   5.2090310e+02   7.3808470e+02
   5.2138520e+02   7.5976170e+02
   5.2186730e+02   7.8062870e+02
   5.2234940e+02   8.0222500e+02
   5.2283150e+02   8.2690360e+02
   5.2331370e+02   8.5707740e+02
   5.2379580e+02   8.8198190e+02
   5.2427790e+02   8.9970530e+02
   5.2476000e+02   9.1204250e+02
   5.2524210e+02   9.2773830e+02
   5.2572420e+02   9.4702000e+02
   5.2620640e+02   9.6655590e+02
   5.2668850e+02   9.8216260e+02
   5.2717060e+02   9.9616720e+02
   5.2765270e+02   1.0173260e+03
   5.2813480e+02   1.0462000e+03
   5.2861690e+02   1.0740800e+03
   5.2909910e+02   1.0955250e+03
   5.2958120e+02   1.1097200e+03
   5.3006330e+02   1.1150210e+03
   5.3054540e+02   1.1057230e+03
   5.3102750e+02   1.0926270e+03
   5.3150960e+02   1.0851050e+03
   5.3199180e+02   1.0801890e+03
   5.3247390e+02   1.0702420e+03
   5.3295600e+02   1.0453020e+03
   5.3343810e+02   1.0200120e+03
   5.3392020e+02   1.0023510e+03
   5.3440230e+02   9.9548410e+02
   5.3488450e+02   9.8622660e+02
   5.3536660e+02   9.7420240e+02
   5.3584870e+02   9.5935420e+02
   5.3633080e+02   9.4034790e+02
   5.3681290e+02   9.1329190e+02
   5.3729500e+02   8.9165230e+02
   5.3777720e+02   8.7925630e+02
   5.3825930e+02   8.7253710e+02
   5.3874140e+02   8.6166020e+02
   5.3922350e+02   8.4669100e+02
   5.3970560e+02   8.2710000e+02
   5.4018770e+02   7.9873240e+02
   5.4066990e+02   7.6434810e+02
   5.4115200e+02   7.4624660e+02
   5.4163410e+02   7.4574340e+02
   5.4211620e+02   7.4036130e+02
   5.4259830e+02   7.0427200e+02
   5.4308040e+02   6.4882640e+02
   5.4356260e+02   5.9872010e+02
   5.4404470e+02   5.5969090e+02
   5.4452680e+02   5.2750340e+02
   5.4500890e+02   4.9569910e+02
   5.4549100e+02   4.6686250e+02
   5.4597310e+02   4.4693990e+02
   5.4645530e+02   4.5064290e+02
   5.4693740e+02   4.5259700e+02
   5.4741950e+02   4.3802170e+02
   5.4790160e+02   4.0634400e+02
   5.4838370e+02   3.7748500e+02
   5.4886580e+02   3.5525610e+02
   5.4934800e+02   3.3815150e+02
   5.4983010e+02   3.2530570e+02
   5.5031220e+02   3.1673210e+02
   5.5079430e+02   3.1272910e+02
   5.5127640e+02   3.1616860e+02
   5.5175850e+02   3.2432680e+02
   5.5224070e+02   3.2869310e+02
   5.5272280e+02   3.2932230e+02
   5.5320490e+02   3.2004330e+02
   5.5368700e+02   2.9379960e+02
   5.5416910e+02   2.5787370e+02
   5.5465120e+02   2.4299210e+02
   5.5513340e+02   2.5075830e+02
   5.5561550e+02   2.6418580e+02
   5.5609760e+02   2.7440210e+02
   5.5657970e+02   2.8041210e+02
   5.5706180e+02   2.7495080e+02
   5.5754390e+02   2.5580630e+02
   5.5802610e+02   2.3609780e+02
   5.5850820e+02   2.2896610e+02
   5.5899030e+02   2.2875440e+02
   5.5947240e+02   2.2657290e+02
   5.5995450e+02   2.1263350e+02
   5.6043660e+02   2.0300440e+02
   5.6091880e+02   2.0970850e+02
   5.6140090e+02   2.2770280e+02
   5.6188300e+02   2.4024840e+02
   5.6236510e+02   2.5117360e+02
   5.6284720e+02   2.4876610e+02
   5.6332930e+02   2.1953550e+02
   5.6381150e+02   1.5294200e+02
   5.6429360e+02   1.1985470e+02
   5.6477570e+02   1.3560580e+02
   5.6525780e+02   1.6759770e+02
   5.6573990e+02   1.9162540e+02
   5.6622200e+02   2.0861400e+02
   5.6670420e+02   2.1323560e+02
   5.6718630e+02   2.0356820e+02
   5.6766840e+02   1.8328190e+02
   5.6815050e+02   1.5250260e+02
   5.6863260e+02   1.1229570e+02
   5.6911470e+02   8.5746830e+01
   5.6959690e+02   8.9451420e+01
   5.7007900e+02   1.0995340e+02
   5.7056110e+02   1.2350170e+02
   5.7104320e+02   1.3004940e+02
   5.7152530e+02   1.3061960e+02
   5.7200740e+02   1.1751550e+02
   5.7248960e+02   1.0295400e+02
   5.7297170e+02   1.0142610e+02
   5.7345380e+02   1.1863120e+02
   5.7393590e+02   1.3597580e+02
   5.7441800e+02   1.5051750e+02
   5.7490010e+02   1.5860010e+02
   5.7538230e+02   1.5589940e+02
   5.7586440e+02   1.2396370e+02
   5.7634650e+02   1.0155320e+02
   5.7682860e+02   1.0058610e+02
   5.7731070e+02   1.1462170e+02
   5.7779280e+02   1.1932180e+02
   5.7827500e+02   1.0965980e+02
   5.7875710e+02   9.9776610e+01
   5.7923920e+02   9.5956300e+01
   5.7972130e+02   9.8393430e+01
   5.8020340e+02   9.7453370e+01
   5.8068550e+02   9.2854490e+01
   5.8116770e+02   8.6314330e+01
   5.8164980e+02   7.8624760e+01
   5.8213190e+02   7.0143550e+01
   5.8261400e+02   6.3217410e+01
   5.8309610e+02   5.9444210e+01
   5.8357820e+02   5.3891970e+01
   5.8406040e+02   3.0671630e+01
   5.8454250e+02   9.4482400e-01
   5.8502460e+02   9.4244380e+00
   5.8550670e+02   3.8564700e+01
   5.8598880e+02   8.6545290e+01
   5.8647090e+02   8.9253540e+01
   5.8695310e+02   5.3492800e+01
   5.8743520e+02   2.6687010e+01
   5.8791730e+02   3.7485350e+01
   5.8839940e+02   5.1199580e+01
   5.8888150e+02   4.7025150e+01
   5.8936360e+02   1.1149540e+01
   5.8984580e+02   6.3486330e+00
   5.9032790e+02   2.9001460e+00
   5.9081000e+02   2.3146360e+01
   5.9129210e+02   4.0946040e+01
   5.9177420e+02   5.7893550e+01
   5.9225630e+02   6.5042360e+01
   5.9273850e+02   5.9465210e+01
   5.9322060e+02   4.5306270e+01
   5.9370270e+02   2.7704710e+01
   5.9418480e+02   7.0861820e+00
   5.9466690e+02   6.2230220e+00
   5.9514900e+02   3.1435550e+00
   5.9563120e+02   8.7575680e+00
   5.9611330e+02   1.7060420e+01
   5.9659540e+02   2.1719120e+01
   5.9707750e+02   2.1746700e+01
   5.9755960e+02   1.3351560e+01
   5.9804170e+02   1.8579100e+00
   5.9852390e+02   7.7917480e+00
   5.9900600e+02   1.4741820e+01
   5.9948810e+02   2.0119630e+01
   5.9997020e+02   2.4385250e+01
   6.0045230e+02   2.7436040e+01
   6.0093440e+02   2.9172610e+01
   6.0141660e+02   3.3955690e+01
   6.0189870e+02   3.1635010e+01
   6.0238080e+02   1.6814330e+01
   6.0286290e+02   4.9823000e+00
   6.0334500e+02   1.8144530e+01
   6.0382710e+02   2.0448730e+01
   6.0430930e+02   1.9632080e+01
   6.0479140e+02   1.7701780e+01
   6.0527350e+02   1.4918330e+01
   6.0575560e+02   1.2322880e+01
   6.0623770e+02   9.6832280e+00
   6.0671980e+02   1.0059200e+01
   6.0720200e+02   2.4259890e+01
   6.0768410e+02   4.2194700e+01
   6.0816620e+02   3.5925170e+01
   6.0864830e+02   2.8988040e+00
   6.0913040e+02   3.8242920e+01
   6.0961250e+02   3.3502200e+01
   6.1009470e+02   7.6662600e+00
   6.1057680e+02   1.2796750e+01
   6.1105890e+02   2.0126220e+01
   6.1154100e+02   1.9335210e+01
   6.1202310e+02   2.8477780e+00
   6.1250520e+02   2.1468260e+01
   6.1298740e+02   2.9834470e+01
   6.1346950e+02   4.7232670e+00
   6.1395160e+02   2.0335080e+01
   6.1443370e+02   3.7464970e+01
   6.1491580e+02   4.6565310e+01
   6.1539790e+02   5.0293090e+01
   6.1588010e+02   4.5770260e+01
   6.1636220e+02   4.3218140e+01
   6.1684430e+02   5.5487550e+01
   6.1732640e+02   8.0719600e+01
   6.1780850e+02   8.4233150e+01
   6.1829060e+02   6.0289430e+01
   6.1877280e+02   3.0170410e+01
   6.1925490e+02   1.7787840e+01
   6.1973700e+02   1.8687260e+01
   6.2021910e+02   2.3188230e+01
   6.2070120e+02   2.9002930e+01
   6.2118330e+02   3.6404300e+01
   6.2166550e+02   4.5861570e+01
   6.2214760e+02   5.7119750e+01
   6.2262970e+02   6.9424560e+01
   6.2311180e+02   9.2114500e+01
   6.2359390e+02   1.0654100e+02
   6.2407600e+02   9.6982300e+01
   6.2455820e+02   6.3125730e+01
   6.2504030e+02   5.2887940e+01
   6.2552240e+02   8.8173220e+01
   6.2600450e+02   1.2258620e+02
   6.2648660e+02   1.2909940e+02
   6.2696880e+02   9.8680420e+01
   6.2745090e+02   8.9670410e+01
   6.2793300e+02   1.0674460e+02
   6.2841510e+02   1.3285170e+02
   6.2889720e+02   1.4915770e+02
   6.2937930e+02   1.5706410e+02
   6.2986150e+02   1.6695240e+02
   6.3034360e+02   1.8210900e+02
   6.3082570e+02   1.9709920e+02
   6.3130780e+02   2.0638790e+02
   6.3178990e+02   2.1033070e+02
   6.3227200e+02   2.0982070e+02
   6.3275420e+02   1.9396670e+02
   6.3323630e+02   1.8382010e+02
   6.3371840e+02   1.9631920e+02
   6.3420050e+02   2.2776270e+02
   6.3468260e+02   2.5603260e+02
   6.3516470e+02   2.7215950e+02
   6.3564690e+02   2.8691960e+02
   6.3612900e+02   3.0407670e+02
   6.3661110e+02   3.2300010e+02
   6.3709320e+02   3.4867150e+02
   6.3757530e+02   3.8267590e+02
   6.3805740e+02   4.2138240e+02
   6.3853960e+02   4.6179990e+02
   6.3902170e+02   5.0417860e+02
   6.3950380e+02   5.4989760e+02
   6.3998590e+02   5.9937940e+02
   6.4046800e+02   6.5227610e+02
   6.4095010e+02   7.1125060e+02
   6.4143230e+02   7.7340080e+02
   6.4191440e+02   8.2789000e+02
   6.4239650e+02   8.6495900e+02
   6.4287860e+02   8.9844230e+02
   6.4336070e+02   9.3634670e+02
   6.4384280e+02   9.8094360e+02
   6.4432500e+02   1.0385040e+03
   6.4480710e+02   1.1259080e+03
   6.4528920e+02   1.2147420e+03
   6.4577130e+02   1.2925200e+03
   6.4625340e+02   1.3584300e+03
   6.4673550e+02   1.4167580e+03
   6.4721770e+02   1.4601280e+03
   6.4769980e+02   1.5048440e+03
   6.4818190e+02   1.5606430e+03
   6.4866400e+02   1.6313950e+03
   6.4914610e+02   1.6938860e+03
   6.4962820e+02   1.7457080e+03
   6.5011040e+02   1.7960520e+03
   6.5059250e+02   1.8619900e+03
   6.5107460e+02   1.9389900e+03
   6.5155670e+02   1.9909420e+03
   6.5203880e+02   2.0066180e+03
   6.5252090e+02   2.0095480e+03
   6.5300310e+02   2.0328390e+03
   6.5348520e+02   2.0651800e+03
   6.5396730e+02   2.0826240e+03
   6.5444940e+02   2.0647460e+03
   6.5493150e+02   2.0393770e+03
   6.5541360e+02   2.0185070e+03
   6.5589580e+02   2.0013800e+03
   6.5637790e+02   1.9842890e+03
   6.5686000e+02   1.9622150e+03
   6.5734210e+02   1.9451800e+03
   6.5782420e+02   1.9337880e+03
   6.5830630e+02   1.9284240e+03
   6.5878850e+02   1.9377440e+03
   6.5927060e+02   1.9655160e+03
   6.5975270e+02   1.9992200e+03
   6.6023480e+02   2.0287110e+03
   6.6071690e+02   2.0546650e+03
   6.6119900e+02   2.0921340e+03
   6.6168120e+02   2.1417880e+03
   6.6216330e+02   2.2036510e+03
   6.6264540e+02   2.2832160e+03
   6.6312750e+02   2.3753980e+03
   6.6360960e+02   2.4707090e+03
   6.6409170e+02   2.5719810e+03
   6.6457390e+02   2.6626830e+03
   6.6505600e+02   2.7120960e+03
   6.6553810e+02   2.7474340e+03
   6.6602020e+02   2.8131890e+03
   6.6650230e+02   2.9769290e+03
   6.6698440e+02   3.1105420e+03
   6.6746660e+02   3.1670720e+03
   6.6794870e+02   3.1697610e+03
   6.6843080e+02   3.1968570e+03
   6.6891290e+02   3.2693470e+03
   6.6939500e+02   3.3216210e+03
   6.6987710e+02   3.3269260e+03
   6.7035930e+02   3.2884690e+03
   6.7084140e+02   3.2407690e+03
   6.7132350e+02   3.1858440e+03
   6.7180560e+02   3.1167360e+03
   6.7228770e+02   3.0269040e+03
   6.7276980e+02   2.9190420e+03
   6.7325200e+02   2.8008960e+03
   6.7373410e+02   2.6722950e+03
   6.7421620e+02   2.5305490e+03
   6.7469830e+02   2.3526980e+03
   6.7518040e+02   2.1688150e+03
   6.7566250e+02   2.0139460e+03
   6.7614470e+02   1.9120180e+03
   6.7662680e+02   1.8059230e+03
   6.7710890e+02   1.6720470e+03
   6.7759100e+02   1.5327420e+03
   6.7807310e+02   1.4172490e+03
   6.7855520e+02   1.3392190e+03
   6.7903740e+02   1.2575520e+03
   6.7951950e+02   1.1626780e+03
   6.8000160e+02   1.0633260e+03
   6.8048370e+02   9.7806180e+02
   6.8096580e+02   9.0738290e+02
   6.8144790e+02   8.4611110e+02
   6.8193010e+02   7.9527660e+02
   6.8241220e+02   7.5034010e+02
   6.8289430e+02   7.0410140e+02
   6.8337640e+02   6.5671230e+02
   6.8385850e+02   6.1147120e+02
   6.8434060e+02   5.7165260e+02
   6.8482280e+02   5.3314760e+02
   6.8530490e+02   4.9046370e+02
   6.8578700e+02   4.4286250e+02
   6.8626910e+02   4.0333570e+02
   6.8675120e+02   3.7612060e+02
   6.8723330e+02   3.5824320e+02
   6.8771550e+02   3.4997130e+02
   6.8819760e+02   3.6086410e+02
   6.8867970e+02   3.5149050e+02
   6.8916180e+02   3.1552950e+02
   6.8964390e+02   2.7022900e+02
   6.9012600e+02   2.3035800e+02
   6.9060820e+02   1.9594170e+02
   6.9109030e+02   1.7652110e+02
   6.9157240e+02   1.7571110e+02
   6.9205450e+02   1.8389160e+02
   6.9253660e+02   1.9543310e+02
   6.9301870e+02   2.0590650e+02
   6.9350090e+02   2.0513200e+02
   6.9398300e+02   1.7673690e+02
   6.9446510e+02   1.5022510e+02
   6.9494720e+02   1.5095460e+02
   6.9542930e+02   1.6708120e+02
   6.9591140e+02   1.6808640e+02
   6.9639360e+02   1.3082370e+02
   6.9687570e+02   9.6186400e+01
   6.9735780e+02   7.5055300e+01
   6.9783990e+02   6.7194950e+01
   6.9832200e+02   6.4516480e+01
   6.9880410e+02   6.9989620e+01
   6.9928630e+02   7.4082640e+01
   6.9976840e+02   6.6364990e+01
   7.0025050e+02   5.1671390e+01
   7.0073260e+02   6.1655640e+01
   7.0121470e+02   9.6463260e+01
   7.0169680e+02   1.2622810e+02
   7.0217900e+02   1.2263840e+02
   7.0266110e+02   1.0136690e+02
   7.0314320e+02   8.0962890e+01
   7.0362530e+02   6.3090700e+01
   7.0410740e+02   5.1309690e+01
   7.0458950e+02   5.7777470e+01
   7.0507170e+02   6.5476810e+01
   7.0555380e+02   5.8945190e+01
   7.0603590e+02   1.5275150e+01
   7.0651800e+02   9.6687010e+00
   7.0700010e+02   6.9100340e+00
   7.0748220e+02   8.2719730e+00
   7.0796440e+02   1.4957280e+01
   7.0844650e+02   1.2019650e+01
   7.0892860e+02   1.3187500e+01
   7.0941070e+02   2.3451780e+01
   7.0989280e+02   3.4572390e+01
   7.1037490e+02   2.9215330e+01
   7.1085710e+02   1.1231810e+01
   7.1133920e+02   4.4085690e+00
   7.1182130e+02   1.1102910e+01
   7.1230340e+02   1.2757570e+01
   7.1278550e+02   9.5247800e+00
   7.1326760e+02   3.8007810e+00
   7.1374980e+02   1.5998540e+00
   7.1423190e+02   1.1739870e+01
   7.1471400e+02   1.6926390e+01
   7.1519610e+02   5.9809570e+00
   7.1567820e+02   1.9432010e+01
   7.1616030e+02   3.4356080e+01
   7.1664250e+02   3.5764770e+01
   7.1712460e+02   3.3130860e+01
   7.1760670e+02   3.1107790e+01
   7.1808880e+02   2.9440430e+01
   7.1857090e+02   2.4848270e+01
   7.1905300e+02   1.7315670e+01
   7.1953520e+02   8.2597660e+00
   7.2001730e+02   4.6528320e+00
   7.2049940e+02   1.6287110e+01
   7.2098150e+02   1.7484620e+01
   7.2146360e+02   6.3691410e+00
   7.2194570e+02   7.2559810e+00
   7.2242790e+02   1.7467040e+01
   7.2291000e+02   2.7649290e+01
   7.2339210e+02   4.1351070e+01
   7.2387420e+02   6.5170170e+01
   7.2435630e+02   8.1340330e+01
   7.2483840e+02   8.8536010e+01
   7.2532060e+02   8.8527220e+01
   7.2580270e+02   8.2001460e+01
   7.2628480e+02   6.7315190e+01
   7.2676690e+02   5.3893550e+01
   7.2724900e+02   4.2770140e+01
   7.2773110e+02   3.3904540e+01
   7.2821330e+02   2.1738040e+01
   7.2869540e+02   1.0311400e+01
   7.2917750e+02   1.6388790e+01
   7.2965960e+02   5.8967290e+01
   7.3014170e+02   1.0360390e+02
   7.3062380e+02   1.1787620e+02
   7.3110600e+02   1.1178750e+02
   7.3158810e+02   1.0805910e+02
   7.3207020e+02   1.2006790e+02
   7.3255230e+02   1.2946280e+02
   7.3303440e+02   1.2727470e+02
   7.3351650e+02   1.1723600e+02
   7.3399870e+02   1.1581360e+02
   7.3448080e+02   1.2778670e+02
   7.3496290e+02   1.3714540e+02
   7.3544500e+02   1.3552400e+02
   7.3592710e+02   1.2637080e+02
   7.3640920e+02   1.2697130e+02
   7.3689140e+02   1.3695610e+02
   7.3737350e+02   1.4777660e+02
   7.3785560e+02   1.5948790e+02
   7.3833770e+02   1.6573970e+02
   7.3881980e+02   1.5134110e+02
   7.3930190e+02   1.1693640e+02
   7.3978410e+02   9.3648320e+01
   7.4026620e+02   1.0881480e+02
   7.4074830e+02   1.3098540e+02
   7.4123040e+02   1.3916860e+02
   7.4171250e+02   1.2600570e+02
   7.4219460e+02   1.1857790e+02
   7.4267680e+02   1.1980380e+02
   7.4315890e+02   1.2278720e+02
   7.4364100e+02   1.2239440e+02
   7.4412310e+02   1.1851530e+02
   7.4460520e+02   1.1340870e+02
   7.4508730e+02   1.0677770e+02
   7.4556950e+02   1.0146200e+02
   7.4605160e+02   9.7336430e+01
   7.4653370e+02   9.7348630e+01
   7.4701580e+02   1.1097800e+02
   7.4749790e+02   1.4701840e+02
   7.4798000e+02   1.7478040e+02
   7.4846220e+02   1.7089890e+02
   7.4894430e+02   1.4969410e+02
   7.4942640e+02   1.2861570e+02
   7.4990850e+02   1.0379040e+02
   7.5039060e+02   9.0018800e+01
   7.5087270e+02   9.6420780e+01
   7.5135490e+02   1.0861820e+02
   7.5183700e+02   1.0248820e+02
   7.5231910e+02   7.5813480e+01
   7.5280120e+02   4.3677120e+01
   7.5328330e+02   2.5913090e+00
   7.5376540e+02   3.1334840e+01
   7.5424760e+02   1.3477910e+01
   7.5472970e+02   3.9594240e+01
   7.5521180e+02   7.1732540e+01
   7.5569390e+02   3.5399780e+01
   7.5617600e+02   7.5632320e+00
   7.5665810e+02   9.2609860e+00
   7.5714030e+02   1.7014890e+01
   7.5762240e+02   3.3987180e+01
   7.5810450e+02   2.2106320e+01
   7.5858660e+02   1.0027710e+01
   7.5906870e+02   4.9720460e+00
   7.5955080e+02   5.6033940e+00
   7.6003300e+02   5.6241460e+00
   7.6051510e+02   4.6207280e+00
   7.6099720e+02   4.8360600e+00
   7.6147930e+02   7.5341800e+00
   7.6196140e+02   1.2218260e+01
   7.6244350e+02   2.0122800e+01
   7.6292570e+02   3.0189210e+01
   7.6340780e+02   3.3609620e+01
   7.6388990e+02   1.5977050e+01
   7.6437200e+02   4.4407960e+00
   7.6485410e+02   9.6153560e+00
   7.6533620e+02   7.8588900e-01
   7.6581840e+02   1.0208370e+01
   7.6630050e+02   1.4865720e+01
   7.6678260e+02   1.6453860e+01
   7.6726470e+02   1.3985110e+01
   7.6774680e+02   6.3880620e+00
   7.6822890e+02   9.9307860e+00
   7.6871110e+02   2.9753660e+01
   7.6919320e+02   4.4463130e+01
   7.6967530e+02   2.8069340e+01
   7.7015740e+02   7.9061280e+00
   7.7063950e+02   1.0043950e+01
   7.7112160e+02   2.4829470e+01
   7.7160380e+02   5.6128300e+01
   7.7208590e+02   4.2732540e+01
   7.7256800e+02   1.3831910e+01
   7.7305010e+02   4.1467300e-01
   7.7353220e+02   6.3466800e+00
   7.7401430e+02   1.7527950e+01
   7.7449650e+02   4.0345580e+01
   7.7497860e+02   5.7480590e+01
   7.7546070e+02   5.3983520e+01
   7.7594280e+02   1.6941410e+01
   7.7642490e+02   2.6872560e+00
   7.7690700e+02   1.7907710e+01
   7.7738920e+02   4.0172120e+01
   7.7787130e+02   4.2322270e+01
   7.7835340e+02   2.9001460e+01
   7.7883550e+02   2.0850100e+01
   7.7931760e+02   2.1970210e+01
   7.7979970e+02   2.7647580e+01
   7.8028190e+02   3.9231450e+01
   7.8076400e+02   5.0671020e+01
   7.8124610e+02   5.4049070e+01
   7.8172820e+02   4.4118900e+01
   7.8221030e+02   3.1937380e+01
   7.8269240e+02   1.4577760e+01
   7.8317460e+02   9.7021500e-01
   7.8365670e+02   6.8826900e+00
   7.8413880e+02   1.2478030e+00
   7.8462090e+02   8.7711180e+00
   7.8510300e+02   2.4901250e+01
   7.8558510e+02   4.0110840e+01
   7.8606730e+02   3.9199830e+01
   7.8654940e+02   2.7558350e+01
   7.8703150e+02   2.5238040e+01
   7.8751360e+02   4.3374760e+01
   7.8799570e+02   6.0923830e+01
   7.8847780e+02   5.5768310e+01
   7.8896000e+02   3.8824710e+01
   7.8944210e+02   2.7153440e+01
   7.8992420e+02   2.6668460e+01
   7.9040630e+02   3.0886840e+01
   7.9088840e+02   4.3002200e+01
   7.9137050e+02   5.7366210e+01
   7.9185270e+02   6.3349610e+01
   7.9233480e+02   6.0698610e+01
   7.9281690e+02   5.5135250e+01
   7.9329900e+02   4.3455080e+01
   7.9378110e+02   3.3484990e+01
   7.9426320e+02   4.4590580e+01
   7.9474540e+02   7.0965580e+01
   7.9522750e+02   9.0190060e+01
   7.9570960e+02   8.6796260e+01
   7.9619170e+02   7.9086790e+01
   7.9667380e+02   7.8198970e+01
   7.9715590e+02   8.2536870e+01
   7.9763810e+02   8.7748780e+01
   7.9812020e+02   1.0333400e+02
   7.9860230e+02   1.0879590e+02
   7.9908440e+02   9.2852420e+01
   7.9956650e+02   6.6952150e+01
   8.0004860e+02   6.9896480e+01
   8.0053080e+02   1.0560110e+02
   8.0101290e+02   1.2945970e+02
   8.0149500e+02   1.2080520e+02
   8.0197710e+02   9.6370850e+01
   8.0245920e+02   8.3379390e+01
   8.0294130e+02   8.0188960e+01
   8.0342350e+02   8.1924070e+01
   8.0390560e+02   9.4844240e+01
   8.0438770e+02   1.0328190e+02
   8.0486980e+02   9.3052120e+01
   8.0535190e+02   7.0525510e+01
   8.0583400e+02   5.9284670e+01
   8.0631620e+02   6.6878050e+01
   8.0679830e+02   7.7319700e+01
   8.0728040e+02   8.5945920e+01
   8.0776250e+02   9.3916020e+01
   8.0824460e+02   1.0636230e+02
   8.0872670e+02   1.2325590e+02
   8.0920890e+02   1.3420130e+02
   8.0969100e+02   1.3214780e+02
   8.1017310e+02   1.2278200e+02
   8.1065520e+02   1.0976720e+02
   8.1113730e+02   9.5320680e+01
   8.1161940e+02   8.5909060e+01
   8.1210160e+02   9.2858640e+01
   8.1258370e+02   1.0465930e+02
   8.1306580e+02   1.1951720e+02
   8.1354790e+02   1.3509220e+02
   8.1403000e+02   1.3741330e+02
   8.1451210e+02   1.2167030e+02
   8.1499430e+02   1.0668370e+02
   8.1547640e+02   9.5863650e+01
   8.1595850e+02   9.0551640e+01
   8.1644060e+02   1.0085570e+02
   8.1692270e+02   1.2443320e+02
   8.1740480e+02   1.4055200e+02
   8.1788700e+02   1.3017980e+02
   8.1836910e+02   1.1219250e+02
   8.1885120e+02   1.0233800e+02
   8.1933330e+02   1.0023070e+02
   8.1981540e+02   1.0209390e+02
   8.2029750e+02   1.0809270e+02
   8.2077970e+02   1.1667220e+02
   8.2126180e+02   1.2914940e+02
   8.2174390e+02   1.4392870e+02
   8.2222600e+02   1.5106300e+02
   8.2270810e+02   1.5030830e+02
   8.2319020e+02   1.4507530e+02
   8.2367240e+02   1.3321750e+02
   8.2415450e+02   1.1854530e+02
   8.2463660e+02   1.0897070e+02
   8.2511870e+02   1.0445850e+02
   8.2560080e+02   1.0513060e+02
   8.2608290e+02   1.1937770e+02
   8.2656510e+02   1.3171940e+02
   8.2704720e+02   1.2944020e+02
   8.2752930e+02   1.1466860e+02
   8.2801140e+02   1.0531450e+02
   8.2849350e+02   1.0358240e+02
   8.2897560e+02   1.1039940e+02
   8.2945780e+02   1.3117580e+02
   8.2993990e+02   1.5888770e+02
   8.3042200e+02   1.5255000e+02
   8.3090410e+02   1.1209420e+02
   8.3138620e+02   7.5743530e+01
   8.3186830e+02   6.5401250e+01
   8.3235050e+02   6.8102170e+01
   8.3283260e+02   6.7203490e+01
   8.3331470e+02   6.4629760e+01
   8.3379680e+02   6.7529050e+01
   8.3427890e+02   9.1974370e+01
   8.3476100e+02   1.0951640e+02
   8.3524320e+02   1.0177670e+02
   8.3572530e+02   7.5877320e+01
   8.3620740e+02   6.2026370e+01
   8.3668950e+02   6.2632320e+01
   8.3717160e+02   6.7712650e+01
   8.3765370e+02   7.5737550e+01
   8.3813590e+02   8.4251460e+01
   8.3861800e+02   8.7468260e+01
   8.3910010e+02   8.5393920e+01
   8.3958220e+02   7.8472660e+01
   8.4006430e+02   5.6376340e+01
   8.4054640e+02   3.8919920e+01
   8.4102860e+02   4.8888790e+01
   8.4151070e+02   7.6329100e+01
   8.4199280e+02   8.5346920e+01
   8.4247490e+02   5.2151980e+01
   8.4295700e+02   2.1014040e+01
   8.4343910e+02   2.4029540e+00
   8.4392130e+02   1.6287840e+01
   8.4440340e+02   8.5141600e+00
   8.4488550e+02   2.1270390e+01
   8.4536760e+02   4.1745480e+01
   8.4584970e+02   3.4734620e+01
   8.4633180e+02   1.9402220e+01
   8.4681400e+02   2.2707150e+01
   8.4729610e+02   3.7033690e+01
   8.4777820e+02   4.5581180e+01
   8.4826030e+02   4.2742190e+01
   8.4874240e+02   3.3483400e+01
   8.4922450e+02   1.1038570e+01
   8.4970670e+02   1.5745730e+01
   8.5018880e+02   2.2399290e+01
   8.5067090e+02   4.6142600e-01
   8.5115300e+02   1.3102910e+01
   8.5163510e+02   7.5983890e+00
   8.5211720e+02   7.4339600e+00
   8.5259940e+02   1.3918820e+01
   8.5308150e+02   1.3676640e+01
   8.5356360e+02   1.3402220e+01
   8.5404570e+02   2.0516600e+01
   8.5452780e+02   2.1405880e+01
   8.5500990e+02   3.5125730e+00
   8.5549210e+02   3.9167480e+01
   8.5597420e+02   5.6869510e+01
   8.5645630e+02   3.5542850e+01
   8.5693840e+02   1.7842650e+01
   8.5742050e+02   7.8756100e+00
   8.5790260e+02   4.2514650e+00
   8.5838480e+02   5.8278810e+00
   8.5886690e+02   1.2227290e+01
   8.5934900e+02   1.7465450e+01
   8.5983110e+02   2.0457030e+01
   8.6031320e+02   2.0869380e+01
   8.6079530e+02   1.2531860e+01
   8.6127750e+02   3.0438230e+00
   8.6175960e+02   5.3167720e+00
   8.6224170e+02   4.0354980e+01
   8.6272380e+02   6.1376710e+01
   8.6320590e+02   4.2663210e+01
   8.6368800e+02   1.3356200e+01
   8.6417020e+02   4.6312260e+00
   8.6465230e+02   2.0571410e+01
   8.6513440e+02   3.9023440e+01
   8.6561650e+02   5.9820560e+01
   8.6609860e+02   7.4447140e+01
   8.6658070e+02   6.2380130e+01
   8.6706290e+02   3.7257570e+01
   8.6754500e+02   3.2090210e+01
   8.6802710e+02   5.9891240e+01
   8.6850920e+02   8.2720580e+01
   8.6899130e+02   6.9497070e+01
   8.6947340e+02   4.7255860e+01
   8.6995560e+02   4.2555050e+01
   8.7043770e+02   6.6520870e+01
   8.7091980e+02   8.1337650e+01
   8.7140190e+02   8.4467290e+01
   8.7188400e+02   8.4336180e+01
   8.7236610e+02   8.9202030e+01
   8.7284830e+02   9.7831420e+01
   8.7333040e+02   1.0438790e+02
   8.7381250e+02   1.0832360e+02
   8.7429460e+02   1.1130910e+02
   8.7477670e+02   1.1331540e+02
   8.7525890e+02   1.1573410e+02
   8.7574100e+02   1.1947710e+02
   8.7622310e+02   1.2434950e+02
   8.7670520e+02   1.3259840e+02
   8.7718730e+02   1.4821670e+02
   8.7766940e+02   1.6159330e+02
   8.7815160e+02   1.6550700e+02
   8.7863370e+02   1.6051670e+02
   8.7911580e+02   1.6189760e+02
   8.7959790e+02   1.6973190e+02
   8.8008000e+02   1.8078270e+02
   8.8056210e+02   1.9819350e+02
   8.8104430e+02   2.1390820e+02
   8.8152640e+02   2.1557730e+02
   8.8200850e+02   2.0424850e+02
   8.8249060e+02   1.9702870e+02
   8.8297270e+02   2.1115520e+02
   8.8345480e+02   2.1769850e+02
   8.8393700e+02   1.9934160e+02
   8.8441910e+02   1.6200920e+02
   8.8490120e+02   1.5567480e+02
   8.8538330e+02   1.8428490e+02
   8.8586540e+02   2.0564370e+02
   8.8634750e+02   1.8929390e+02
   8.8682970e+02   1.6073290e+02
   8.8731180e+02   1.7203170e+02
   8.8779390e+02   2.1040420e+02
   8.8827600e+02   2.3283010e+02
   8.8875810e+02   2.0216700e+02
   8.8924020e+02   1.7147290e+02
   8.8972240e+02   1.6414840e+02
   8.9020450e+02   1.7248010e+02
   8.9068660e+02   1.7504980e+02
   8.9116870e+02   1.7037210e+02
   8.9165080e+02   1.6460330e+02
   8.9213290e+02   1.5800810e+02
   8.9261510e+02   1.5310770e+02
   8.9309720e+02   1.5836670e+02
   8.9357930e+02   1.6938370e+02
   8.9406140e+02   1.7312650e+02
   8.9454350e+02   1.6219040e+02
   8.9502560e+02   1.4770010e+02
   8.9550780e+02   1.3605690e+02
   8.9598990e+02   1.2443990e+02
   8.9647200e+02   1.0749320e+02
   8.9695410e+02   7.4058840e+01
   8.9743620e+02   6.2661990e+01
   8.9791830e+02   8.4072020e+01
   8.9840050e+02   1.1194650e+02
   8.9888260e+02   1.1050440e+02
   8.9936470e+02   8.6095700e+01
   8.9984680e+02   6.4323490e+01
   9.0032890e+02   4.9306270e+01
   9.0081100e+02   3.6631590e+01
   9.0129320e+02   2.1004520e+01
   9.0177530e+02   6.6864010e+00
   9.0225740e+02   1.1781010e+00
   9.0273950e+02   1.3499630e+01
   9.0322160e+02   9.4498290e+00
   9.0370370e+02   2.2886470e+01
   9.0418590e+02   5.2817020e+01
   9.0466800e+02   5.5199710e+01
   9.0515010e+02   3.2888920e+01
   9.0563220e+02   6.9696040e+00
   9.0611430e+02   2.1597170e+01
   9.0659640e+02   4.1114010e+01
   9.0707860e+02   3.4568600e+01
   9.0756070e+02   1.8836060e+01
   9.0804280e+02   1.0759400e+01
   9.0852490e+02   1.2982300e+01
   9.0900700e+02   1.2628300e+01
   9.0948910e+02   3.2243650e+00
   9.0997130e+02   4.5360110e+00
   9.1045340e+02   5.5283200e+00
   9.1093550e+02   7.5561500e-01
   9.1141760e+02   4.7100830e+00
   9.1189970e+02   1.0004640e+01
   9.1238180e+02   9.3179930e+00
   9.1286400e+02   6.3757320e+00
   9.1334610e+02   2.2164920e+01
   9.1382820e+02   2.2383180e+01
   9.1431030e+02   1.1517940e+01
   9.1479240e+02   9.1711400e-01
   9.1527450e+02   9.2873540e+00
   9.1575670e+02   1.5065800e+01
   9.1623880e+02   1.4704100e+01
   9.1672090e+02   1.1108890e+01
   9.1720300e+02   7.7165530e+00
   9.1768510e+02   4.6055910e+00
   9.1816720e+02   1.0611210e+01
   9.1864940e+02   3.1474610e+01
   9.1913150e+02   5.0017330e+01
   9.1961360e+02   3.9108030e+01
   9.2009570e+02   1.8158690e+01
   9.2057780e+02   1.5384030e+01
   9.2105990e+02   5.5471190e+01
   9.2154210e+02   7.8397580e+01
   9.2202420e+02   6.9681640e+01
   9.2250630e+02   4.8214600e+01
   9.2298840e+02   2.3528930e+01
   9.2347050e+02   5.5147710e+00
   9.2395260e+02   1.1902340e+01
   9.2443480e+02   6.8554690e+00
   9.2491690e+02   3.1957760e+01
   9.2539900e+02   4.9489260e+01
   9.2588110e+02   6.2176510e+01
   9.2636320e+02   7.4306150e+01
   9.2684530e+02   8.6492680e+01
   9.2732750e+02   9.2125240e+01
   9.2780960e+02   8.5004150e+01
   9.2829170e+02   7.4843020e+01
   9.2877380e+02   6.2656980e+01
   9.2925590e+02   4.9746830e+01
   9.2973800e+02   5.1256100e+01
   9.3022020e+02   6.7408940e+01
   9.3070230e+02   8.4255130e+01
   9.3118440e+02   9.2119380e+01
   9.3166650e+02   9.8203120e+01
   9.3214860e+02   1.1184740e+02
   9.3263070e+02   1.3106740e+02
   9.3311290e+02   1.4965310e+02
   9.3359500e+02   1.6554810e+02
   9.3407710e+02   1.8059280e+02
   9.3455920e+02   1.9648020e+02
   9.3504130e+02   2.1116380e+02
   9.3552340e+02   2.1686840e+02
   9.3600560e+02   2.1332590e+02
   9.3648770e+02   2.2549370e+02
   9.3696980e+02   2.6267260e+02
   9.3745190e+02   3.0648880e+02
   9.3793400e+02   3.3702950e+02
   9.3841610e+02   3.6023270e+02
   9.3889830e+02   3.8456450e+02
   9.3938040e+02   4.1157300e+02
   9.3986250e+02   4.4054490e+02
   9.4034460e+02   4.7514920e+02
   9.4082670e+02   5.0735250e+02
   9.4130880e+02   5.2787740e+02
   9.4179100e+02   5.3586500e+02
   9.4227310e+02   5.6118680e+02
   9.4275520e+02   6.0495530e+02
   9.4323730e+02   6.5462550e+02
   9.4371940e+02   7.0453910e+02
   9.4420150e+02   7.5128930e+02
   9.4468370e+02   7.9304490e+02
   9.4516580e+02   8.2970560e+02
   9.4564790e+02   8.5143330e+02
   9.4613000e+02   8.3710960e+02
   9.4661210e+02   8.3091920e+02
   9.4709420e+02   8.5130200e+02
   9.4757640e+02   8.9019360e+02
   9.4805850e+02   9.1482860e+02
   9.4854060e+02   9.2495040e+02
   9.4902270e+02   9.2059110e+02
   9.4950480e+02   8.9204590e+02
   9.4998690e+02   8.6076290e+02
   9.5046910e+02   8.5424730e+02
   9.5095120e+02   8.5934590e+02
   9.5143330e+02   8.5040870e+02
   9.5191540e+02   8.1472660e+02
   9.5239750e+02   7.7174850e+02
   9.5287960e+02   7.1906880e+02
   9.5336180e+02   6.6450540e+02
   9.5384390e+02   6.1917330e+02
   9.5432600e+02   5.8219190e+02
   9.5480810e+02   5.4614280e+02
   9.5529020e+02   5.0946220e+02
   9.5577230e+02   4.7586620e+02
   9.5625450e+02   4.5539280e+02
   9.5673660e+02   4.3457910e+02
   9.5721870e+02   3.9799490e+02
   9.5770080e+02   3.3771360e+02
   9.5818290e+02   2.9012500e+02
   9.5866500e+02   2.6410250e+02
   9.5914720e+02   2.3658760e+02
   9.5962930e+02   1.8463920e+02
   9.6011140e+02   1.1995630e+02
   9.6059350e+02   1.0534030e+02
   9.6107560e+02   1.3456470e+02
   9.6155770e+02   1.5921580e+02
   9.6203990e+02   1.5210690e+02
   9.6252200e+02   1.2999800e+02
   9.6300410e+02   9.2934570e+01
   9.6348620e+02   4.9315670e+01
   9.6396830e+02   2.7674560e+01
   9.6445040e+02   3.7579100e+01
   9.6493260e+02   4.7538330e+01
   9.6541470e+02   5.2706790e+01
   9.6589680e+02   5.3118160e+01
   9.6637890e+02   4.5579590e+01
   9.6686100e+02   3.3302490e+01
   9.6734310e+02   2.5368900e+01
   9.6782530e+02   2.4197270e+01
   9.6830740e+02   2.7262700e+01
   9.6878950e+02   3.3839840e+01
   9.6927160e+02   4.3677250e+01
   9.6975370e+02   5.5947020e+01
   9.7023580e+02   6.9178220e+01
   9.7071800e+02   9.3593020e+01
   9.7120010e+02   1.3334550e+02
   9.7168220e+02   1.6565920e+02
   9.7216430e+02   1.6113280e+02
   9.7264640e+02   1.4102080e+02
   9.7312850e+02   1.5232320e+02
   9.7361070e+02   1.9257320e+02
   9.7409280e+02   2.2932370e+02
   9.7457490e+02   2.3930810e+02
   9.7505700e+02   2.5113260e+02
   9.7553910e+02   2.7742770e+02
   9.7602120e+02   3.0338620e+02
   9.7650340e+02   3.3497140e+02
   9.7698550e+02   3.7840280e+02
   9.7746760e+02   4.1740280e+02
   9.7794970e+02   4.7158060e+02
   9.7843180e+02   5.3247390e+02
   9.7891390e+02   5.9227270e+02
   9.7939610e+02   6.5107790e+02
   9.7987820e+02   7.0693770e+02
   9.8036030e+02   7.4849540e+02
   9.8084240e+02   8.0819310e+02
   9.8132450e+02   8.9503660e+02
   9.8180660e+02   9.9712670e+02
   9.8228880e+02   1.1040680e+03
   9.8277090e+02   1.2161370e+03
   9.8325300e+02   1.3333090e+03
   9.8373510e+02   1.4555590e+03
   9.8421720e+02   1.5878750e+03
   9.8469930e+02   1.7333910e+03
   9.8518150e+02   1.8914030e+03
   9.8566360e+02   2.0632690e+03
   9.8614570e+02   2.2472270e+03
   9.8662780e+02   2.4389380e+03
   9.8710990e+02   2.6380110e+03
   9.8759200e+02   2.8427830e+03
   9.8807420e+02   3.0514030e+03
   9.8855630e+02   3.2661940e+03
   9.8903840e+02   3.5007250e+03
   9.8952050e+02   3.7472910e+03
   9.9000260e+02   3.9825530e+03
   9.9048470e+02   4.1955590e+03
   9.9096690e+02   4.4002950e+03
   9.9144900e+02   4.6044460e+03
   9.9193110e+02   4.8045530e+03
   9.9241320e+02   4.9982060e+03
   9.9289530e+02   5.1982410e+03
   9.9337740e+02   5.3606460e+03
   9.9385960e+02   5.4846780e+03
   9.9434170e+02   5.5801490e+03
   9.9482380e+02   5.6647420e+03
   9.9530590e+02   5.7257470e+03
   9.9578800e+02   5.7272810e+03
   9.9627010e+02   5.6692400e+03
   9.9675230e+02   5.5883320e+03
   9.9723440e+02   5.4991840e+03
   9.9771650e+02   5.3960700e+03
   9.9819860e+02   5.2841750e+03
   9.9868070e+02   5.1537270e+03
   9.9916280e+02   4.9588860e+03
   9.9964500e+02   4.6951810e+03
   1.0001270e+03   4.4389110e+03
   1.0006090e+03   4.2190270e+03
   1.0010910e+03   4.0150250e+03
   1.0015730e+03   3.8111460e+03
   1.0020560e+03   3.6034880e+03
   1.0025380e+03   3.3845140e+03
   1.0030200e+03   3.1278190e+03
   1.0035020e+03   2.9114510e+03
   1.0039840e+03   2.7582270e+03
   1.0044660e+03   2.6221280e+03
   1.0049480e+03   2.4639700e+03
   1.0054300e+03   2.2871180e+03
   1.0059120e+03   2.1314770e+03
   1.0063950e+03   1.9973640e+03
   1.0068770e+03   1.8779650e+03
   1.0073590e+03   1.7744780e+03
   1.0078410e+03   1.6754470e+03
   1.0083230e+03   1.5689860e+03
   1.0088050e+03   1.4580900e+03
   1.0092870e+03   1.3710910e+03
   1.0097690e+03   1.3124250e+03
   1.0102520e+03   1.2655100e+03
   1.0107340e+03   1.2313890e+03
   1.0112160e+03   1.1966570e+03
   1.0116980e+03   1.1360830e+03
   1.0121800e+03   1.0574200e+03
   1.0126620e+03   9.7421070e+02
   1.0131440e+03   8.8069240e+02
   1.0136260e+03   8.0579000e+02
   1.0141080e+03   7.6583890e+02
   1.0145910e+03   7.4423220e+02
   1.0150730e+03   7.3423540e+02
   1.0155550e+03   7.3930000e+02
   1.0160370e+03   7.1355830e+02
   1.0165190e+03   6.5617580e+02
   1.0170010e+03   5.9315260e+02
   1.0174830e+03   5.3276000e+02
   1.0179650e+03   4.8369460e+02
   1.0184480e+03   4.6376860e+02
   1.0189300e+03   4.6583540e+02
   1.0194120e+03   4.5789260e+02
   1.0198940e+03   4.2216210e+02
   1.0203760e+03   3.9647020e+02
   1.0208580e+03   3.9187260e+02
   1.0213400e+03   3.9432670e+02
   1.0218220e+03   3.7493900e+02
   1.0223040e+03   3.4006960e+02
   1.0227870e+03   3.1271290e+02
   1.0232690e+03   2.9835450e+02
   1.0237510e+03   2.9065720e+02
   1.0242330e+03   2.8762700e+02
   1.0247150e+03   2.8841280e+02
   1.0251970e+03   2.9469090e+02
   1.0256790e+03   3.0764230e+02
   1.0261610e+03   3.0720000e+02
   1.0266440e+03   2.9089700e+02
   1.0271260e+03   2.7430200e+02
   1.0276080e+03   2.6604440e+02
   1.0280900e+03   2.6265230e+02
   1.0285720e+03   2.5990140e+02
   1.0290540e+03   2.5748630e+02
   1.0295360e+03   2.5476340e+02
   1.0300180e+03   2.5819850e+02
   1.0305000e+03   2.5028080e+02
   1.0309830e+03   2.1807670e+02
   1.0314650e+03   1.8536940e+02
   1.0319470e+03   1.9997360e+02
   1.0324290e+03   2.5158860e+02
   1.0329110e+03   2.4144430e+02
   1.0333930e+03   1.5349370e+02
   1.0338750e+03   7.7511230e+01
   1.0343570e+03   1.0309910e+02
   1.0348390e+03   1.5323850e+02
   1.0353220e+03   1.6870680e+02
   1.0358040e+03   1.4523880e+02
   1.0362860e+03   1.2669650e+02
   1.0367680e+03   1.1568260e+02
   1.0372500e+03   9.7773680e+01
   1.0377320e+03   5.8587890e+01
   1.0382140e+03   2.0625730e+01
   1.0386960e+03   4.0235840e+01
   1.0391780e+03   9.0722170e+01
   1.0396610e+03   1.1145140e+02
   1.0401430e+03   5.4877200e+01
   1.0406250e+03   1.2200930e+01
   1.0411070e+03   1.0150150e+01
   1.0415890e+03   2.3546140e+01
   1.0420710e+03   3.3778560e+01
   1.0425530e+03   4.0944580e+01
   1.0430350e+03   4.4683350e+01
   1.0435180e+03   4.4990970e+01
   1.0440000e+03   3.9841310e+01
   1.0444820e+03   1.8449710e+01
   1.0449640e+03   9.4384800e-01
   1.0454460e+03   8.8769500e-01
   1.0459280e+03   1.9187500e+01
   1.0464100e+03   2.6487060e+01
   1.0468920e+03   1.8612060e+01
   1.0473750e+03   8.2292480e+00
   1.0478570e+03   4.2785640e+00
   1.0483390e+03   1.2854250e+01
   1.0488210e+03   2.7602540e+00
   1.0493030e+03   1.6817630e+01
   1.0497850e+03   2.7532710e+01
   1.0502670e+03   2.3843260e+01
   1.0507490e+03   1.9906010e+01
   1.0512310e+03   2.5841310e+01
   1.0517140e+03   2.6984860e+01
   1.0521960e+03   1.1274170e+01
   1.0526780e+03   1.7870120e+01
   1.0531600e+03   2.0458500e+01
   1.0536420e+03   7.6001000e-01
   1.0541240e+03   1.3188720e+01
   1.0546060e+03   1.1882320e+01
   1.0550880e+03   4.0396480e+01
   1.0555710e+03   4.7973390e+01
   1.0560530e+03   4.1210690e+01
   1.0565350e+03   3.1702150e+01
   1.0570170e+03   1.7641850e+01
   1.0574990e+03   9.4584960e+00
   1.0579810e+03   8.7739260e+00
   1.0584630e+03   1.0512700e+01
   1.0589450e+03   1.0743900e+01
   1.0594270e+03   9.2626950e+00
   1.0599100e+03   4.8425290e+00
   1.0603920e+03   2.2746580e+00
   1.0608740e+03   8.4182130e+00
   1.0613560e+03   1.3105960e+01
   1.0618380e+03   1.5435300e+01
   1.0623200e+03   1.5184810e+01
   1.0628020e+03   1.2403080e+01
   1.0632840e+03   5.2062990e+00
   1.0637660e+03   5.2429200e+00
   1.0642490e+03   1.0419190e+01
   1.0647310e+03   6.6972660e+00
   1.0652130e+03   1.8259280e+00
   1.0656950e+03   3.9909670e+00
   1.0661770e+03   6.1179200e+00
   1.0666590e+03   1.0432130e+00
   1.0671410e+03   2.0457520e+01
   1.0676230e+03   2.5223630e+01
   1.0681050e+03   1.2367920e+01
   1.0685880e+03   3.2082520e+00
   1.0690700e+03   1.8749270e+01
   1.0695520e+03   3.9996580e+01
   1.0700340e+03   3.3719480e+01
   1.0705160e+03   1.0568600e+01
   1.0709980e+03   6.1084000e-01
   1.0714800e+03   2.6224850e+01
   1.0719620e+03   4.2806880e+01
   1.0724450e+03   4.1245120e+01
   1.0729270e+03   3.3157710e+01
   1.0734090e+03   3.0767820e+01
   1.0738910e+03   3.3592770e+01
   1.0743730e+03   4.2992430e+01
   1.0748550e+03   5.8741210e+01
   1.0753370e+03   6.5864750e+01
   1.0758190e+03   4.2335940e+01
   1.0763020e+03   2.0983890e+01
   1.0767840e+03   2.5383060e+01
   1.0772660e+03   9.9958500e+00
   1.0777480e+03   4.2445310e+01
   1.0782300e+03   1.3580810e+01
   1.0787120e+03   4.0617680e+00
   1.0791940e+03   3.1884520e+01
   1.0796760e+03   6.4718750e+01
   1.0801580e+03   6.8687010e+01
   1.0806410e+03   5.8078120e+01
   1.0811230e+03   4.8128910e+01
   1.0816050e+03   4.0247560e+01
   1.0820870e+03   3.7790280e+01
   1.0825690e+03   4.1849610e+01
   1.0830510e+03   4.8581790e+01
   1.0835330e+03   5.7653810e+01
   1.0840150e+03   6.6798830e+01
   1.0844980e+03   7.0593260e+01
   1.0849800e+03   6.9862550e+01
   1.0854620e+03   6.7153810e+01
   1.0859440e+03   5.9434940e+01
   1.0864260e+03   5.5014040e+01
   1.0869080e+03   5.6283570e+01
   1.0873900e+03   6.0492920e+01
   1.0878720e+03   6.5449950e+01
   1.0883540e+03   7.0996700e+01
   1.0888370e+03   7.5162480e+01
   1.0893190e+03   7.7894290e+01
   1.0898010e+03   8.0096190e+01
   1.0902830e+03   8.0689700e+01
   1.0907650e+03   8.2567020e+01
   1.0912470e+03   9.0668330e+01
   1.0917290e+03   1.0154770e+02
   1.0922110e+03   1.0210660e+02
   1.0926930e+03   9.0245000e+01
   1.0931760e+03   8.3111330e+01
   1.0936580e+03   8.5748660e+01
   1.0941400e+03   8.8613040e+01
   1.0946220e+03   7.5734860e+01
   1.0951040e+03   5.9444340e+01
   1.0955860e+03   5.6429930e+01
   1.0960680e+03   7.1892820e+01
   1.0965500e+03   8.1273320e+01
   1.0970320e+03   7.9654660e+01
   1.0975150e+03   8.0093990e+01
   1.0979970e+03   9.0993900e+01
   1.0984790e+03   1.0501120e+02
   1.0989610e+03   9.9677250e+01
   1.0994430e+03   8.3584350e+01
   1.0999250e+03   7.9673340e+01
   1.1004070e+03   1.0833000e+02
   1.1008890e+03   1.2773840e+02
   1.1013720e+03   1.2184750e+02
   1.1018540e+03   1.0805100e+02
   1.1023360e+03   9.6617070e+01
   1.1028180e+03   8.7855220e+01
   1.1033000e+03   9.2159790e+01
   1.1037820e+03   1.0809990e+02
   1.1042640e+03   1.1871090e+02
   1.1047460e+03   1.1010740e+02
   1.1052290e+03   9.6552980e+01
   1.1057110e+03   8.2138180e+01
   1.1061930e+03   6.9657230e+01
   1.1066750e+03   6.5919070e+01
   1.1071570e+03   7.2679200e+01
   1.1076390e+03   7.5482420e+01
   1.1081210e+03   7.0760620e+01
   1.1086030e+03   6.6935910e+01
   1.1090850e+03   7.7142330e+01
   1.1095680e+03   8.8063230e+01
   1.1100500e+03   8.0368530e+01
   1.1105320e+03   5.3860350e+01
   1.1110140e+03   4.5959960e+01
   1.1114960e+03   6.6643550e+01
   1.1119780e+03   8.6965330e+01
   1.1124600e+03   9.9020870e+01
   1.1129420e+03   1.0480220e+02
   1.1134250e+03   1.1147240e+02
   1.1139070e+03   1.1692610e+02
   1.1143890e+03   1.1409130e+02
   1.1148710e+03   9.9689450e+01
   1.1153530e+03   8.8214840e+01
   1.1158350e+03   8.3973270e+01
   1.1163170e+03   8.0786740e+01
   1.1167990e+03   7.3462040e+01
   1.1172810e+03   6.6027590e+01
   1.1177640e+03   8.4810060e+01
   1.1182460e+03   1.1964550e+02
   1.1187280e+03   1.2754550e+02
   1.1192100e+03   6.6331180e+01
   1.1196920e+03   1.5204470e+01
   1.1201740e+03   1.7693600e+01
   1.1206560e+03   3.7946170e+01
   1.1211380e+03   4.3535640e+01
   1.1216200e+03   3.3144410e+01
   1.1221030e+03   3.7672240e+01
   1.1225850e+03   5.7228880e+01
   1.1230670e+03   7.1232420e+01
   1.1235490e+03   6.1927370e+01
   1.1240310e+03   4.6425900e+01
   1.1245130e+03   3.2923100e+01
   1.1249950e+03   2.3005620e+01
   1.1254770e+03   2.1134640e+01
   1.1259590e+03   3.1292480e+01
   1.1264420e+03   2.8479370e+01
   1.1269240e+03   8.0495610e+00
   1.1274060e+03   1.1369380e+01
   1.1278880e+03   1.0359500e+01
   1.1283700e+03   4.0722700e-01
   1.1288520e+03   1.0788700e+01
   1.1293340e+03   2.0502080e+01
   1.1298160e+03   2.8802490e+01
   1.1302990e+03   3.5000000e+01
   1.1307810e+03   4.1962160e+01
   1.1312630e+03   5.1316280e+01
   1.1317450e+03   5.9514160e+01
   1.1322270e+03   6.3102050e+01
   1.1327090e+03   6.1329220e+01
   1.1331910e+03   4.9139650e+01
   1.1336730e+03   2.3061650e+01
   1.1341560e+03   1.2814330e+01
   1.1346380e+03   3.6120000e+01
   1.1351200e+03   5.8441890e+01
   1.1356020e+03   6.6646730e+01
   1.1360840e+03   6.4245970e+01
   1.1365660e+03   5.9545900e+01
   1.1370480e+03   5.2876950e+01
   1.1375300e+03   4.2831910e+01
   1.1380120e+03   2.3877200e+01
   1.1384950e+03   1.3731570e+01
   1.1389770e+03   3.0567020e+01
   1.1394590e+03   4.7427490e+01
   1.1399410e+03   4.4461180e+01
   1.1404230e+03   2.4272710e+01
   1.1409050e+03   1.8622310e+01
   1.1413870e+03   2.6025880e+01
   1.1418690e+03   3.1932620e+01
   1.1423520e+03   2.1794310e+01
   1.1428340e+03   1.2537720e+01
   1.1433160e+03   1.3557010e+01
   1.1437980e+03   2.1357420e+01
   1.1442800e+03   3.2500490e+01
   1.1447620e+03   4.8289180e+01
   1.1452440e+03   5.1164550e+01
   1.1457260e+03   4.0360110e+01
   1.1462080e+03   2.8475950e+01
   1.1466910e+03   2.0708250e+01
   1.1471730e+03   1.9508300e+01
   1.1476550e+03   3.2668820e+01
   1.1481370e+03   5.3420170e+01
   1.1486190e+03   6.0857420e+01
   1.1491010e+03   5.0595830e+01
   1.1495830e+03   4.8657230e+01
   1.1500650e+03   5.9230220e+01
   1.1505470e+03   7.1056030e+01
   1.1510300e+03   7.1345950e+01
   1.1515120e+03   6.8182860e+01
   1.1519940e+03   7.2269780e+01
   1.1524760e+03   8.3232420e+01
   1.1529580e+03   8.6827640e+01
   1.1534400e+03   8.0155760e+01
   1.1539220e+03   7.3502690e+01
   1.1544040e+03   6.8588870e+01
   1.1548860e+03   6.4720340e+01
   1.1553690e+03   6.1393070e+01
   1.1558510e+03   5.8367070e+01
   1.1563330e+03   5.4124390e+01
   1.1568150e+03   4.7668580e+01
   1.1572970e+03   5.0005000e+01
   1.1577790e+03   6.9590700e+01
   1.1582610e+03   8.0849980e+01
   1.1587430e+03   7.1653320e+01
   1.1592260e+03   5.2149050e+01
   1.1597080e+03   4.1434450e+01
   1.1601900e+03   3.6671510e+01
   1.1606720e+03   3.1541140e+01
   1.1611540e+03   2.3696900e+01
   1.1616360e+03   1.9525510e+01
   1.1621180e+03   2.3675290e+01
   1.1626000e+03   2.6304570e+01
   1.1630830e+03   2.1608890e+01
   1.1635650e+03   1.1584230e+01
   1.1640470e+03   1.1218260e+00
   1.1645290e+03   1.3588990e+01
   1.1650110e+03   1.5697880e+01
   1.1654930e+03   5.6644290e+00
   1.1659750e+03   2.2681400e+01
   1.1664570e+03   2.4377560e+01
   1.1669390e+03   2.2489750e+01
   1.1674220e+03   2.5975950e+01
   1.1679040e+03   3.3831540e+01
   1.1683860e+03   3.8275150e+01
   1.1688680e+03   3.9539180e+01
   1.1693500e+03   3.8898680e+01
   1.1698320e+03   3.7044430e+01
   1.1703140e+03   3.3444340e+01
   1.1707960e+03   1.9111820e+01
   1.1712790e+03   8.8627930e+00
   1.1717610e+03   2.6451660e+01
   1.1722430e+03   6.9144780e+01
   1.1727250e+03   8.2807010e+01
   1.1732070e+03   6.6000730e+01
   1.1736890e+03   4.9423950e+01
   1.1741710e+03   5.8306400e+01
   1.1746530e+03   6.8243770e+01
   1.1751350e+03   6.2211790e+01
   1.1756180e+03   5.0260740e+01
   1.1761000e+03   5.1902950e+01
   1.1765820e+03   6.7196530e+01
   1.1770640e+03   6.5684810e+01
   1.1775460e+03   4.3104490e+01
   1.1780280e+03   2.7587160e+01
   1.1785100e+03   5.1254760e+01
   1.1789920e+03   7.9688350e+01
   1.1794740e+03   9.2751710e+01
   1.1799570e+03   9.0914180e+01
   1.1804390e+03   7.2425420e+01
   1.1809210e+03   3.5529170e+01
   1.1814030e+03   1.4149170e+01
   1.1818850e+03   1.5727290e+01
   1.1823670e+03   2.5660640e+01
   1.1828490e+03   3.3130370e+01
   1.1833310e+03   4.1575070e+01
   1.1838130e+03   5.7675170e+01
   1.1842960e+03   7.8876830e+01
   1.1847780e+03   8.4650760e+01
   1.1852600e+03   7.2508790e+01
   1.1857420e+03   6.3712520e+01
   1.1862240e+03   6.5885010e+01
   1.1867060e+03   6.8815310e+01
   1.1871880e+03   5.7028320e+01
   1.1876700e+03   4.3639770e+01
   1.1881530e+03   4.7427860e+01
   1.1886350e+03   7.0101810e+01
   1.1891170e+03   7.4053100e+01
   1.1895990e+03   5.7563350e+01
   1.1900810e+03   3.4652100e+01
   1.1905630e+03   4.9262700e+00
   1.1910450e+03   1.6649780e+01
   1.1915270e+03   8.1038820e+00
   1.1920100e+03   1.5396240e+01
   1.1924920e+03   3.7927980e+01
   1.1929740e+03   5.9315670e+01
   1.1934560e+03   6.4581910e+01
   1.1939380e+03   5.0232540e+01
   1.1944200e+03   4.3123170e+01
   1.1949020e+03   6.4344600e+01
   1.1953840e+03   8.7538940e+01
   1.1958660e+03   7.3007450e+01
   1.1963490e+03   8.2636600e+01
   1.1968310e+03   8.0777710e+01
   1.1973130e+03   6.1824460e+01
   1.1977950e+03   6.2915650e+01
   1.1982770e+03   3.1563840e+01
   1.1987590e+03   1.2888180e+00
   1.1992410e+03   2.0715820e+01
   1.1997230e+03   2.6895510e+01
   1.2002060e+03   1.2212770e+01
   1.2006880e+03   1.3562740e+01
   1.2011700e+03   3.2471920e+01
   1.2016520e+03   3.9670040e+01
   1.2021340e+03   4.5201780e+01
   1.2026160e+03   4.9029910e+01
   1.2030980e+03   5.1513310e+01
   1.2035800e+03   5.0206540e+01
   1.2040630e+03   4.9558590e+01
   1.2045450e+03   6.1330930e+01
   1.2050270e+03   7.7544070e+01
   1.2055090e+03   7.7084470e+01
   1.2059910e+03   4.7600830e+01
   1.2064730e+03   2.4897580e+01
   1.2069550e+03   1.0372070e+01
   1.2074370e+03   3.0285640e+00
   1.2079190e+03   3.4750980e+00
   1.2084010e+03   9.4084470e+00
   1.2088840e+03   2.4206420e+01
   1.2093660e+03   4.2468630e+01
   1.2098480e+03   4.3915160e+01
   1.2103300e+03   1.7175780e+01
   1.2108120e+03   6.2622003e-02
   1.2112940e+03   3.7230220e+00
   1.2117760e+03   3.0407700e-01
   1.2122580e+03   8.8272710e+00
   1.2127400e+03   2.0509770e+01
   1.2132230e+03   3.6871460e+01
   1.2137050e+03   5.5608030e+01
   1.2141870e+03   6.4724240e+01
   1.2146690e+03   6.0844240e+01
   1.2151510e+03   5.6695310e+01
   1.2156330e+03   5.4679080e+01
   1.2161150e+03   4.9458370e+01
   1.2165970e+03   2.7234500e+01
   1.2170800e+03   3.9487300e+00
   1.2175620e+03   1.6976320e+00
   1.2180440e+03   1.8714600e+01
   1.2185260e+03   3.0795410e+01
   1.2190080e+03   3.4766720e+01
   1.2194900e+03   3.7726810e+01
   1.2199720e+03   4.0807370e+01
   1.2204540e+03   4.3985840e+01
   1.2209370e+03   4.7491820e+01
   1.2214190e+03   5.0694580e+01
   1.2219010e+03   5.1978030e+01
   1.2223830e+03   5.1238280e+01
   1.2228650e+03   5.3819580e+01
   1.2233470e+03   6.3507080e+01
   1.2238290e+03   6.7059570e+01
   1.2243110e+03   6.0288090e+01
   1.2247930e+03   5.1554690e+01
   1.2252760e+03   5.3107910e+01
   1.2257580e+03   5.6479250e+01
   1.2262400e+03   5.1642700e+01
   1.2267220e+03   3.7825440e+01
   1.2272040e+03   2.4011600e+01
   1.2276860e+03   7.8803710e+00
   1.2281680e+03   6.9620360e+00
   1.2286500e+03   3.0535770e+01
   1.2291330e+03   5.2725220e+01
   1.2296150e+03   3.2043210e+01
   1.2300970e+03   2.6303710e+00
   1.2305790e+03   6.2113040e+00
   1.2310610e+03   4.5080200e+01
   1.2315430e+03   5.8294680e+01
   1.2320250e+03   4.2019780e+01
   1.2325070e+03   3.1076050e+01
   1.2329900e+03   3.7239620e+01
   1.2334720e+03   4.7755000e+01
   1.2339540e+03   5.2264280e+01
   1.2344360e+03   5.2189580e+01
   1.2349180e+03   4.6896120e+01
   1.2354000e+03   3.6955080e+01
   1.2358820e+03   3.3796260e+01
   1.2363640e+03   3.8119140e+01
   1.2368460e+03   4.1248660e+01
   1.2373280e+03   3.9494020e+01
   1.2378110e+03   3.8150270e+01
   1.2382930e+03   4.1655520e+01
   1.2387750e+03   4.8292360e+01
   1.2392570e+03   6.0174070e+01
   1.2397390e+03   7.6238890e+01
   1.2402210e+03   6.8787110e+01
   1.2407030e+03   3.8049560e+01
   1.2411850e+03   1.9434330e+01
   1.2416670e+03   3.0047120e+01
   1.2421500e+03   4.3820680e+01
   1.2426320e+03   4.2142460e+01
   1.2431140e+03   3.2299800e+01
   1.2435960e+03   1.8065310e+01
   1.2440780e+03   6.8481400e-01
   1.2445600e+03   4.3486330e+00
   1.2450420e+03   2.7777100e+00
   1.2455240e+03   1.7646120e+01
   1.2460070e+03   4.4493160e+01
   1.2464890e+03   6.3636470e+01
   1.2469710e+03   5.4739870e+01
   1.2474530e+03   4.1311400e+01
   1.2479350e+03   3.5651000e+01
   1.2484170e+03   3.6458740e+01
   1.2488990e+03   3.7346070e+01
   1.2493810e+03   3.8292110e+01
   1.2498640e+03   3.9323970e+01
   1.2503460e+03   3.9504150e+01
   1.2508280e+03   3.8742680e+01
   1.2513100e+03   4.5691160e+01
   1.2517920e+03   5.2856570e+01
   1.2522740e+03   4.6181270e+01
   1.2527560e+03   2.9580930e+01
   1.2532380e+03   2.4153320e+01
   1.2537200e+03   2.8536130e+01
   1.2542030e+03   3.7404790e+01
   1.2546850e+03   5.1892090e+01
   1.2551670e+03   6.1947270e+01
   1.2556490e+03   6.6224490e+01
   1.2561310e+03   6.5396610e+01
   1.2566130e+03   5.5297000e+01
   1.2570950e+03   4.0030030e+01
   1.2575770e+03   3.5458620e+01
   1.2580600e+03   3.9021000e+01
   1.2585420e+03   4.4706790e+01
   1.2590240e+03   5.5938960e+01
   1.2595060e+03   5.4971560e+01
   1.2599880e+03   2.9017940e+01
   1.2604700e+03   9.8278810e+00
   1.2609520e+03   2.0743160e+01
   1.2614340e+03   4.4998540e+01
   1.2619170e+03   3.7450930e+01
   1.2623990e+03   1.1558350e+01
   1.2628810e+03   2.1667480e+00
   1.2633630e+03   1.0106570e+01
   1.2638450e+03   2.4078740e+01
   1.2643270e+03   4.0186160e+01
   1.2648090e+03   5.1650760e+01
   1.2652910e+03   5.1993650e+01
   1.2657730e+03   4.8347410e+01
   1.2662550e+03   4.7741700e+01
   1.2667380e+03   4.9617190e+01
   1.2672200e+03   5.1834720e+01
   1.2677020e+03   5.2957280e+01
   1.2681840e+03   5.6036620e+01
   1.2686660e+03   6.2288700e+01
   1.2691480e+03   6.3462890e+01
   1.2696300e+03   5.1590580e+01
   1.2701120e+03   3.6749020e+01
   1.2705940e+03   2.9310790e+01
   1.2710770e+03   2.7608400e+01
   1.2715590e+03   2.9816280e+01
   1.2720410e+03   3.5578120e+01
   1.2725230e+03   4.6216670e+01
   1.2730050e+03   6.2107420e+01
   1.2734870e+03   6.3838500e+01
   1.2739690e+03   3.4427370e+01
   1.2744510e+03   5.7335210e+00
   1.2749340e+03   7.0496830e+00
   1.2754160e+03   2.1574340e+01
   1.2758980e+03   3.0054080e+01
   1.2763800e+03   3.1963990e+01
   1.2768620e+03   2.9935550e+01
   1.2773440e+03   2.4164310e+01
   1.2778260e+03   1.7342900e+01
   1.2783080e+03   6.5244140e+00
   1.2787910e+03   2.5053710e+00
   1.2792730e+03   2.0711550e+01
   1.2797550e+03   4.0406980e+01
   1.2802370e+03   4.3321900e+01
   1.2807190e+03   3.2109010e+01
   1.2812010e+03   3.0974370e+01
   1.2816830e+03   3.7043580e+01
   1.2821650e+03   3.7042240e+01
   1.2826470e+03   1.9308960e+01
   1.2831300e+03   5.5258790e+00
   1.2836120e+03   1.5639650e+00
   1.2840940e+03   3.6802980e+00
   1.2845760e+03   1.3689210e+01
   1.2850580e+03   2.6484380e+01
   1.2855400e+03   2.1227910e+01
   1.2860220e+03   4.7990720e+00
   1.2865040e+03   4.0458980e+00
   1.2869870e+03   4.2758790e+00
   1.2874690e+03   1.2369750e+01
   1.2879510e+03   2.0073360e+01
   1.2884330e+03   2.2094600e+01
   1.2889150e+03   9.9296880e+00
   1.2893970e+03   4.1347660e+00
   1.2898790e+03   9.0892330e+00
   1.2903610e+03   3.5131470e+01
   1.2908440e+03   4.7439700e+01
   1.2913260e+03   3.5404170e+01
   1.2918080e+03   2.2952760e+01
   1.2922900e+03   8.6296390e+00
   1.2927720e+03   1.8270260e+00
   1.2932540e+03   8.9318850e+00
   1.2937360e+03   2.2964480e+01
   1.2942180e+03   4.2616330e+01
   1.2947000e+03   5.9493770e+01
   1.2951820e+03   6.3701170e+01
   1.2956650e+03   5.3668090e+01
   1.2961470e+03   4.6787600e+01
   1.2966290e+03   4.5951050e+01
   1.2971110e+03   3.9201420e+01
   1.2975930e+03   1.5786740e+01
   1.2980750e+03   1.1412350e+00
   1.2985570e+03   1.7125490e+01
   1.2990390e+03   4.0325930e+01
   1.2995210e+03   4.0787600e+01
   1.3000040e+03   2.2347410e+01
   1.3004860e+03   1.6708740e+01
   1.3009680e+03   2.2874150e+01
   1.3014500e+03   2.1255370e+01
   1.3019320e+03   0.0000000e+00
   1.5000000e+03   0.0000000e+00
