   1.0000000e+02   0.0000000e+00
   1.3598570e+02   0.0000000e+00
   1.3646780e+02   2.5657960e+00
   1.3694990e+02   1.1575930e+00
   1.3743200e+02   1.0621830e+01
   1.3791420e+02   3.9713010e+01
   1.3839630e+02   5.6065310e+01
   1.3887840e+02   5.5014040e+01
   1.3936050e+02   4.3283080e+01
   1.3984260e+02   3.7636470e+01
   1.4032470e+02   3.9431150e+01
   1.4080690e+02   4.3660890e+01
   1.4128900e+02   4.7127810e+01
   1.4177110e+02   4.9123660e+01
   1.4225320e+02   5.2875000e+01
   1.4273530e+02   5.9607300e+01
   1.4321740e+02   6.8727540e+01
   1.4369960e+02   7.5610470e+01
   1.4418170e+02   8.0945920e+01
   1.4466380e+02   8.3174070e+01
   1.4514590e+02   8.0167850e+01
   1.4562800e+02   6.5044560e+01
   1.4611010e+02   5.5933470e+01
   1.4659230e+02   5.7560790e+01
   1.4707440e+02   7.1121700e+01
   1.4755650e+02   8.1653810e+01
   1.4803860e+02   9.0827510e+01
   1.4852070e+02   9.5999510e+01
   1.4900280e+02   9.3583130e+01
   1.4948500e+02   6.9947510e+01
   1.4996710e+02   5.2909550e+01
   1.5044920e+02   5.1900630e+01
   1.5093130e+02   7.9409790e+01
   1.5141340e+02   9.2198610e+01
   1.5189550e+02   7.7060550e+01
   1.5237770e+02   4.9010860e+01
   1.5285980e+02   3.4065190e+01
   1.5334190e+02   4.5373410e+01
   1.5382400e+02   6.0625490e+01
   1.5430610e+02   7.2887940e+01
   1.5478820e+02   8.3492310e+01
   1.5527040e+02   8.7596560e+01
   1.5575250e+02   7.9982300e+01
   1.5623460e+02   6.4516600e+01
   1.5671670e+02   5.3007690e+01
   1.5719880e+02   4.4591060e+01
   1.5768090e+02   4.2694210e+01
   1.5816310e+02   4.9238280e+01
   1.5864520e+02   7.9760250e+01
   1.5912730e+02   1.0333180e+02
   1.5960940e+02   1.0711100e+02
   1.6009150e+02   9.3861820e+01
   1.6057370e+02   8.4958370e+01
   1.6105580e+02   9.0353270e+01
   1.6153790e+02   1.0185160e+02
   1.6202000e+02   1.1247070e+02
   1.6250210e+02   1.2125240e+02
   1.6298420e+02   1.2750890e+02
   1.6346640e+02   1.3072130e+02
   1.6394850e+02   1.3087590e+02
   1.6443060e+02   1.2853960e+02
   1.6491270e+02   1.2001270e+02
   1.6539480e+02   1.1009850e+02
   1.6587690e+02   1.0505140e+02
   1.6635910e+02   1.1698100e+02
   1.6684120e+02   1.2834180e+02
   1.6732330e+02   1.2450490e+02
   1.6780540e+02   1.0166590e+02
   1.6828750e+02   8.0920900e+01
   1.6876960e+02   7.9158200e+01
   1.6925180e+02   8.8994630e+01
   1.6973390e+02   9.6094120e+01
   1.7021600e+02   8.8229370e+01
   1.7069810e+02   7.6847660e+01
   1.7118020e+02   7.3875610e+01
   1.7166230e+02   8.3679200e+01
   1.7214450e+02   9.4581050e+01
   1.7262660e+02   9.6029300e+01
   1.7310870e+02   9.0313110e+01
   1.7359080e+02   8.4757690e+01
   1.7407290e+02   8.4708740e+01
   1.7455500e+02   8.7261470e+01
   1.7503720e+02   8.8285890e+01
   1.7551930e+02   8.6400390e+01
   1.7600140e+02   8.3600340e+01
   1.7648350e+02   8.1351440e+01
   1.7696560e+02   7.9786870e+01
   1.7744770e+02   7.9864260e+01
   1.7792990e+02   8.1999760e+01
   1.7841200e+02   8.6310420e+01
   1.7889410e+02   9.3563720e+01
   1.7937620e+02   1.0810830e+02
   1.7985830e+02   1.2237510e+02
   1.8034040e+02   1.2121170e+02
   1.8082260e+02   1.0502860e+02
   1.8130470e+02   8.9063230e+01
   1.8178680e+02   8.9071530e+01
   1.8226890e+02   1.0103170e+02
   1.8275100e+02   1.1206880e+02
   1.8323310e+02   1.1647660e+02
   1.8371530e+02   1.1725950e+02
   1.8419740e+02   1.2302930e+02
   1.8467950e+02   1.3449660e+02
   1.8516160e+02   1.4301660e+02
   1.8564370e+02   1.3483230e+02
   1.8612580e+02   1.1292310e+02
   1.8660800e+02   9.4874270e+01
   1.8709010e+02   9.0690190e+01
   1.8757220e+02   9.6545900e+01
   1.8805430e+02   9.8820800e+01
   1.8853640e+02   9.7077640e+01
   1.8901860e+02   9.2884280e+01
   1.8950070e+02   8.6222410e+01
   1.8998280e+02   7.7460210e+01
   1.9046490e+02   7.2541750e+01
   1.9094700e+02   7.8717290e+01
   1.9142910e+02   9.3213380e+01
   1.9191130e+02   9.7859130e+01
   1.9239340e+02   8.9742920e+01
   1.9287550e+02   7.5711430e+01
   1.9335760e+02   6.6663820e+01
   1.9383970e+02   6.1698000e+01
   1.9432180e+02   5.9505860e+01
   1.9480400e+02   6.0213380e+01
   1.9528610e+02   6.3746580e+01
   1.9576820e+02   6.4721680e+01
   1.9625030e+02   6.2058590e+01
   1.9673240e+02   5.7461430e+01
   1.9721450e+02   5.5305420e+01
   1.9769670e+02   5.6147710e+01
   1.9817880e+02   5.6400630e+01
   1.9866090e+02   5.2051510e+01
   1.9914300e+02   4.2777100e+01
   1.9962510e+02   3.7887700e+01
   2.0010720e+02   3.9733400e+01
   2.0058940e+02   4.6035160e+01
   2.0107150e+02   4.8967290e+01
   2.0155360e+02   4.7397950e+01
   2.0203570e+02   4.6031740e+01
   2.0251780e+02   5.0216060e+01
   2.0299990e+02   6.1357180e+01
   2.0348210e+02   6.6484380e+01
   2.0396420e+02   6.0410640e+01
   2.0444630e+02   4.6300050e+01
   2.0492840e+02   4.3915770e+01
   2.0541050e+02   5.6695800e+01
   2.0589260e+02   7.2649410e+01
   2.0637480e+02   8.0843990e+01
   2.0685690e+02   8.0000490e+01
   2.0733900e+02   7.7429440e+01
   2.0782110e+02   7.4962890e+01
   2.0830320e+02   7.2431640e+01
   2.0878530e+02   6.5784180e+01
   2.0926750e+02   5.2994140e+01
   2.0974960e+02   4.0021240e+01
   2.1023170e+02   3.4669190e+01
   2.1071380e+02   4.0158690e+01
   2.1119590e+02   4.2359860e+01
   2.1167800e+02   3.7076170e+01
   2.1216020e+02   2.3095700e+01
   2.1264230e+02   1.7033690e+01
   2.1312440e+02   2.0930910e+01
   2.1360650e+02   3.1972410e+01
   2.1408860e+02   4.7511230e+01
   2.1457070e+02   7.0890620e+01
   2.1505290e+02   8.8961670e+01
   2.1553500e+02   9.5326660e+01
   2.1601710e+02   8.7408200e+01
   2.1649920e+02   8.7701660e+01
   2.1698130e+02   9.7379880e+01
   2.1746340e+02   1.1403120e+02
   2.1794560e+02   1.3454760e+02
   2.1842770e+02   1.6095560e+02
   2.1890980e+02   1.8706130e+02
   2.1939190e+02   2.1092460e+02
   2.1987400e+02   2.3271390e+02
   2.2035620e+02   2.5205100e+02
   2.2083830e+02   2.6715990e+02
   2.2132040e+02   2.8067580e+02
   2.2180250e+02   2.9736620e+02
   2.2228460e+02   3.1773850e+02
   2.2276670e+02   3.4160380e+02
   2.2324890e+02   3.6800630e+02
   2.2373100e+02   3.9301880e+02
   2.2421310e+02   4.3125170e+02
   2.2469520e+02   4.8337350e+02
   2.2517730e+02   5.4858470e+02
   2.2565940e+02   6.2598780e+02
   2.2614160e+02   7.2699760e+02
   2.2662370e+02   8.2335620e+02
   2.2710580e+02   9.1227200e+02
   2.2758790e+02   1.0209780e+03
   2.2807000e+02   1.0460090e+03
   2.2855210e+02   9.6505910e+02
   2.2903430e+02   8.0843750e+02
   2.2951640e+02   6.4661940e+02
   2.2999850e+02   4.5961740e+02
   2.3048060e+02   2.9987110e+02
   2.3096270e+02   1.9685890e+02
   2.3144480e+02   1.7400000e+02
   2.3192700e+02   1.5560380e+02
   2.3240910e+02   1.4155660e+02
   2.3289120e+02   1.3079320e+02
   2.3337330e+02   1.1933740e+02
   2.3385540e+02   1.0431840e+02
   2.3433750e+02   9.2556150e+01
   2.3481970e+02   8.8356450e+01
   2.3530180e+02   9.6557130e+01
   2.3578390e+02   1.0185250e+02
   2.3626600e+02   1.0265090e+02
   2.3674810e+02   9.9990480e+01
   2.3723020e+02   9.6903080e+01
   2.3771240e+02   8.9136960e+01
   2.3819450e+02   8.6692380e+01
   2.3867660e+02   9.7316890e+01
   2.3915870e+02   1.3312180e+02
   2.3964080e+02   1.5646390e+02
   2.4012290e+02   1.6019920e+02
   2.4060510e+02   1.4883010e+02
   2.4108720e+02   1.4360350e+02
   2.4156930e+02   1.4560890e+02
   2.4205140e+02   1.5229880e+02
   2.4253350e+02   1.6308810e+02
   2.4301560e+02   1.8284790e+02
   2.4349780e+02   1.9710450e+02
   2.4397990e+02   2.0577660e+02
   2.4446200e+02   2.0811470e+02
   2.4494410e+02   1.9949540e+02
   2.4542620e+02   1.7453370e+02
   2.4590830e+02   1.4511820e+02
   2.4639050e+02   1.1717070e+02
   2.4687260e+02   8.6009520e+01
   2.4735470e+02   6.7001950e+01
   2.4783680e+02   6.7643550e+01
   2.4831890e+02   8.3787600e+01
   2.4880100e+02   8.5406980e+01
   2.4928320e+02   6.4138670e+01
   2.4976530e+02   3.9375730e+01
   2.5024740e+02   2.4924320e+01
   2.5072950e+02   2.5469240e+01
   2.5121160e+02   2.6469970e+01
   2.5169380e+02   2.6286620e+01
   2.5217590e+02   2.5285890e+01
   2.5265800e+02   2.6817630e+01
   2.5314010e+02   3.4549560e+01
   2.5362220e+02   3.9941650e+01
   2.5410430e+02   3.5195560e+01
   2.5458650e+02   1.2885500e+01
   2.5506860e+02   2.0815430e+00
   2.5555070e+02   4.5642090e+00
   2.5603280e+02   3.8881840e+00
   2.5651490e+02   9.9953610e+00
   2.5699700e+02   1.3040280e+01
   2.5747920e+02   1.4583010e+01
   2.5796130e+02   1.5720950e+01
   2.5844340e+02   1.6443360e+01
   2.5892550e+02   1.6356690e+01
   2.5940760e+02   1.5031010e+01
   2.5988970e+02   1.2616210e+01
   2.6037190e+02   1.0676270e+01
   2.6085400e+02   8.9470210e+00
   2.6133610e+02   7.9816890e+00
   2.6181820e+02   8.5732420e+00
   2.6230030e+02   1.1701170e+01
   2.6278240e+02   1.3325440e+01
   2.6326460e+02   1.2069580e+01
   2.6374670e+02   8.5114750e+00
   2.6422880e+02   7.5173340e+00
   2.6471090e+02   1.0176270e+01
   2.6519300e+02   1.3479000e+01
   2.6567510e+02   1.4127200e+01
   2.6615730e+02   9.8798830e+00
   2.6663940e+02   1.2103520e+01
   2.6712150e+02   2.8470700e+01
   2.6760360e+02   5.3896000e+01
   2.6808570e+02   5.1099610e+01
   2.6856780e+02   7.6760250e+00
   2.6905000e+02   3.7430180e+01
   2.6953210e+02   5.0479980e+01
   2.7001420e+02   2.2797610e+01
   2.7049630e+02   9.7998000e-01
   2.7097840e+02   6.4721680e+00
   2.7146050e+02   2.2353520e+00
   2.7194270e+02   1.4331100e-01
   2.7242480e+02   8.4155300e-01
   2.7290690e+02   8.2006800e-01
   2.7338900e+02   7.2880860e+00
   2.7387110e+02   2.0422850e+01
   2.7435320e+02   2.6909420e+01
   2.7483540e+02   2.2576170e+01
   2.7531750e+02   1.0288090e+01
   2.7579960e+02   3.3454590e+00
   2.7628170e+02   3.0969240e+00
   2.7676380e+02   3.5424800e+00
   2.7724590e+02   1.5173340e+00
   2.7772810e+02   1.3045900e+01
   2.7821020e+02   1.9151610e+01
   2.7869230e+02   1.6468750e+01
   2.7917440e+02   7.7370610e+00
   2.7965650e+02   3.2229000e+00
   2.8013860e+02   3.6936040e+00
   2.8062080e+02   4.9907230e+00
   2.8110290e+02   3.3862300e+00
   2.8158500e+02   1.1840820e+00
   2.8206710e+02   4.0961910e+00
   2.8254920e+02   5.0329590e+00
   2.8303130e+02   3.6037600e+00
   2.8351350e+02   4.1689450e+00
   2.8399560e+02   1.9622560e+01
   2.8447770e+02   3.0517330e+01
   2.8495980e+02   2.4283450e+01
   2.8544190e+02   2.2854000e+00
   2.8592400e+02   1.5750490e+01
   2.8640620e+02   2.6500000e+01
   2.8688830e+02   3.2179690e+01
   2.8737040e+02   3.7189450e+01
   2.8785250e+02   4.1501460e+01
   2.8833460e+02   4.5893070e+01
   2.8881670e+02   4.9707760e+01
   2.8929890e+02   5.3509770e+01
   2.8978100e+02   6.1654790e+01
   2.9026310e+02   7.7110350e+01
   2.9074520e+02   9.3536870e+01
   2.9122730e+02   9.4194340e+01
   2.9170940e+02   7.9882320e+01
   2.9219160e+02   7.1519290e+01
   2.9267370e+02   8.8676510e+01
   2.9315580e+02   1.2420210e+02
   2.9363790e+02   1.5127760e+02
   2.9412000e+02   1.6394020e+02
   2.9460210e+02   1.7292360e+02
   2.9508430e+02   1.9757010e+02
   2.9556640e+02   2.3567310e+02
   2.9604850e+02   2.7164890e+02
   2.9653060e+02   2.8909280e+02
   2.9701280e+02   2.9732500e+02
   2.9749490e+02   3.2080910e+02
   2.9797700e+02   3.6554390e+02
   2.9845910e+02   4.1795020e+02
   2.9894120e+02   4.5944700e+02
   2.9942330e+02   4.9332010e+02
   2.9990550e+02   5.3342020e+02
   3.0038760e+02   5.8894750e+02
   3.0086970e+02   6.5534300e+02
   3.0135180e+02   7.2638790e+02
   3.0183390e+02   8.0087430e+02
   3.0231600e+02   8.8135450e+02
   3.0279820e+02   9.7342310e+02
   3.0328030e+02   1.0747060e+03
   3.0376240e+02   1.1701030e+03
   3.0424450e+02   1.2841020e+03
   3.0472660e+02   1.3743460e+03
   3.0520870e+02   1.3880320e+03
   3.0569090e+02   1.3153730e+03
   3.0617300e+02   1.1954820e+03
   3.0665510e+02   1.0333880e+03
   3.0713720e+02   8.4967650e+02
   3.0761930e+02   6.8347050e+02
   3.0810140e+02   5.5412620e+02
   3.0858360e+02   4.5247190e+02
   3.0906570e+02   3.7328930e+02
   3.0954780e+02   3.1730860e+02
   3.1002990e+02   2.7441040e+02
   3.1051200e+02   2.4480180e+02
   3.1099410e+02   2.2338500e+02
   3.1147630e+02   2.0200390e+02
   3.1195840e+02   1.7310420e+02
   3.1244050e+02   1.4639140e+02
   3.1292260e+02   1.2796610e+02
   3.1340470e+02   1.1807350e+02
   3.1388680e+02   1.1338570e+02
   3.1436900e+02   1.1447610e+02
   3.1485110e+02   1.1884330e+02
   3.1533320e+02   1.2365720e+02
   3.1581530e+02   1.2619190e+02
   3.1629740e+02   1.3046630e+02
   3.1677950e+02   1.4216190e+02
   3.1726170e+02   1.6106980e+02
   3.1774380e+02   1.7118700e+02
   3.1822590e+02   1.5641280e+02
   3.1870800e+02   1.3480660e+02
   3.1919010e+02   1.2255270e+02
   3.1967220e+02   1.2967360e+02
   3.2015440e+02   1.4109200e+02
   3.2063650e+02   1.5452780e+02
   3.2111860e+02   1.6942310e+02
   3.2160070e+02   1.8081350e+02
   3.2208280e+02   1.7713260e+02
   3.2256490e+02   1.7557670e+02
   3.2304710e+02   1.8775590e+02
   3.2352920e+02   2.3340500e+02
   3.2401130e+02   2.7364870e+02
   3.2449340e+02   2.9922610e+02
   3.2497550e+02   3.1326510e+02
   3.2545760e+02   3.3296580e+02
   3.2593980e+02   3.6152510e+02
   3.2642190e+02   3.9327370e+02
   3.2690400e+02   4.2424220e+02
   3.2738610e+02   4.6005570e+02
   3.2786820e+02   4.9395290e+02
   3.2835030e+02   5.2582570e+02
   3.2883250e+02   5.5455270e+02
   3.2931460e+02   5.8025880e+02
   3.2979670e+02   6.1568190e+02
   3.3027880e+02   6.3502340e+02
   3.3076090e+02   6.2592940e+02
   3.3124300e+02   5.6818630e+02
   3.3172520e+02   5.2233250e+02
   3.3220730e+02   4.9358470e+02
   3.3268940e+02   4.7542750e+02
   3.3317150e+02   4.5215410e+02
   3.3365360e+02   4.1651590e+02
   3.3413570e+02   3.8721140e+02
   3.3461790e+02   3.7258960e+02
   3.3510000e+02   3.7673050e+02
   3.3558210e+02   3.7776000e+02
   3.3606420e+02   3.7100780e+02
   3.3654630e+02   3.6538650e+02
   3.3702840e+02   3.7717410e+02
   3.3751060e+02   4.1165260e+02
   3.3799270e+02   4.4804710e+02
   3.3847480e+02   4.8134740e+02
   3.3895690e+02   5.1201150e+02
   3.3943900e+02   5.3436500e+02
   3.3992110e+02   5.4944190e+02
   3.4040330e+02   5.5337990e+02
   3.4088540e+02   5.4015530e+02
   3.4136750e+02   5.0837160e+02
   3.4184960e+02   4.6661250e+02
   3.4233170e+02   4.1427270e+02
   3.4281380e+02   3.5519040e+02
   3.4329600e+02   3.0229760e+02
   3.4377810e+02   2.5508940e+02
   3.4426020e+02   2.1312790e+02
   3.4474230e+02   1.7773930e+02
   3.4522440e+02   1.4880130e+02
   3.4570650e+02   1.2260330e+02
   3.4618870e+02   9.6316650e+01
   3.4667080e+02   7.3713380e+01
   3.4715290e+02   7.0145510e+01
   3.4763500e+02   8.5302000e+01
   3.4811710e+02   9.6140620e+01
   3.4859920e+02   7.5761960e+01
   3.4908140e+02   3.5188230e+01
   3.4956350e+02   9.9360350e+00
   3.5004560e+02   8.7683110e+00
   3.5052770e+02   2.0723630e+01
   3.5100980e+02   3.7545410e+01
   3.5149190e+02   5.7018550e+01
   3.5197410e+02   6.7942630e+01
   3.5245620e+02   5.4200930e+01
   3.5293830e+02   3.0007080e+01
   3.5342040e+02   1.7913090e+01
   3.5390250e+02   2.2885500e+01
   3.5438460e+02   3.3473880e+01
   3.5486680e+02   4.2420410e+01
   3.5534890e+02   4.9221680e+01
   3.5583100e+02   5.2287600e+01
   3.5631310e+02   4.9405030e+01
   3.5679520e+02   4.3394530e+01
   3.5727730e+02   3.6734380e+01
   3.5775950e+02   2.9744140e+01
   3.5824160e+02   2.1237300e+01
   3.5872370e+02   1.1489260e+00
   3.5920580e+02   1.8971680e+01
   3.5968800e+02   2.2606200e+01
   3.6017010e+02   2.1942630e+01
   3.6065220e+02   6.3535890e+01
   3.6113430e+02   6.8610110e+01
   3.6161640e+02   3.5932370e+01
   3.6209850e+02   1.2537350e+01
   3.6258070e+02   2.5759280e+01
   3.6306280e+02   5.1819580e+01
   3.6354490e+02   6.9786620e+01
   3.6402700e+02   6.6756350e+01
   3.6450910e+02   6.3111570e+01
   3.6499120e+02   6.6129390e+01
   3.6547340e+02   7.4429200e+01
   3.6595550e+02   7.7131350e+01
   3.6643760e+02   6.0657960e+01
   3.6691970e+02   4.6279050e+01
   3.6740180e+02   4.5707030e+01
   3.6788390e+02   8.3262210e+01
   3.6836610e+02   1.0599760e+02
   3.6884820e+02   1.0008450e+02
   3.6933030e+02   7.7264400e+01
   3.6981240e+02   7.1125730e+01
   3.7029450e+02   9.7221440e+01
   3.7077660e+02   1.2335400e+02
   3.7125880e+02   1.3631420e+02
   3.7174090e+02   1.2745070e+02
   3.7222300e+02   1.2832180e+02
   3.7270510e+02   1.4312790e+02
   3.7318720e+02   1.6480100e+02
   3.7366930e+02   1.8267380e+02
   3.7415150e+02   1.9803250e+02
   3.7463360e+02   2.0592310e+02
   3.7511570e+02   2.0327730e+02
   3.7559780e+02   1.8963040e+02
   3.7607990e+02   1.7738720e+02
   3.7656200e+02   1.6884300e+02
   3.7704420e+02   1.5744040e+02
   3.7752630e+02   1.3246440e+02
   3.7800840e+02   9.1932370e+01
   3.7849050e+02   5.7140140e+01
   3.7897260e+02   3.2611330e+01
   3.7945470e+02   1.8119870e+01
   3.7993690e+02   1.5810550e+01
   3.8041900e+02   2.7728030e+01
   3.8090110e+02   3.7313230e+01
   3.8138320e+02   2.6235350e+01
   3.8186530e+02   1.6120610e+00
   3.8234740e+02   2.1212400e+01
   3.8282960e+02   2.8701900e+01
   3.8331170e+02   2.5699220e+01
   3.8379380e+02   8.4128420e+00
   3.8427590e+02   2.0904790e+01
   3.8475800e+02   4.2929690e+01
   3.8524010e+02   4.0550540e+01
   3.8572230e+02   2.3857670e+01
   3.8620440e+02   1.1124510e+01
   3.8668650e+02   3.7761230e+00
   3.8716860e+02   1.9536130e+00
   3.8765070e+02   9.1193850e+00
   3.8813280e+02   2.2121090e+01
   3.8861500e+02   3.3259520e+01
   3.8909710e+02   3.7266850e+01
   3.8957920e+02   3.8994140e+01
   3.9006130e+02   4.4584720e+01
   3.9054340e+02   5.4533690e+01
   3.9102550e+02   5.9459720e+01
   3.9150770e+02   5.0125490e+01
   3.9198980e+02   3.4073970e+01
   3.9247190e+02   2.0008790e+01
   3.9295400e+02   6.1423340e+00
   3.9343610e+02   4.4116200e-01
   3.9391820e+02   8.9157710e+00
   3.9440040e+02   3.1366460e+01
   3.9488250e+02   4.7374020e+01
   3.9536460e+02   4.7604250e+01
   3.9584670e+02   4.1211430e+01
   3.9632880e+02   3.3686280e+01
   3.9681090e+02   2.4118650e+01
   3.9729310e+02   1.5941410e+01
   3.9777520e+02   8.4716800e+00
   3.9825730e+02   2.6088870e+00
   3.9873940e+02   7.6245100e-01
   3.9922150e+02   7.8681640e+00
   3.9970360e+02   1.4620850e+01
   4.0018580e+02   1.7159180e+01
   4.0066790e+02   1.2236330e+01
   4.0115000e+02   1.3338870e+01
   4.0163210e+02   2.3593990e+01
   4.0211420e+02   3.7941160e+01
   4.0259630e+02   5.0515620e+01
   4.0307850e+02   6.3070800e+01
   4.0356060e+02   7.0254150e+01
   4.0404270e+02   6.9683590e+01
   4.0452480e+02   6.1680910e+01
   4.0500690e+02   5.5201420e+01
   4.0548900e+02   5.0243900e+01
   4.0597120e+02   4.5539310e+01
   4.0645330e+02   3.7357420e+01
   4.0693540e+02   2.4124760e+01
   4.0741750e+02   2.4542970e+01
   4.0789960e+02   4.5726810e+01
   4.0838170e+02   7.9303960e+01
   4.0886390e+02   1.0203320e+02
   4.0934600e+02   1.1315110e+02
   4.0982810e+02   1.1856370e+02
   4.1031020e+02   1.1756520e+02
   4.1079230e+02   1.1288960e+02
   4.1127440e+02   1.1685130e+02
   4.1175660e+02   1.3185550e+02
   4.1223870e+02   1.5019920e+02
   4.1272080e+02   1.6152880e+02
   4.1320290e+02   1.6768160e+02
   4.1368500e+02   1.7500270e+02
   4.1416710e+02   1.8736210e+02
   4.1464930e+02   2.0199930e+02
   4.1513140e+02   2.1734500e+02
   4.1561350e+02   2.3311960e+02
   4.1609560e+02   2.4456860e+02
   4.1657770e+02   2.4036250e+02
   4.1705980e+02   2.3064500e+02
   4.1754200e+02   2.3041650e+02
   4.1802410e+02   2.5112010e+02
   4.1850620e+02   2.7702440e+02
   4.1898830e+02   3.0392900e+02
   4.1947040e+02   3.3053740e+02
   4.1995260e+02   3.5070360e+02
   4.2043470e+02   3.5458230e+02
   4.2091680e+02   3.5714700e+02
   4.2139890e+02   3.6999490e+02
   4.2188100e+02   4.0475900e+02
   4.2236320e+02   4.2698880e+02
   4.2284530e+02   4.2098340e+02
   4.2332740e+02   3.9830810e+02
   4.2380950e+02   3.7841550e+02
   4.2429160e+02   3.6406420e+02
   4.2477370e+02   3.5260080e+02
   4.2525590e+02   3.4479880e+02
   4.2573800e+02   3.4182400e+02
   4.2622010e+02   3.3306520e+02
   4.2670220e+02   3.1097800e+02
   4.2718430e+02   2.8872880e+02
   4.2766640e+02   2.7766330e+02
   4.2814860e+02   2.7990410e+02
   4.2863070e+02   2.8903200e+02
   4.2911280e+02   3.0686870e+02
   4.2959490e+02   3.3050420e+02
   4.3007700e+02   3.4795020e+02
   4.3055910e+02   3.5715940e+02
   4.3104130e+02   3.6629760e+02
   4.3152340e+02   3.7848340e+02
   4.3200550e+02   3.9371880e+02
   4.3248760e+02   4.1682230e+02
   4.3296970e+02   4.4959960e+02
   4.3345180e+02   4.8589060e+02
   4.3393400e+02   5.1781250e+02
   4.3441610e+02   5.4532470e+02
   4.3489820e+02   5.6580830e+02
   4.3538030e+02   5.7630350e+02
   4.3586240e+02   5.8031570e+02
   4.3634450e+02   5.8308400e+02
   4.3682670e+02   5.8450950e+02
   4.3730880e+02   5.8606690e+02
   4.3779090e+02   5.9151220e+02
   4.3827300e+02   5.9841700e+02
   4.3875510e+02   5.9967800e+02
   4.3923720e+02   5.9386670e+02
   4.3971940e+02   5.8136250e+02
   4.4020150e+02   5.6240090e+02
   4.4068360e+02   5.3822730e+02
   4.4116570e+02   5.0795360e+02
   4.4164780e+02   4.6780690e+02
   4.4212990e+02   4.2481960e+02
   4.4261210e+02   3.8068990e+02
   4.4309420e+02   3.3396680e+02
   4.4357630e+02   2.9443900e+02
   4.4405840e+02   2.6974100e+02
   4.4454050e+02   2.5266310e+02
   4.4502260e+02   2.3344650e+02
   4.4550480e+02   2.0493260e+02
   4.4598690e+02   1.8037500e+02
   4.4646900e+02   1.6588040e+02
   4.4695110e+02   1.6137720e+02
   4.4743320e+02   1.5136840e+02
   4.4791530e+02   1.3028390e+02
   4.4839750e+02   1.0873070e+02
   4.4887960e+02   9.2302980e+01
   4.4936170e+02   8.0702880e+01
   4.4984380e+02   7.5615720e+01
   4.5032590e+02   8.0211430e+01
   4.5080800e+02   8.9725590e+01
   4.5129020e+02   9.2519780e+01
   4.5177230e+02   8.7538330e+01
   4.5225440e+02   8.0510500e+01
   4.5273650e+02   7.2823240e+01
   4.5321860e+02   6.4501220e+01
   4.5370070e+02   5.7107670e+01
   4.5418290e+02   5.0409420e+01
   4.5466500e+02   4.4793210e+01
   4.5514710e+02   4.2417970e+01
   4.5562920e+02   4.2846190e+01
   4.5611130e+02   4.1768070e+01
   4.5659340e+02   3.7369870e+01
   4.5707560e+02   3.2258540e+01
   4.5755770e+02   3.0486330e+01
   4.5803980e+02   3.1676270e+01
   4.5852190e+02   3.3577640e+01
   4.5900400e+02   3.2300290e+01
   4.5948610e+02   3.2035400e+01
   4.5996830e+02   4.2065670e+01
   4.6045040e+02   6.7636230e+01
   4.6093250e+02   8.5620850e+01
   4.6141460e+02   6.9163090e+01
   4.6189670e+02   3.4789790e+01
   4.6237880e+02   9.8503420e+00
   4.6286100e+02   1.1182620e+01
   4.6334310e+02   1.9257570e+01
   4.6382520e+02   2.7096920e+01
   4.6430730e+02   3.4089840e+01
   4.6478940e+02   3.5407710e+01
   4.6527150e+02   1.9790040e+01
   4.6575370e+02   4.5390630e+00
   4.6623580e+02   1.1127930e+00
   4.6671790e+02   2.4140870e+01
   4.6720000e+02   4.1479490e+01
   4.6768210e+02   5.0876950e+01
   4.6816420e+02   5.3486570e+01
   4.6864640e+02   5.1116460e+01
   4.6912850e+02   3.6653320e+01
   4.6961060e+02   2.7888180e+01
   4.7009270e+02   3.3791990e+01
   4.7057480e+02   5.6945800e+01
   4.7105690e+02   6.2993410e+01
   4.7153910e+02   4.4576420e+01
   4.7202120e+02   2.2366460e+01
   4.7250330e+02   2.0556880e+01
   4.7298540e+02   4.1237060e+01
   4.7346750e+02   5.2543950e+01
   4.7394960e+02   4.5751220e+01
   4.7443180e+02   2.8981930e+01
   4.7491390e+02   2.1714110e+01
   4.7539600e+02   2.3783690e+01
   4.7587810e+02   2.7310550e+01
   4.7636020e+02   2.9305180e+01
   4.7684230e+02   2.9104980e+01
   4.7732450e+02   2.4184080e+01
   4.7780660e+02   1.4015620e+01
   4.7828870e+02   2.6457520e+00
   4.7877080e+02   1.0110600e+01
   4.7925290e+02   2.0959230e+01
   4.7973500e+02   2.3728520e+01
   4.8021720e+02   1.0456790e+01
   4.8069930e+02   6.5109860e+00
   4.8118140e+02   2.2553710e+01
   4.8166350e+02   3.6376950e+01
   4.8214570e+02   4.1956540e+01
   4.8262780e+02   2.7454590e+01
   4.8310990e+02   9.8486330e+00
   4.8359200e+02   8.6914003e-02
   4.8407410e+02   1.5981450e+00
   4.8455620e+02   5.7729490e+00
   4.8503840e+02   1.1920170e+01
   4.8552050e+02   1.9354980e+01
   4.8600260e+02   2.7422850e+01
   4.8648470e+02   4.3888670e+01
   4.8696680e+02   5.0871830e+01
   4.8744890e+02   3.9424560e+01
   4.8793110e+02   1.1477540e+01
   4.8841320e+02   9.3432600e-01
   4.8889530e+02   1.7333980e+01
   4.8937740e+02   3.5025880e+01
   4.8985950e+02   3.4354490e+01
   4.9034160e+02   1.1182860e+01
   4.9082380e+02   2.5683600e-01
   4.9130590e+02   6.0368650e+00
   4.9178800e+02   1.8819340e+01
   4.9227010e+02   1.4441410e+01
   4.9275220e+02   6.1015630e+00
   4.9323430e+02   1.9701900e+01
   4.9371650e+02   9.7626950e+00
   4.9419860e+02   1.1986080e+01
   4.9468070e+02   1.3079590e+01
   4.9516280e+02   6.0832520e+00
   4.9564490e+02   2.2959720e+01
   4.9612700e+02   1.2359130e+01
   4.9660920e+02   9.6853030e+00
   4.9709130e+02   1.7588130e+01
   4.9757340e+02   1.3310550e+00
   4.9805550e+02   2.0399410e+01
   4.9853760e+02   1.7041020e+01
   4.9901970e+02   3.4838900e-01
   4.9950190e+02   1.0680660e+01
   4.9998400e+02   4.6801760e+00
   5.0046610e+02   5.1860350e+00
   5.0094820e+02   1.4900630e+01
   5.0143030e+02   2.4405760e+01
   5.0191240e+02   2.8522460e+01
   5.0239460e+02   2.1297120e+01
   5.0287670e+02   1.1369140e+01
   5.0335880e+02   5.2900390e+00
   5.0384090e+02   9.3156740e+00
   5.0432300e+02   7.6921390e+00
   5.0480510e+02   3.0024410e+00
   5.0528730e+02   1.8787350e+01
   5.0576940e+02   3.0723140e+01
   5.0625150e+02   4.0145260e+01
   5.0673360e+02   4.1882080e+01
   5.0721570e+02   3.1027830e+01
   5.0769780e+02   8.4084470e+00
   5.0818000e+02   6.5996090e+00
   5.0866210e+02   1.3335210e+01
   5.0914420e+02   1.5231450e+01
   5.0962630e+02   1.3742190e+01
   5.1010840e+02   9.6169430e+00
   5.1059050e+02   7.6994630e+00
   5.1107270e+02   1.0405270e+01
   5.1155480e+02   1.2512940e+01
   5.1203690e+02   3.5925290e+00
   5.1251900e+02   1.2930660e+01
   5.1300120e+02   2.5151610e+01
   5.1348330e+02   2.3138180e+01
   5.1396540e+02   1.5985110e+01
   5.1444750e+02   1.1382570e+01
   5.1492960e+02   9.7314450e+00
   5.1541170e+02   1.0144040e+01
   5.1589390e+02   1.3488040e+01
   5.1637600e+02   1.7902830e+01
   5.1685810e+02   2.1646240e+01
   5.1734020e+02   2.1572020e+01
   5.1782230e+02   2.4298100e+01
   5.1830440e+02   3.4375000e+01
   5.1878660e+02   4.8296390e+01
   5.1926870e+02   5.6847660e+01
   5.1975080e+02   5.3606450e+01
   5.2023290e+02   5.2403810e+01
   5.2071500e+02   6.0599120e+01
   5.2119710e+02   8.0256590e+01
   5.2167930e+02   8.3649900e+01
   5.2216140e+02   6.3949460e+01
   5.2264350e+02   3.9826170e+01
   5.2312560e+02   2.7343990e+01
   5.2360770e+02   2.7110110e+01
   5.2408980e+02   2.8609130e+01
   5.2457200e+02   3.1475590e+01
   5.2505410e+02   3.5218510e+01
   5.2553620e+02   3.9795650e+01
   5.2601830e+02   4.5221920e+01
   5.2650040e+02   5.2280270e+01
   5.2698250e+02   6.3323490e+01
   5.2746470e+02   7.5450930e+01
   5.2794680e+02   8.4756100e+01
   5.2842890e+02   9.1193850e+01
   5.2891100e+02   9.4137450e+01
   5.2939310e+02   9.1346190e+01
   5.2987520e+02   8.5655270e+01
   5.3035740e+02   7.9461180e+01
   5.3083950e+02   7.0291500e+01
   5.3132160e+02   6.6972410e+01
   5.3180370e+02   7.8878910e+01
   5.3228580e+02   9.8501220e+01
   5.3276790e+02   1.1277490e+02
   5.3325010e+02   1.1084080e+02
   5.3373220e+02   1.1071020e+02
   5.3421430e+02   1.1860520e+02
   5.3469640e+02   1.3499120e+02
   5.3517850e+02   1.5022830e+02
   5.3566060e+02   1.6201830e+02
   5.3614280e+02   1.7538040e+02
   5.3662490e+02   1.9382910e+02
   5.3710700e+02   2.1934180e+02
   5.3758910e+02   2.4350020e+02
   5.3807120e+02   2.6677880e+02
   5.3855330e+02   2.9022730e+02
   5.3903550e+02   3.1440260e+02
   5.3951760e+02   3.3916940e+02
   5.3999970e+02   3.6529710e+02
   5.4048180e+02   3.9452490e+02
   5.4096390e+02   4.2459790e+02
   5.4144600e+02   4.4774730e+02
   5.4192820e+02   4.6509350e+02
   5.4241030e+02   4.8660250e+02
   5.4289240e+02   5.2595340e+02
   5.4337450e+02   5.7034450e+02
   5.4385660e+02   6.0357620e+02
   5.4433870e+02   6.2405270e+02
   5.4482090e+02   6.3182010e+02
   5.4530300e+02   6.2649660e+02
   5.4578510e+02   6.0874510e+02
   5.4626720e+02   5.7915940e+02
   5.4674930e+02   5.2961720e+02
   5.4723140e+02   4.7807080e+02
   5.4771360e+02   4.2977270e+02
   5.4819570e+02   3.8427420e+02
   5.4867780e+02   3.3839110e+02
   5.4915990e+02   2.8706520e+02
   5.4964200e+02   2.4063820e+02
   5.5012410e+02   2.0262040e+02
   5.5060630e+02   1.7268460e+02
   5.5108840e+02   1.5007030e+02
   5.5157050e+02   1.3719510e+02
   5.5205260e+02   1.3081250e+02
   5.5253470e+02   1.2941380e+02
   5.5301680e+02   1.3341940e+02
   5.5349900e+02   1.2975730e+02
   5.5398110e+02   1.1612890e+02
   5.5446320e+02   9.7686520e+01
   5.5494530e+02   8.1877200e+01
   5.5542740e+02   6.8854490e+01
   5.5590950e+02   6.0015870e+01
   5.5639170e+02   5.9587400e+01
   5.5687380e+02   6.5062500e+01
   5.5735590e+02   7.3897220e+01
   5.5783800e+02   8.5612790e+01
   5.5832010e+02   9.1966550e+01
   5.5880220e+02   7.9982420e+01
   5.5928440e+02   6.3476070e+01
   5.5976650e+02   5.6760740e+01
   5.6024860e+02   6.9738770e+01
   5.6073070e+02   8.0893800e+01
   5.6121280e+02   8.1615230e+01
   5.6169490e+02   7.5778320e+01
   5.6217710e+02   7.0707520e+01
   5.6265920e+02   6.2313480e+01
   5.6314130e+02   6.0756840e+01
   5.6362340e+02   7.0708740e+01
   5.6410550e+02   9.0557860e+01
   5.6458760e+02   1.0528960e+02
   5.6506980e+02   1.1303340e+02
   5.6555190e+02   1.1936650e+02
   5.6603400e+02   1.2828690e+02
   5.6651610e+02   1.4005910e+02
   5.6699820e+02   1.4635520e+02
   5.6748030e+02   1.4619800e+02
   5.6796250e+02   1.4447120e+02
   5.6844460e+02   1.4604170e+02
   5.6892670e+02   1.5065940e+02
   5.6940880e+02   1.5785770e+02
   5.6989090e+02   1.6813650e+02
   5.7037300e+02   1.8082760e+02
   5.7085520e+02   2.0007540e+02
   5.7133730e+02   2.2225900e+02
   5.7181940e+02   2.3653390e+02
   5.7230150e+02   2.1921070e+02
   5.7278360e+02   2.0535670e+02
   5.7326570e+02   2.2561080e+02
   5.7374790e+02   2.8414260e+02
   5.7423000e+02   3.3217190e+02
   5.7471210e+02   3.4786380e+02
   5.7519420e+02   3.5284720e+02
   5.7567630e+02   3.6214140e+02
   5.7615840e+02   3.7603810e+02
   5.7664060e+02   3.9598540e+02
   5.7712270e+02   4.2367650e+02
   5.7760480e+02   4.5662670e+02
   5.7808690e+02   4.9150540e+02
   5.7856900e+02   5.3011400e+02
   5.7905110e+02   5.6184350e+02
   5.7953330e+02   5.7709960e+02
   5.8001540e+02   5.8523850e+02
   5.8049750e+02   6.3145970e+02
   5.8097960e+02   7.1750440e+02
   5.8146170e+02   8.0157130e+02
   5.8194380e+02   8.5230620e+02
   5.8242600e+02   8.8051070e+02
   5.8290810e+02   9.0779830e+02
   5.8339020e+02   9.3518360e+02
   5.8387230e+02   9.7054420e+02
   5.8435440e+02   1.0298040e+03
   5.8483650e+02   1.0981010e+03
   5.8531870e+02   1.1562430e+03
   5.8580080e+02   1.1999720e+03
   5.8628290e+02   1.2294060e+03
   5.8676500e+02   1.2444230e+03
   5.8724710e+02   1.2451100e+03
   5.8772920e+02   1.2317010e+03
   5.8821140e+02   1.1962520e+03
   5.8869350e+02   1.1545120e+03
   5.8917560e+02   1.1091000e+03
   5.8965770e+02   1.0597940e+03
   5.9013980e+02   1.0131190e+03
   5.9062190e+02   9.6678590e+02
   5.9110410e+02   9.2666600e+02
   5.9158620e+02   8.9937060e+02
   5.9206830e+02   8.8638770e+02
   5.9255040e+02   8.6627220e+02
   5.9303250e+02   8.3670460e+02
   5.9351460e+02   8.0401930e+02
   5.9399680e+02   7.7548630e+02
   5.9447890e+02   7.5092140e+02
   5.9496100e+02   7.2991940e+02
   5.9544310e+02   7.1140480e+02
   5.9592520e+02   6.9764060e+02
   5.9640730e+02   6.9455300e+02
   5.9688950e+02   6.9906080e+02
   5.9737160e+02   7.0188820e+02
   5.9785370e+02   6.9284740e+02
   5.9833580e+02   6.8505930e+02
   5.9881790e+02   6.8786820e+02
   5.9930000e+02   7.0226120e+02
   5.9978220e+02   7.1584670e+02
   6.0026430e+02   7.1948120e+02
   6.0074640e+02   7.2581810e+02
   6.0122850e+02   7.4261870e+02
   6.0171060e+02   7.7100560e+02
   6.0219270e+02   8.0777760e+02
   6.0267490e+02   8.5511790e+02
   6.0315700e+02   9.0913480e+02
   6.0363910e+02   9.6360890e+02
   6.0412120e+02   1.0187300e+03
   6.0460330e+02   1.0767470e+03
   6.0508540e+02   1.1415040e+03
   6.0556760e+02   1.2086550e+03
   6.0604970e+02   1.2715580e+03
   6.0653180e+02   1.3290840e+03
   6.0701390e+02   1.3739420e+03
   6.0749600e+02   1.3994980e+03
   6.0797810e+02   1.4141310e+03
   6.0846030e+02   1.4358430e+03
   6.0894240e+02   1.4651680e+03
   6.0942450e+02   1.4714650e+03
   6.0990660e+02   1.4238350e+03
   6.1038870e+02   1.3530070e+03
   6.1087080e+02   1.2853540e+03
   6.1135300e+02   1.2274920e+03
   6.1183510e+02   1.1683420e+03
   6.1231720e+02   1.1071960e+03
   6.1279930e+02   1.0426750e+03
   6.1328140e+02   9.7396390e+02
   6.1376350e+02   8.9346580e+02
   6.1424570e+02   8.2281050e+02
   6.1472780e+02   7.6706740e+02
   6.1520990e+02   7.2400810e+02
   6.1569200e+02   6.8673320e+02
   6.1617410e+02   6.5615090e+02
   6.1665630e+02   6.2607150e+02
   6.1713840e+02   5.9015140e+02
   6.1762050e+02   5.5166110e+02
   6.1810260e+02   5.2182670e+02
   6.1858470e+02   5.0099490e+02
   6.1906680e+02   4.8717970e+02
   6.1954900e+02   4.8365310e+02
   6.2003110e+02   4.8459030e+02
   6.2051320e+02   4.8049370e+02
   6.2099530e+02   4.6688350e+02
   6.2147740e+02   4.5404860e+02
   6.2195950e+02   4.5247050e+02
   6.2244170e+02   4.5408790e+02
   6.2292380e+02   4.4799510e+02
   6.2340590e+02   4.1829370e+02
   6.2388800e+02   3.9755860e+02
   6.2437010e+02   3.9496340e+02
   6.2485220e+02   4.0288940e+02
   6.2533440e+02   4.0566460e+02
   6.2581650e+02   4.0195970e+02
   6.2629860e+02   3.9797090e+02
   6.2678070e+02   3.9576030e+02
   6.2726280e+02   3.9507710e+02
   6.2774490e+02   3.9523800e+02
   6.2822710e+02   3.9660400e+02
   6.2870920e+02   3.9582450e+02
   6.2919130e+02   3.8985570e+02
   6.2967340e+02   3.7989940e+02
   6.3015550e+02   3.6798680e+02
   6.3063760e+02   3.5393290e+02
   6.3111980e+02   3.4138940e+02
   6.3160190e+02   3.3621630e+02
   6.3208400e+02   3.3370190e+02
   6.3256610e+02   3.2735250e+02
   6.3304820e+02   3.0937300e+02
   6.3353030e+02   2.9408720e+02
   6.3401250e+02   2.9065040e+02
   6.3449460e+02   2.9325290e+02
   6.3497670e+02   2.8912230e+02
   6.3545880e+02   2.7224680e+02
   6.3594090e+02   2.5446190e+02
   6.3642310e+02   2.3633150e+02
   6.3690520e+02   2.1894800e+02
   6.3738730e+02   2.0971340e+02
   6.3786940e+02   2.1120190e+02
   6.3835160e+02   2.1111550e+02
   6.3883370e+02   1.9964360e+02
   6.3931580e+02   1.7912010e+02
   6.3979790e+02   1.6975220e+02
   6.4028000e+02   1.7317210e+02
   6.4076210e+02   1.7340990e+02
   6.4124430e+02   1.4815580e+02
   6.4172640e+02   1.1199100e+02
   6.4220850e+02   8.9293210e+01
   6.4269060e+02   8.7958500e+01
   6.4317270e+02   9.2647220e+01
   6.4365480e+02   9.8692140e+01
   6.4413700e+02   1.0372390e+02
   6.4461910e+02   1.0427320e+02
   6.4510120e+02   9.4794430e+01
   6.4558330e+02   8.5989500e+01
   6.4606540e+02   7.8170900e+01
   6.4654750e+02   7.2370360e+01
   6.4702970e+02   7.3296630e+01
   6.4751180e+02   8.6573000e+01
   6.4799390e+02   9.4639160e+01
   6.4847600e+02   8.7329350e+01
   6.4895810e+02   6.7373050e+01
   6.4944020e+02   6.6365720e+01
   6.4992240e+02   8.6553470e+01
   6.5040450e+02   1.0128660e+02
   6.5088660e+02   8.1216310e+01
   6.5136870e+02   4.1463380e+01
   6.5185080e+02   1.7201660e+01
   6.5233290e+02   1.2177980e+01
   6.5281510e+02   1.8388670e+01
   6.5329720e+02   4.2153810e+01
   6.5377930e+02   6.8251460e+01
   6.5426140e+02   7.7420650e+01
   6.5474350e+02   5.0020510e+01
   6.5522560e+02   2.9612790e+01
   6.5570780e+02   3.8925780e+01
   6.5618990e+02   6.1477290e+01
   6.5667200e+02   6.8115480e+01
   6.5715410e+02   4.5712400e+01
   6.5763620e+02   2.6441890e+01
   6.5811830e+02   1.5240720e+01
   6.5860050e+02   1.1390870e+01
   6.5908260e+02   1.4351320e+01
   6.5956470e+02   2.5662840e+01
   6.6004680e+02   3.4421880e+01
   6.6052890e+02   3.6209230e+01
   6.6101100e+02   3.1212890e+01
   6.6149320e+02   1.7131100e+01
   6.6197530e+02   5.4238280e+00
   6.6245740e+02   2.5129390e+01
   6.6293950e+02   3.6218510e+01
   6.6342160e+02   3.8138920e+01
   6.6390370e+02   2.6200440e+01
   6.6438590e+02   4.0744630e+00
   6.6486800e+02   2.4875980e+01
   6.6535010e+02   1.4574950e+01
   6.6583220e+02   6.0405270e+00
   6.6631430e+02   1.7827150e+01
   6.6679640e+02   1.3177490e+01
   6.6727860e+02   5.7541500e+00
   6.6776070e+02   7.4306640e+00
   6.6824280e+02   2.0970460e+01
   6.6872490e+02   2.4141850e+01
   6.6920700e+02   1.4220460e+01
   6.6968910e+02   6.0410160e+00
   6.7017130e+02   3.4375000e+00
   6.7065340e+02   4.7473140e+00
   6.7113550e+02   7.8537600e+00
   6.7161760e+02   1.2196530e+01
   6.7209970e+02   1.3421390e+01
   6.7258180e+02   6.2211910e+00
   6.7306400e+02   3.2749020e+00
   6.7354610e+02   8.9492190e+00
   6.7402820e+02   1.0655760e+01
   6.7451030e+02   9.9521480e+00
   6.7499240e+02   3.3188480e+00
   6.7547450e+02   2.5087890e+00
   6.7595670e+02   3.2250980e+00
   6.7643880e+02   2.7150880e+00
   6.7692090e+02   9.5332030e+00
   6.7740300e+02   2.1800290e+01
   6.7788510e+02   3.0614010e+01
   6.7836720e+02   2.8009030e+01
   6.7884940e+02   1.1067380e+01
   6.7933150e+02   5.0961910e+00
   6.7981360e+02   2.1512450e+01
   6.8029570e+02   3.2235600e+01
   6.8077780e+02   2.1703610e+01
   6.8125990e+02   4.1760250e+00
   6.8174210e+02   1.6218260e+01
   6.8222420e+02   4.7631800e-01
   6.8270630e+02   2.4195310e+01
   6.8318840e+02   3.0352540e+01
   6.8367050e+02   2.5201900e+01
   6.8415260e+02   2.3031980e+01
   6.8463480e+02   3.2594480e+01
   6.8511690e+02   4.3746090e+01
   6.8559900e+02   5.4092530e+01
   6.8608110e+02   6.3053470e+01
   6.8656320e+02   6.6979250e+01
   6.8704530e+02   6.3593020e+01
   6.8752750e+02   5.8501950e+01
   6.8800960e+02   5.4271000e+01
   6.8849170e+02   5.0969480e+01
   6.8897380e+02   4.1455320e+01
   6.8945590e+02   2.3485600e+01
   6.8993800e+02   9.8830570e+00
   6.9042020e+02   1.4069820e+01
   6.9090230e+02   3.1058350e+01
   6.9138440e+02   4.6382810e+01
   6.9186650e+02   5.9656490e+01
   6.9234860e+02   6.7188960e+01
   6.9283070e+02   5.8344480e+01
   6.9331290e+02   4.2455570e+01
   6.9379500e+02   3.0868900e+01
   6.9427710e+02   2.5074950e+01
   6.9475920e+02   2.4353520e+01
   6.9524130e+02   2.9878660e+01
   6.9572340e+02   3.8706540e+01
   6.9620560e+02   4.7263670e+01
   6.9668770e+02   5.9012700e+01
   6.9716980e+02   6.4770510e+01
   6.9765190e+02   6.1932370e+01
   6.9813400e+02   5.3387940e+01
   6.9861610e+02   4.4445800e+01
   6.9909830e+02   3.4598880e+01
   6.9958040e+02   3.0674070e+01
   7.0006250e+02   3.9146240e+01
   7.0054460e+02   5.3220460e+01
   7.0102670e+02   5.9298580e+01
   7.0150890e+02   5.9371580e+01
   7.0199100e+02   5.8474850e+01
   7.0247310e+02   5.6839600e+01
   7.0295520e+02   5.6164550e+01
   7.0343730e+02   5.8960940e+01
   7.0391940e+02   6.5529540e+01
   7.0440160e+02   6.9598880e+01
   7.0488370e+02   6.5026120e+01
   7.0536580e+02   6.0233890e+01
   7.0584790e+02   5.9728030e+01
   7.0633000e+02   6.5183590e+01
   7.0681210e+02   6.8836180e+01
   7.0729430e+02   6.9105710e+01
   7.0777640e+02   7.0205810e+01
   7.0825850e+02   7.9381840e+01
   7.0874060e+02   9.5905760e+01
   7.0922270e+02   1.0152250e+02
   7.0970480e+02   9.1914550e+01
   7.1018700e+02   7.9506840e+01
   7.1066910e+02   7.6039060e+01
   7.1115120e+02   8.0070310e+01
   7.1163330e+02   9.0008540e+01
   7.1211540e+02   1.1169040e+02
   7.1259750e+02   1.2791530e+02
   7.1307970e+02   1.2423830e+02
   7.1356180e+02   1.1028250e+02
   7.1404390e+02   1.0269410e+02
   7.1452600e+02   1.0889890e+02
   7.1500810e+02   1.1566040e+02
   7.1549020e+02   1.2422270e+02
   7.1597240e+02   1.3229170e+02
   7.1645450e+02   1.2774320e+02
   7.1693660e+02   1.0712350e+02
   7.1741870e+02   9.3109620e+01
   7.1790080e+02   9.6801760e+01
   7.1838290e+02   1.1192770e+02
   7.1886510e+02   1.2652690e+02
   7.1934720e+02   1.3939530e+02
   7.1982930e+02   1.4190450e+02
   7.2031140e+02   1.1868070e+02
   7.2079350e+02   8.9194820e+01
   7.2127560e+02   7.0947270e+01
   7.2175780e+02   6.5243900e+01
   7.2223990e+02   6.3915040e+01
   7.2272200e+02   6.0866210e+01
   7.2320410e+02   6.1748290e+01
   7.2368620e+02   7.2410890e+01
   7.2416830e+02   9.7676510e+01
   7.2465050e+02   1.0609940e+02
   7.2513260e+02   9.0787840e+01
   7.2561470e+02   7.1823000e+01
   7.2609680e+02   6.6043210e+01
   7.2657890e+02   7.2587650e+01
   7.2706100e+02   7.7389160e+01
   7.2754320e+02   7.9430420e+01
   7.2802530e+02   7.8906740e+01
   7.2850740e+02   7.4746580e+01
   7.2898950e+02   6.8503420e+01
   7.2947160e+02   6.1827390e+01
   7.2995370e+02   5.2125980e+01
   7.3043590e+02   4.8972170e+01
   7.3091800e+02   6.3899410e+01
   7.3140010e+02   8.5835210e+01
   7.3188220e+02   9.9819090e+01
   7.3236430e+02   1.0206760e+02
   7.3284640e+02   9.7542720e+01
   7.3332860e+02   8.0480470e+01
   7.3381070e+02   5.9881100e+01
   7.3429280e+02   5.8543950e+01
   7.3477490e+02   7.9542480e+01
   7.3525700e+02   9.3742430e+01
   7.3573910e+02   9.1684570e+01
   7.3622130e+02   7.9972410e+01
   7.3670340e+02   6.8045410e+01
   7.3718550e+02   5.7022710e+01
   7.3766760e+02   5.1097900e+01
   7.3814970e+02   6.0360840e+01
   7.3863180e+02   6.9104000e+01
   7.3911400e+02   6.2408450e+01
   7.3959610e+02   4.3067140e+01
   7.4007820e+02   2.8694340e+01
   7.4056030e+02   2.5114750e+01
   7.4104240e+02   2.4573970e+01
   7.4152450e+02   2.4491940e+01
   7.4200670e+02   2.4848630e+01
   7.4248880e+02   2.6007810e+01
   7.4297090e+02   2.7573970e+01
   7.4345300e+02   3.0521730e+01
   7.4393510e+02   3.5525630e+01
   7.4441720e+02   4.2257080e+01
   7.4489940e+02   5.0794430e+01
   7.4538150e+02   6.1067140e+01
   7.4586360e+02   6.8995610e+01
   7.4634570e+02   6.5436280e+01
   7.4682780e+02   6.0756350e+01
   7.4730990e+02   7.2053220e+01
   7.4779210e+02   1.0778000e+02
   7.4827420e+02   1.2320410e+02
   7.4875630e+02   8.2200680e+01
   7.4923840e+02   2.9181150e+01
   7.4972050e+02   7.1875000e-01
   7.5020260e+02   1.4024900e+01
   7.5068480e+02   1.0972170e+01
   7.5116690e+02   1.7279300e+01
   7.5164900e+02   4.6887940e+01
   7.5213110e+02   4.4493410e+01
   7.5261320e+02   1.3750730e+01
   7.5309530e+02   7.1723630e+00
   7.5357750e+02   1.0432620e+01
   7.5405960e+02   7.1892090e+00
   7.5454170e+02   8.6882320e+00
   7.5502380e+02   1.2583250e+01
   7.5550590e+02   1.4632810e+01
   7.5598800e+02   9.7521970e+00
   7.5647020e+02   7.8215330e+00
   7.5695230e+02   1.9839360e+01
   7.5743440e+02   3.5555420e+01
   7.5791650e+02   3.6041260e+01
   7.5839860e+02   1.1145510e+01
   7.5888070e+02   1.1839600e+01
   7.5936290e+02   3.0698000e+01
   7.5984500e+02   4.3978270e+01
   7.6032710e+02   4.4922120e+01
   7.6080930e+02   3.3660890e+01
   7.6129140e+02   2.7751460e+01
   7.6177350e+02   3.7734860e+01
   7.6225560e+02   5.1445800e+01
   7.6273770e+02   4.8319340e+01
   7.6321980e+02   3.3168460e+01
   7.6370200e+02   2.0940430e+01
   7.6418410e+02   2.3624760e+01
   7.6466620e+02   2.6371580e+01
   7.6514830e+02   1.8958740e+01
   7.6563040e+02   3.6752930e+00
   7.6611250e+02   1.8005370e+00
   7.6659470e+02   1.2485600e+01
   7.6707680e+02   2.2734380e+01
   7.6755890e+02   2.0003170e+01
   7.6804100e+02   6.4672850e+00
   7.6852310e+02   2.9975590e+00
   7.6900520e+02   8.2604980e+00
   7.6948740e+02   1.2617680e+01
   7.6996950e+02   2.2876710e+01
   7.7045160e+02   3.1568850e+01
   7.7093370e+02   1.9279050e+01
   7.7141580e+02   1.1353030e+01
   7.7189790e+02   3.1948970e+01
   7.7238010e+02   1.9932130e+01
   7.7286220e+02   2.1513670e+00
   7.7334430e+02   2.4197750e+01
   7.7382640e+02   4.6955810e+01
   7.7430850e+02   5.3939210e+01
   7.7479060e+02   3.6533200e+01
   7.7527280e+02   1.4931880e+01
   7.7575490e+02   6.4599600e-01
   7.7623700e+02   1.0071040e+01
   7.7671910e+02   1.1815430e+01
   7.7720120e+02   4.9711910e+00
   7.7768330e+02   1.8012700e+00
   7.7816550e+02   4.7922360e+00
   7.7864760e+02   1.5350830e+01
   7.7912970e+02   9.9633790e+00
   7.7961180e+02   1.5241460e+01
   7.8009390e+02   3.8929200e+01
   7.8057600e+02   5.4360600e+01
   7.8105820e+02   5.9628910e+01
   7.8154030e+02   5.1254640e+01
   7.8202240e+02   1.6653320e+01
   7.8250450e+02   4.6953130e+00
   7.8298660e+02   9.8496090e+00
   7.8346880e+02   5.6206050e+00
   7.8395090e+02   4.2687990e+00
   7.8443300e+02   2.0225590e+01
   7.8491510e+02   3.3319580e+01
   7.8539720e+02   4.2759520e+01
   7.8587930e+02   4.8582520e+01
   7.8636150e+02   4.9900150e+01
   7.8684360e+02   4.7662840e+01
   7.8732570e+02   4.2535160e+01
   7.8780780e+02   3.2033200e+01
   7.8828990e+02   2.5670900e+01
   7.8877200e+02   3.1385740e+01
   7.8925420e+02   4.2663820e+01
   7.8973630e+02   5.1778080e+01
   7.9021840e+02   5.5596920e+01
   7.9070050e+02   6.0682130e+01
   7.9118260e+02   6.6071040e+01
   7.9166470e+02   7.3771970e+01
   7.9214690e+02   8.8871090e+01
   7.9262900e+02   1.1127340e+02
   7.9311110e+02   1.3041240e+02
   7.9359320e+02   1.4542870e+02
   7.9407530e+02   1.5317500e+02
   7.9455740e+02   1.3859810e+02
   7.9503960e+02   1.1663940e+02
   7.9552170e+02   1.1531470e+02
   7.9600380e+02   1.6382960e+02
   7.9648590e+02   2.0866500e+02
   7.9696800e+02   2.3538620e+02
   7.9745010e+02   2.4458980e+02
   7.9793230e+02   2.3458350e+02
   7.9841440e+02   1.8549610e+02
   7.9889650e+02   1.6589550e+02
   7.9937860e+02   1.9416460e+02
   7.9986070e+02   2.4722710e+02
   8.0034280e+02   2.8153610e+02
   8.0082500e+02   2.9883350e+02
   8.0130710e+02   3.1530080e+02
   8.0178920e+02   3.3586430e+02
   8.0227130e+02   3.5795120e+02
   8.0275340e+02   3.7393210e+02
   8.0323550e+02   3.8998540e+02
   8.0371770e+02   4.1890970e+02
   8.0419980e+02   4.7753910e+02
   8.0468190e+02   5.3574410e+02
   8.0516400e+02   5.8392920e+02
   8.0564610e+02   6.2618460e+02
   8.0612820e+02   6.6784030e+02
   8.0661040e+02   7.0281790e+02
   8.0709250e+02   7.5870850e+02
   8.0757460e+02   8.4612740e+02
   8.0805670e+02   9.5457710e+02
   8.0853880e+02   1.0529000e+03
   8.0902090e+02   1.1445000e+03
   8.0950310e+02   1.2496540e+03
   8.0998520e+02   1.3951270e+03
   8.1046730e+02   1.5472050e+03
   8.1094940e+02   1.6732620e+03
   8.1143150e+02   1.7824020e+03
   8.1191360e+02   1.9013820e+03
   8.1239580e+02   2.0122290e+03
   8.1287790e+02   2.1673570e+03
   8.1336000e+02   2.3908420e+03
   8.1384210e+02   2.6599240e+03
   8.1432420e+02   2.9011710e+03
   8.1480630e+02   3.1081840e+03
   8.1528850e+02   3.3446170e+03
   8.1577060e+02   3.6392350e+03
   8.1625270e+02   3.9723380e+03
   8.1673480e+02   4.2953230e+03
   8.1721690e+02   4.6178330e+03
   8.1769900e+02   4.9779340e+03
   8.1818120e+02   5.4103030e+03
   8.1866330e+02   5.8733990e+03
   8.1914540e+02   6.3426760e+03
   8.1962750e+02   6.8201610e+03
   8.2010960e+02   7.3159750e+03
   8.2059170e+02   7.8255660e+03
   8.2107390e+02   8.3592020e+03
   8.2155600e+02   8.9415440e+03
   8.2203810e+02   9.5412110e+03
   8.2252020e+02   1.0094900e+04
   8.2300230e+02   1.0602690e+04
   8.2348440e+02   1.1001680e+04
   8.2396660e+02   1.1296010e+04
   8.2444870e+02   1.1440640e+04
   8.2493080e+02   1.1378280e+04
   8.2541290e+02   1.1121830e+04
   8.2589500e+02   1.0712730e+04
   8.2637710e+02   1.0082400e+04
   8.2685930e+02   9.3865860e+03
   8.2734140e+02   8.6432550e+03
   8.2782350e+02   7.8766580e+03
   8.2830560e+02   7.1322520e+03
   8.2878770e+02   6.4081890e+03
   8.2926980e+02   5.7540350e+03
   8.2975200e+02   5.1935110e+03
   8.3023410e+02   4.7188530e+03
   8.3071620e+02   4.3365130e+03
   8.3119830e+02   4.0364310e+03
   8.3168040e+02   3.7653180e+03
   8.3216250e+02   3.4937830e+03
   8.3264470e+02   3.2500040e+03
   8.3312680e+02   3.0617110e+03
   8.3360890e+02   2.9223300e+03
   8.3409100e+02   2.8053840e+03
   8.3457310e+02   2.7146610e+03
   8.3505520e+02   2.6377340e+03
   8.3553740e+02   2.5676230e+03
   8.3601950e+02   2.5100210e+03
   8.3650160e+02   2.4935020e+03
   8.3698370e+02   2.5195250e+03
   8.3746580e+02   2.5562300e+03
   8.3794790e+02   2.5901170e+03
   8.3843010e+02   2.6285140e+03
   8.3891220e+02   2.6723060e+03
   8.3939430e+02   2.7295930e+03
   8.3987640e+02   2.8227260e+03
   8.4035850e+02   2.9713570e+03
   8.4084060e+02   3.1478210e+03
   8.4132280e+02   3.3449050e+03
   8.4180490e+02   3.5614530e+03
   8.4228700e+02   3.7890200e+03
   8.4276910e+02   4.0181730e+03
   8.4325120e+02   4.2823280e+03
   8.4373330e+02   4.5916990e+03
   8.4421550e+02   4.9400990e+03
   8.4469760e+02   5.3213390e+03
   8.4517970e+02   5.7350390e+03
   8.4566180e+02   6.1792510e+03
   8.4614390e+02   6.6397250e+03
   8.4662600e+02   7.1449060e+03
   8.4710820e+02   7.7268640e+03
   8.4759030e+02   8.3671320e+03
   8.4807240e+02   9.0371030e+03
   8.4855450e+02   9.7210410e+03
   8.4903660e+02   1.0447630e+04
   8.4951870e+02   1.1211110e+04
   8.5000090e+02   1.2026290e+04
   8.5048300e+02   1.2923480e+04
   8.5096510e+02   1.3913200e+04
   8.5144720e+02   1.4928720e+04
   8.5192930e+02   1.5953600e+04
   8.5241140e+02   1.7007770e+04
   8.5289360e+02   1.8153050e+04
   8.5337570e+02   1.9342500e+04
   8.5385780e+02   2.0499650e+04
   8.5433990e+02   2.1662960e+04
   8.5482200e+02   2.2717930e+04
   8.5530410e+02   2.3689640e+04
   8.5578630e+02   2.4484900e+04
   8.5626840e+02   2.4963370e+04
   8.5675050e+02   2.5163930e+04
   8.5723260e+02   2.4904180e+04
   8.5771470e+02   2.4120890e+04
   8.5819680e+02   2.2920550e+04
   8.5867900e+02   2.1332880e+04
   8.5916110e+02   1.9448970e+04
   8.5964320e+02   1.7560530e+04
   8.6012530e+02   1.5690960e+04
   8.6060740e+02   1.3936090e+04
   8.6108950e+02   1.2314890e+04
   8.6157170e+02   1.0841790e+04
   8.6205380e+02   9.5558760e+03
   8.6253590e+02   8.5035180e+03
   8.6301800e+02   7.5796640e+03
   8.6350010e+02   6.7782790e+03
   8.6398220e+02   6.0906900e+03
   8.6446440e+02   5.5007790e+03
   8.6494650e+02   5.0116330e+03
   8.6542860e+02   4.5966020e+03
   8.6591070e+02   4.2601240e+03
   8.6639280e+02   3.9684450e+03
   8.6687490e+02   3.6805760e+03
   8.6735710e+02   3.4115250e+03
   8.6783920e+02   3.1757660e+03
   8.6832130e+02   2.9790640e+03
   8.6880340e+02   2.8158570e+03
   8.6928550e+02   2.6951220e+03
   8.6976760e+02   2.6014760e+03
   8.7024980e+02   2.5229670e+03
   8.7073190e+02   2.4576840e+03
   8.7121400e+02   2.4049000e+03
   8.7169610e+02   2.3657370e+03
   8.7217820e+02   2.3406150e+03
   8.7266030e+02   2.3284930e+03
   8.7314250e+02   2.3286320e+03
   8.7362460e+02   2.3403700e+03
   8.7410670e+02   2.3634640e+03
   8.7458880e+02   2.4027590e+03
   8.7507090e+02   2.4584700e+03
   8.7555300e+02   2.5331620e+03
   8.7603520e+02   2.6315110e+03
   8.7651730e+02   2.7553050e+03
   8.7699940e+02   2.8875610e+03
   8.7748150e+02   3.0287340e+03
   8.7796360e+02   3.1769290e+03
   8.7844570e+02   3.3323690e+03
   8.7892790e+02   3.4939810e+03
   8.7941000e+02   3.6628190e+03
   8.7989210e+02   3.8381010e+03
   8.8037420e+02   4.0148960e+03
   8.8085630e+02   4.2310140e+03
   8.8133840e+02   4.4162570e+03
   8.8182060e+02   4.5250440e+03
   8.8230270e+02   4.5530600e+03
   8.8278480e+02   4.4852430e+03
   8.8326700e+02   4.3193070e+03
   8.8374910e+02   4.0679250e+03
   8.8423120e+02   3.7143140e+03
   8.8471330e+02   3.2776590e+03
   8.8519540e+02   2.8562060e+03
   8.8567760e+02   2.4552450e+03
   8.8615970e+02   2.1016690e+03
   8.8664180e+02   1.8283910e+03
   8.8712390e+02   1.5991060e+03
   8.8760600e+02   1.3772080e+03
   8.8808810e+02   1.1658280e+03
   8.8857030e+02   9.8191990e+02
   8.8905240e+02   8.3419340e+02
   8.8953450e+02   7.1528520e+02
   8.9001660e+02   6.2835350e+02
   8.9049870e+02   5.6646880e+02
   8.9098080e+02   5.0434810e+02
   8.9146300e+02   4.4210600e+02
   8.9194510e+02   3.9353710e+02
   8.9242720e+02   3.6753610e+02
   8.9290930e+02   3.5263230e+02
   8.9339140e+02   3.3991160e+02
   8.9387350e+02   3.2510160e+02
   8.9435570e+02   2.9930030e+02
   8.9483780e+02   2.4702490e+02
   8.9531990e+02   1.9739940e+02
   8.9580200e+02   1.5331490e+02
   8.9628410e+02   1.1850100e+02
   8.9676620e+02   1.0538280e+02
   8.9724840e+02   1.1930660e+02
   8.9773050e+02   1.1812300e+02
   8.9821260e+02   9.1744630e+01
   8.9869470e+02   5.6885250e+01
   8.9917680e+02   3.2439450e+01
   8.9965890e+02   1.6885250e+01
   9.0014110e+02   8.0200200e+00
   9.0062320e+02   1.0041020e+01
   9.0110530e+02   7.2148440e+00
   9.0158740e+02   1.2093750e+01
   9.0206950e+02   3.6260250e+01
   9.0255160e+02   5.3808110e+01
   9.0303380e+02   6.3476070e+01
   9.0351590e+02   7.1190920e+01
   9.0399800e+02   7.7907230e+01
   9.0448010e+02   8.0080570e+01
   9.0496220e+02   7.0502930e+01
   9.0544430e+02   5.4523930e+01
   9.0592650e+02   4.6863280e+01
   9.0640860e+02   4.9477050e+01
   9.0689070e+02   4.7660160e+01
   9.0737280e+02   2.6053220e+01
   9.0785490e+02   1.9345700e+00
   9.0833700e+02   1.1797850e+01
   9.0881920e+02   1.3579100e+01
   9.0930130e+02   1.4655760e+01
   9.0978340e+02   1.2120610e+01
   9.1026550e+02   1.7200200e+01
   9.1074760e+02   4.2288570e+01
   9.1122970e+02   7.9956540e+01
   9.1171190e+02   1.0121730e+02
   9.1219400e+02   1.0861820e+02
   9.1267610e+02   1.1887450e+02
   9.1315820e+02   1.4479740e+02
   9.1364030e+02   1.7377930e+02
   9.1412240e+02   1.9662840e+02
   9.1460460e+02   2.1503910e+02
   9.1508670e+02   2.4275830e+02
   9.1556880e+02   2.8319190e+02
   9.1605090e+02   3.2463620e+02
   9.1653300e+02   3.6083300e+02
   9.1701510e+02   3.9900540e+02
   9.1749730e+02   4.6465820e+02
   9.1797940e+02   5.5068460e+02
   9.1846150e+02   6.2546340e+02
   9.1894360e+02   6.7658980e+02
   9.1942570e+02   7.1187840e+02
   9.1990780e+02   7.4320900e+02
   9.2039000e+02   7.6156050e+02
   9.2087210e+02   7.5022410e+02
   9.2135420e+02   7.0839260e+02
   9.2183630e+02   6.3219090e+02
   9.2231840e+02   5.0533500e+02
   9.2280050e+02   3.6744430e+02
   9.2328270e+02   2.8198390e+02
   9.2376480e+02   2.3829790e+02
   9.2424690e+02   1.9216360e+02
   9.2472900e+02   1.3421530e+02
   9.2521110e+02   8.1040040e+01
   9.2569320e+02   4.8076660e+01
   9.2617540e+02   2.4004390e+01
   9.2665750e+02   3.6723630e+00
   9.2713960e+02   4.4242680e+01
   9.2762170e+02   6.2020020e+01
   9.2810380e+02   4.7079590e+01
   9.2858590e+02   2.6550290e+01
   9.2906810e+02   2.1581050e+01
   9.2955020e+02   2.8519530e+01
   9.3003230e+02   2.1678220e+01
   9.3051440e+02   1.6098630e+00
   9.3099650e+02   1.4552250e+01
   9.3147860e+02   1.2824220e+01
   9.3196080e+02   5.0058590e+00
   9.3244290e+02   1.3886720e+00
   9.3292500e+02   5.7749020e+00
   9.3340710e+02   7.4116210e+00
   9.3388920e+02   9.9194340e+00
   9.3437130e+02   3.7211910e+00
   9.3485350e+02   1.8041990e+01
   9.3533560e+02   4.6124510e+01
   9.3581770e+02   5.4149900e+01
   9.3629980e+02   4.5960450e+01
   9.3678190e+02   3.8951660e+01
   9.3726400e+02   3.9963870e+01
   9.3774620e+02   4.6426270e+01
   9.3822830e+02   5.6398440e+01
   9.3871040e+02   7.0011230e+01
   9.3919250e+02   8.8448240e+01
   9.3967460e+02   1.1906050e+02
   9.4015670e+02   1.4075590e+02
   9.4063890e+02   1.4938380e+02
   9.4112100e+02   1.5263770e+02
   9.4160310e+02   1.5995310e+02
   9.4208520e+02   1.7108200e+02
   9.4256730e+02   1.8851270e+02
   9.4304940e+02   2.1404980e+02
   9.4353160e+02   2.3967480e+02
   9.4401370e+02   2.6009770e+02
   9.4449580e+02   2.7745800e+02
   9.4497790e+02   2.9308500e+02
   9.4546000e+02   3.0619970e+02
   9.4594210e+02   3.2164700e+02
   9.4642430e+02   3.3726660e+02
   9.4690640e+02   3.5751610e+02
   9.4738850e+02   3.8682320e+02
   9.4787060e+02   4.2467870e+02
   9.4835270e+02   4.6691750e+02
   9.4883480e+02   5.1360690e+02
   9.4931700e+02   5.6315580e+02
   9.4979910e+02   6.2390230e+02
   9.5028120e+02   6.7881450e+02
   9.5076330e+02   7.0315280e+02
   9.5124540e+02   7.0656540e+02
   9.5172750e+02   7.5835210e+02
   9.5220970e+02   8.8152050e+02
   9.5269180e+02   9.9118600e+02
   9.5317390e+02   1.0602240e+03
   9.5365600e+02   1.1062410e+03
   9.5413810e+02   1.1580360e+03
   9.5462020e+02   1.2164510e+03
   9.5510240e+02   1.2858310e+03
   9.5558450e+02   1.3729460e+03
   9.5606660e+02   1.4652910e+03
   9.5654870e+02   1.5541810e+03
   9.5703080e+02   1.6447210e+03
   9.5751290e+02   1.7445630e+03
   9.5799510e+02   1.8554180e+03
   9.5847720e+02   1.9680620e+03
   9.5895930e+02   2.0813280e+03
   9.5944140e+02   2.2004430e+03
   9.5992350e+02   2.3339200e+03
   9.6040560e+02   2.4766960e+03
   9.6088780e+02   2.6224790e+03
   9.6136990e+02   2.7693740e+03
   9.6185200e+02   2.9218460e+03
   9.6233410e+02   3.0907070e+03
   9.6281620e+02   3.2584140e+03
   9.6329830e+02   3.4222910e+03
   9.6378050e+02   3.5824170e+03
   9.6426260e+02   3.7084170e+03
   9.6474470e+02   3.8036820e+03
   9.6522680e+02   3.8568910e+03
   9.6570890e+02   3.8713410e+03
   9.6619100e+02   3.8310830e+03
   9.6667320e+02   3.6943780e+03
   9.6715530e+02   3.4801880e+03
   9.6763740e+02   3.2421590e+03
   9.6811950e+02   3.0012370e+03
   9.6860160e+02   2.7453970e+03
   9.6908370e+02   2.4577410e+03
   9.6956590e+02   2.1629310e+03
   9.7004800e+02   1.9057730e+03
   9.7053010e+02   1.6854060e+03
   9.7101220e+02   1.4867410e+03
   9.7149430e+02   1.3045160e+03
   9.7197640e+02   1.1441870e+03
   9.7245860e+02   1.0105100e+03
   9.7294070e+02   8.9897020e+02
   9.7342280e+02   8.0942090e+02
   9.7390490e+02   7.4656050e+02
   9.7438700e+02   6.8171880e+02
   9.7486910e+02   6.0288130e+02
   9.7535130e+02   5.2872410e+02
   9.7583340e+02   4.7170900e+02
   9.7631550e+02   4.3042330e+02
   9.7679760e+02   3.9616550e+02
   9.7727970e+02   3.6837400e+02
   9.7776180e+02   3.4000680e+02
   9.7824400e+02   3.0262890e+02
   9.7872610e+02   2.6551610e+02
   9.7920820e+02   2.3583690e+02
   9.7969030e+02   2.1339110e+02
   9.8017240e+02   1.9647800e+02
   9.8065450e+02   1.8490770e+02
   9.8113670e+02   1.7957810e+02
   9.8161880e+02   1.8550150e+02
   9.8210090e+02   1.9215620e+02
   9.8258300e+02   1.7322410e+02
   9.8306510e+02   1.3502590e+02
   9.8354720e+02   1.0529000e+02
   9.8402940e+02   9.1709960e+01
   9.8451150e+02   8.5653810e+01
   9.8499360e+02   8.9754390e+01
   9.8547570e+02   9.2644530e+01
   9.8595780e+02   8.0771000e+01
   9.8643990e+02   4.6149410e+01
   9.8692210e+02   2.2920410e+01
   9.8740420e+02   1.1322270e+01
   9.8788630e+02   7.7138670e+00
   9.8836840e+02   1.3773440e+01
   9.8885050e+02   2.4183590e+01
   9.8933260e+02   2.8604490e+01
   9.8981480e+02   2.6374510e+01
   9.9029690e+02   1.7039060e+01
   9.9077900e+02   1.2411130e+01
   9.9126110e+02   3.5319820e+01
   9.9174320e+02   4.0367190e+01
   9.9222530e+02   2.9531250e+01
   9.9270750e+02   1.7851560e+00
   9.9318960e+02   4.6011230e+01
   9.9367170e+02   7.0712400e+01
   9.9415380e+02   5.3646000e+01
   9.9463590e+02   2.2503420e+01
   9.9511800e+02   9.5737300e+00
   9.9560020e+02   8.8955080e+00
   9.9608230e+02   1.1743160e+01
   9.9656440e+02   1.8818850e+01
   9.9704650e+02   2.3009280e+01
   9.9752860e+02   2.3844240e+01
   9.9801070e+02   2.0942380e+01
   9.9849290e+02   1.0747070e+01
   9.9897500e+02   5.9624020e+00
   9.9945710e+02   9.4179690e+00
   9.9993920e+02   7.5000000e-01
   1.0004210e+03   1.4396480e+01
   1.0009030e+03   3.0234860e+01
   1.0013860e+03   4.1241210e+01
   1.0018680e+03   3.9737300e+01
   1.0023500e+03   2.6697750e+01
   1.0028320e+03   1.2379390e+01
   1.0033140e+03   7.4301760e+00
   1.0037960e+03   1.6261720e+01
   1.0042780e+03   6.2666020e+00
   1.0047600e+03   1.2758300e+01
   1.0052420e+03   2.1788570e+01
   1.0057250e+03   2.2582030e+01
   1.0062070e+03   1.9618650e+01
   1.0066890e+03   1.1762700e+01
   1.0071710e+03   6.5942380e+00
   1.0076530e+03   1.2303220e+01
   1.0081350e+03   1.9084470e+01
   1.0086170e+03   1.5436040e+01
   1.0090990e+03   4.2060550e+00
   1.0095820e+03   4.9829100e+00
   1.0100640e+03   1.6435550e+01
   1.0105460e+03   3.4880860e+01
   1.0110280e+03   2.1801760e+01
   1.0115100e+03   1.8100590e+00
   1.0119920e+03   3.4243160e+00
   1.0124740e+03   1.4556150e+01
   1.0129560e+03   2.7251460e+01
   1.0134390e+03   2.3416990e+01
   1.0139210e+03   1.6531740e+01
   1.0144030e+03   7.8759770e+00
   1.0148850e+03   2.3095700e-01
   1.0153670e+03   6.2987998e-02
   1.0158490e+03   7.3154300e+00
   1.0163310e+03   1.0510250e+01
   1.0168130e+03   4.5888670e+00
   1.0172950e+03   6.9287100e-01
   1.0177780e+03   7.1845700e+00
   1.0182600e+03   1.7964840e+01
   1.0187420e+03   1.9210450e+01
   1.0192240e+03   4.0898440e+00
   1.0197060e+03   4.0576170e+00
   1.0201880e+03   4.6059570e+00
   1.0206700e+03   7.0556600e-01
   1.0211520e+03   1.1669430e+01
   1.0216350e+03   2.6722170e+01
   1.0221170e+03   4.8679200e+01
   1.0225990e+03   7.4397950e+01
   1.0230810e+03   8.5240720e+01
   1.0235630e+03   5.7438480e+01
   1.0240450e+03   2.8663090e+01
   1.0245270e+03   1.0453120e+01
   1.0250090e+03   2.2788090e+00
   1.0254910e+03   5.0712890e+00
   1.0259740e+03   1.9394530e+01
   1.0264560e+03   3.7394530e+01
   1.0269380e+03   5.9437990e+01
   1.0274200e+03   7.7598140e+01
   1.0279020e+03   7.7088870e+01
   1.0283840e+03   7.1404790e+01
   1.0288660e+03   8.1864260e+01
   1.0293480e+03   1.2389650e+02
   1.0298300e+03   1.2963230e+02
   1.0303130e+03   7.4274900e+01
   1.0307950e+03   2.0703120e+01
   1.0312770e+03   9.5585940e+00
   1.0317590e+03   2.9313480e+01
   1.0322410e+03   3.0300780e+01
   1.0327230e+03   1.7156250e+01
   1.0332050e+03   1.4129880e+01
   1.0336870e+03   4.8472170e+01
   1.0341700e+03   8.0566890e+01
   1.0346520e+03   8.9911620e+01
   1.0351340e+03   8.3687500e+01
   1.0356160e+03   7.4682130e+01
   1.0360980e+03   6.0013670e+01
   1.0365800e+03   5.9889650e+01
   1.0370620e+03   8.0229490e+01
   1.0375440e+03   9.7854000e+01
   1.0380260e+03   8.0293950e+01
   1.0385090e+03   4.8194820e+01
   1.0389910e+03   2.9330570e+01
   1.0394730e+03   2.7949710e+01
   1.0399550e+03   2.9829100e+01
   1.0404370e+03   3.0717290e+01
   1.0409190e+03   3.6984380e+01
   1.0414010e+03   5.4434080e+01
   1.0418830e+03   7.8114260e+01
   1.0423650e+03   8.5595210e+01
   1.0428480e+03   8.0096680e+01
   1.0433300e+03   7.9088380e+01
   1.0438120e+03   9.8044430e+01
   1.0442940e+03   1.1154640e+02
   1.0447760e+03   9.4708980e+01
   1.0452580e+03   6.7446780e+01
   1.0457400e+03   5.7999020e+01
   1.0462220e+03   7.3203120e+01
   1.0467050e+03   8.5371580e+01
   1.0471870e+03   9.3933110e+01
   1.0476690e+03   9.8044920e+01
   1.0481510e+03   9.3744630e+01
   1.0486330e+03   8.5767580e+01
   1.0491150e+03   8.4127440e+01
   1.0495970e+03   8.9461430e+01
   1.0500790e+03   9.2749510e+01
   1.0505620e+03   8.9814940e+01
   1.0510440e+03   8.7130370e+01
   1.0515260e+03   8.5663570e+01
   1.0520080e+03   8.4628910e+01
   1.0524900e+03   8.1948240e+01
   1.0529720e+03   7.7598630e+01
   1.0534540e+03   7.2272460e+01
   1.0539360e+03   6.4300780e+01
   1.0544180e+03   6.1549800e+01
   1.0549010e+03   7.8094240e+01
   1.0553830e+03   9.6108400e+01
   1.0558650e+03   9.6673340e+01
   1.0563470e+03   7.6064940e+01
   1.0568290e+03   6.2169430e+01
   1.0573110e+03   5.5991700e+01
   1.0577930e+03   5.5865230e+01
   1.0582750e+03   6.3835450e+01
   1.0587570e+03   7.4174320e+01
   1.0592400e+03   7.9607910e+01
   1.0597220e+03   8.0684570e+01
   1.0602040e+03   7.8964840e+01
   1.0606860e+03   7.0509280e+01
   1.0611680e+03   6.4819820e+01
   1.0616500e+03   6.5400390e+01
   1.0621320e+03   6.9382320e+01
   1.0626140e+03   7.3894040e+01
   1.0630970e+03   7.5714360e+01
   1.0635790e+03   6.1407710e+01
   1.0640610e+03   2.8359860e+01
   1.0645430e+03   5.7607420e+00
   1.0650250e+03   2.0877440e+01
   1.0655070e+03   4.5265620e+01
   1.0659890e+03   6.5185550e+01
   1.0664710e+03   7.9072270e+01
   1.0669530e+03   7.3389160e+01
   1.0674360e+03   4.6248050e+01
   1.0679180e+03   2.8786620e+01
   1.0684000e+03   3.3947270e+01
   1.0688820e+03   4.7692870e+01
   1.0693640e+03   5.6927730e+01
   1.0698460e+03   6.2082520e+01
   1.0703280e+03   6.3388670e+01
   1.0708100e+03   5.5508790e+01
   1.0712930e+03   5.3459470e+01
   1.0717750e+03   6.2529790e+01
   1.0722570e+03   6.7320800e+01
   1.0727390e+03   5.0810550e+01
   1.0732210e+03   2.1346680e+01
   1.0737030e+03   5.4414060e+00
   1.0741850e+03   1.9194340e+00
   1.0746670e+03   2.3403320e+00
   1.0751500e+03   7.1621090e+00
   1.0756320e+03   1.0404790e+01
   1.0761140e+03   8.9926760e+00
   1.0765960e+03   4.6679690e+00
   1.0770780e+03   8.5693400e-01
   1.0775600e+03   7.5937500e+00
   1.0780420e+03   1.1972170e+01
   1.0785240e+03   1.3669430e+01
   1.0790060e+03   8.2924800e+00
   1.0794890e+03   1.9292480e+01
   1.0799710e+03   4.7624020e+01
   1.0804530e+03   5.2500980e+01
   1.0809350e+03   2.9248050e+01
   1.0814170e+03   2.3666020e+01
   1.0818990e+03   4.3084960e+01
   1.0823810e+03   5.4785160e+01
   1.0828630e+03   4.0307620e+01
   1.0833450e+03   1.8637700e+01
   1.0838280e+03   2.8773440e+01
   1.0843100e+03   5.6923830e+01
   1.0847920e+03   7.4015140e+01
   1.0852740e+03   6.3745120e+01
   1.0857560e+03   5.6058110e+01
   1.0862380e+03   5.7638670e+01
   1.0867200e+03   6.1167970e+01
   1.0872020e+03   5.9292970e+01
   1.0876850e+03   5.3652830e+01
   1.0881670e+03   6.1220210e+01
   1.0886490e+03   7.9806640e+01
   1.0891310e+03   8.9814940e+01
   1.0896130e+03   7.2563960e+01
   1.0900950e+03   5.1503910e+01
   1.0905770e+03   3.6937500e+01
   1.0910590e+03   2.8658690e+01
   1.0915420e+03   2.7394040e+01
   1.0920240e+03   3.4040530e+01
   1.0925060e+03   3.5095210e+01
   1.0929880e+03   2.7036620e+01
   1.0934700e+03   2.2635250e+01
   1.0939520e+03   3.9170410e+01
   1.0944340e+03   6.3422850e+01
   1.0949160e+03   8.6811520e+01
   1.0953980e+03   1.0808540e+02
   1.0958800e+03   1.0193550e+02
   1.0963630e+03   5.2147950e+01
   1.0968450e+03   1.4618650e+01
   1.0973270e+03   1.2143070e+01
   1.0978090e+03   2.8983400e+01
   1.0982910e+03   3.8573240e+01
   1.0987730e+03   4.1673340e+01
   1.0992550e+03   3.7823240e+01
   1.0997370e+03   1.9209470e+01
   1.1002200e+03   1.2657710e+01
   1.1007020e+03   3.4371580e+01
   1.1011840e+03   5.9580080e+01
   1.1016660e+03   7.2082030e+01
   1.1021480e+03   7.3166990e+01
   1.1026300e+03   7.4409180e+01
   1.1031120e+03   7.4651370e+01
   1.1035940e+03   6.5510740e+01
   1.1040770e+03   2.3093260e+01
   1.1045590e+03   9.4487300e+00
   1.1050410e+03   1.4506840e+00
   1.1055230e+03   3.2862300e+01
   1.1060050e+03   4.5705570e+01
   1.1064870e+03   3.6838870e+01
   1.1069690e+03   3.3911130e+01
   1.1074510e+03   4.0052250e+01
   1.1079330e+03   4.6452150e+01
   1.1084160e+03   4.2047360e+01
   1.1088980e+03   3.6171390e+01
   1.1093800e+03   3.8693850e+01
   1.1098620e+03   4.9668460e+01
   1.1103440e+03   6.0086430e+01
   1.1108260e+03   6.9795410e+01
   1.1113080e+03   7.9151860e+01
   1.1117900e+03   9.0102050e+01
   1.1122720e+03   9.6667970e+01
   1.1127550e+03   8.2048830e+01
   1.1132370e+03   5.8362790e+01
   1.1137190e+03   4.9629880e+01
   1.1142010e+03   6.5437500e+01
   1.1146830e+03   7.2771970e+01
   1.1151650e+03   5.7467290e+01
   1.1156470e+03   4.2226070e+01
   1.1161290e+03   3.8833980e+01
   1.1166120e+03   4.3546390e+01
   1.1170940e+03   4.4906740e+01
   1.1175760e+03   4.2294430e+01
   1.1180580e+03   3.2779790e+01
   1.1185400e+03   7.1552730e+00
   1.1190220e+03   1.3588380e+01
   1.1195040e+03   2.2421880e+01
   1.1199860e+03   2.0074220e+01
   1.1204690e+03   3.1621090e+00
   1.1209510e+03   2.9415530e+01
   1.1214330e+03   4.7577150e+01
   1.1219150e+03   5.0987790e+01
   1.1223970e+03   4.7770020e+01
   1.1228790e+03   3.8733400e+01
   1.1233610e+03   3.0334960e+01
   1.1238430e+03   2.6770510e+01
   1.1243250e+03   2.7847660e+01
   1.1248070e+03   3.3220700e+01
   1.1252900e+03   4.5594730e+01
   1.1257720e+03   4.6084960e+01
   1.1262540e+03   2.8988770e+01
   1.1267360e+03   1.6254390e+01
   1.1272180e+03   3.9001460e+01
   1.1277000e+03   7.3277830e+01
   1.1281820e+03   9.5350590e+01
   1.1286640e+03   1.0238330e+02
   1.1291470e+03   9.0666020e+01
   1.1296290e+03   5.0458500e+01
   1.1301110e+03   1.7659180e+01
   1.1305930e+03   8.4228500e-01
   1.1310750e+03   1.5595700e+00
   1.1315570e+03   1.7419920e+01
   1.1320390e+03   4.4961910e+01
   1.1325210e+03   5.3123540e+01
   1.1330040e+03   2.7851070e+01
   1.1334860e+03   1.8444820e+01
   1.1339680e+03   4.7334470e+01
   1.1344500e+03   7.5548830e+01
   1.1349320e+03   8.2456540e+01
   1.1354140e+03   7.3729000e+01
   1.1358960e+03   6.7485350e+01
   1.1363780e+03   6.3216800e+01
   1.1368600e+03   5.8934570e+01
   1.1373430e+03   5.4300780e+01
   1.1378250e+03   4.8200680e+01
   1.1383070e+03   3.4764650e+01
   1.1387890e+03   2.4947750e+01
   1.1392710e+03   2.7506350e+01
   1.1397530e+03   4.3184570e+01
   1.1402350e+03   5.8854980e+01
   1.1407170e+03   7.4133300e+01
   1.1411990e+03   8.5787110e+01
   1.1416820e+03   9.8570310e+01
   1.1421640e+03   1.0026810e+02
   1.1426460e+03   7.1901860e+01
   1.1431280e+03   3.1899900e+01
   1.1436100e+03   1.5144530e+01
   1.1440920e+03   2.3885740e+01
   1.1445740e+03   4.1403320e+01
   1.1450560e+03   6.7930180e+01
   1.1455390e+03   8.5729490e+01
   1.1460210e+03   7.0933110e+01
   1.1465030e+03   4.8302730e+01
   1.1469850e+03   3.6991700e+01
   1.1474670e+03   3.8932130e+01
   1.1479490e+03   5.0406250e+01
   1.1484310e+03   7.7423830e+01
   1.1489130e+03   8.7584470e+01
   1.1493960e+03   6.9016110e+01
   1.1498780e+03   4.7607420e+01
   1.1503600e+03   5.9840820e+01
   1.1508420e+03   8.5613280e+01
   1.1513240e+03   1.0062990e+02
   1.1518060e+03   1.0083890e+02
   1.1522880e+03   8.6439940e+01
   1.1527700e+03   4.6806150e+01
   1.1532520e+03   2.1703610e+01
   1.1537340e+03   2.9153320e+01
   1.1542170e+03   5.6080570e+01
   1.1546990e+03   8.8452640e+01
   1.1551810e+03   1.1968410e+02
   1.1556630e+03   1.3703320e+02
   1.1561450e+03   1.3377000e+02
   1.1566270e+03   1.2341160e+02
   1.1571090e+03   1.0623490e+02
   1.1575910e+03   8.6968750e+01
   1.1580740e+03   2.3852540e+00
   1.1585560e+03   6.4111820e+01
   1.1590380e+03   9.9055180e+01
   1.1595200e+03   1.0865430e+02
   1.1600020e+03   1.6998050e+01
   1.1604840e+03   5.6095700e+01
   1.1609660e+03   4.2794920e+01
   1.1614480e+03   2.7347170e+01
   1.1619310e+03   8.4855470e+01
   1.1624130e+03   7.6220700e+00
   1.1628950e+03   6.3934080e+01
   1.1633770e+03   6.7087890e+01
   1.1638590e+03   9.4583500e+01
   1.1643410e+03   6.9357420e+01
   1.1648230e+03   6.0417480e+01
   1.1653050e+03   1.0421730e+02
   1.1657870e+03   1.1881150e+02
   1.1662700e+03   8.7520510e+01
   1.1667520e+03   1.1656740e+02
   1.1672340e+03   3.7806640e+01
   1.1677160e+03   8.9738770e+01
   1.1681980e+03   6.4033200e+01
   1.1686800e+03   3.8270020e+01
   1.1691620e+03   3.7937500e+01
   1.1696440e+03   4.6581540e+01
   1.1701260e+03   5.7606450e+01
   1.1706090e+03   6.9071780e+01
   1.1710910e+03   7.7645020e+01
   1.1715730e+03   8.3164060e+01
   1.1720550e+03   8.0043950e+01
   1.1725370e+03   6.5718750e+01
   1.1730190e+03   5.1433590e+01
   1.1735010e+03   4.7936520e+01
   1.1739830e+03   4.7580080e+01
   1.1744660e+03   4.2287110e+01
   1.1749480e+03   3.3304200e+01
   1.1754300e+03   3.6385740e+01
   1.1759120e+03   5.2554690e+01
   1.1763940e+03   6.2487300e+01
   1.1768760e+03   5.6979490e+01
   1.1773580e+03   4.9898440e+01
   1.1778400e+03   6.2700680e+01
   1.1783230e+03   7.8213870e+01
   1.1788050e+03   7.0226070e+01
   1.1792870e+03   3.3045410e+01
   1.1797690e+03   2.7208980e+01
   1.1802510e+03   5.7466800e+01
   1.1807330e+03   7.9373540e+01
   1.1812150e+03   6.4189450e+01
   1.1816970e+03   4.0525390e+01
   1.1821790e+03   4.5223630e+01
   1.1826610e+03   6.1705570e+01
   1.1831440e+03   6.3555660e+01
   1.1836260e+03   3.8404790e+01
   1.1841080e+03   3.1057130e+01
   1.1845900e+03   4.5327150e+01
   1.1850720e+03   5.6936040e+01
   1.1855540e+03   4.5914550e+01
   1.1860360e+03   2.5335940e+01
   1.1865180e+03   6.0219730e+00
   1.1870010e+03   8.9189450e+00
   1.1874830e+03   1.1863280e+01
   1.1879650e+03   5.4291990e+00
   1.1884470e+03   2.0026370e+01
   1.1889290e+03   3.2648930e+01
   1.1894110e+03   3.7140620e+01
   1.1898930e+03   1.9504880e+01
   1.1903750e+03   4.2475590e+00
   1.1908580e+03   8.6049800e+00
   1.1913400e+03   3.2216800e+00
   1.1918220e+03   1.5748540e+01
   1.1923040e+03   2.9286130e+01
   1.1927860e+03   3.6022460e+01
   1.1932680e+03   3.3808110e+01
   1.1937500e+03   2.8483400e+01
   1.1942320e+03   2.8285160e+01
   1.1947140e+03   2.7996090e+01
   1.1951970e+03   1.4327150e+01
   1.1956790e+03   1.0577640e+01
   1.1961610e+03   1.9992680e+01
   1.1966430e+03   2.5903320e+00
   1.1971250e+03   1.7047850e+01
   1.1976070e+03   1.4441410e+01
   1.1980890e+03   5.7119140e+00
   1.1985710e+03   7.0087890e+00
   1.1990540e+03   1.2801760e+01
   1.1995360e+03   1.3020510e+01
   1.2000180e+03   6.4609380e+00
   1.2005000e+03   2.2685550e+00
   1.2009820e+03   2.0312500e+00
   1.2014640e+03   5.0678710e+00
   1.2019460e+03   1.3480960e+01
   1.2024280e+03   2.0898930e+01
   1.2029110e+03   1.0682130e+01
   1.2033930e+03   6.3754880e+00
   1.2038750e+03   6.7148440e+00
   1.2043570e+03   1.7529300e+01
   1.2048390e+03   2.7460450e+01
   1.2053210e+03   5.0102540e+00
   1.2058030e+03   7.7358400e+00
   1.2062850e+03   1.0058110e+01
   1.2067670e+03   4.0146000e+01
   1.2072500e+03   4.5403810e+01
   1.2077320e+03   3.4236330e+01
   1.2082140e+03   2.3067870e+01
   1.2086960e+03   1.4416990e+01
   1.2091780e+03   1.0914060e+01
   1.2096600e+03   8.9414060e+00
   1.2101420e+03   1.9887700e+01
   1.2106240e+03   5.8895020e+01
   1.2111060e+03   1.0586280e+02
   1.2115890e+03   1.0971530e+02
   1.2120710e+03   8.3295900e+01
   1.2125530e+03   5.3084470e+01
   1.2130350e+03   1.6947750e+01
   1.2135170e+03   1.2177730e+00
   1.2139990e+03   1.1304200e+01
   1.2144810e+03   3.3885250e+01
   1.2149630e+03   7.1762210e+01
   1.2154460e+03   1.0949560e+02
   1.2159280e+03   1.0103370e+02
   1.2164100e+03   6.1800290e+01
   1.2168920e+03   3.1952640e+01
   1.2173740e+03   2.7079100e+01
   1.2178560e+03   3.1381840e+01
   1.2183380e+03   5.0187010e+01
   1.2188200e+03   6.3065920e+01
   1.2193020e+03   4.4539550e+01
   1.2197850e+03   1.2278320e+01
   1.2202670e+03   1.5964360e+01
   1.2207490e+03   4.4548340e+01
   1.2212310e+03   6.0718260e+01
   1.2217130e+03   4.2884280e+01
   1.2221950e+03   3.0435060e+01
   1.2226770e+03   2.4652830e+01
   1.2231590e+03   2.8547360e+01
   1.2236410e+03   5.9719730e+01
   1.2241240e+03   9.7406250e+01
   1.2246060e+03   9.0196290e+01
   1.2250880e+03   4.7986820e+01
   1.2255700e+03   1.2580570e+01
   1.2260520e+03   6.7207030e+00
   1.2265340e+03   1.3761230e+01
   1.2270160e+03   3.8490720e+01
   1.2274980e+03   6.1945310e+01
   1.2279810e+03   6.1533690e+01
   1.2284630e+03   4.6511230e+01
   1.2289450e+03   3.0464360e+01
   1.2294270e+03   1.3799320e+01
   1.2299090e+03   5.3037110e+00
   1.2303910e+03   3.9711910e+00
   1.2308730e+03   1.1499510e+01
   1.2313550e+03   2.9282710e+01
   1.2318380e+03   4.8622560e+01
   1.2323200e+03   6.2331050e+01
   1.2328020e+03   6.9020020e+01
   1.2332840e+03   5.9655270e+01
   1.2337660e+03   3.7307620e+01
   1.2342480e+03   3.2458010e+01
   1.2347300e+03   6.3749510e+01
   1.2352120e+03   7.9636230e+01
   1.2356940e+03   6.6956050e+01
   1.2361770e+03   4.7930180e+01
   1.2366590e+03   5.5726070e+01
   1.2371410e+03   7.2285160e+01
   1.2376230e+03   6.8743160e+01
   1.2381050e+03   4.4295900e+01
   1.2385870e+03   3.3514160e+01
   1.2390690e+03   4.4369140e+01
   1.2395510e+03   5.4716310e+01
   1.2400330e+03   6.1399410e+01
   1.2405160e+03   6.1057130e+01
   1.2409980e+03   4.0393070e+01
   1.2414800e+03   1.5307620e+01
   1.2419620e+03   7.3081050e+00
   1.2424440e+03   1.8558110e+01
   1.2429260e+03   2.8037110e+01
   1.2434080e+03   3.3708010e+01
   1.2438900e+03   4.2106930e+01
   1.2443730e+03   5.5802250e+01
   1.2448550e+03   6.9246090e+01
   1.2453370e+03   8.3269530e+01
   1.2458190e+03   8.8479000e+01
   1.2463010e+03   6.6536130e+01
   1.2467830e+03   1.5594730e+01
   1.2472650e+03   6.8408200e+00
   1.2477470e+03   3.0654300e+00
   1.2482290e+03   1.9527340e+01
   1.2487120e+03   3.8065920e+01
   1.2491940e+03   5.0564450e+01
   1.2496760e+03   4.3432620e+01
   1.2501580e+03   2.9142580e+01
   1.2506400e+03   1.7287600e+01
   1.2511220e+03   3.2226998e-02
   1.2516040e+03   9.1967770e+00
   1.2520860e+03   3.9866210e+01
   1.2525680e+03   5.9529790e+01
   1.2530510e+03   5.3969730e+01
   1.2535330e+03   4.0883790e+01
   1.2540150e+03   1.9190430e+01
   1.2544970e+03   0.0000000e+00
   1.5000000e+03   0.0000000e+00
