   1.0000000e+02   0.0000000e+00
   1.6763090e+02   0.0000000e+00
   1.6811300e+02   1.1669200e-01
   1.6859510e+02   4.7185100e-01
   1.6907720e+02   8.2170100e-01
   1.6955930e+02   1.2536160e+00
   1.7004140e+02   1.8581960e+00
   1.7052360e+02   2.8416940e+00
   1.7100570e+02   3.7514720e+00
   1.7148780e+02   3.7976910e+00
   1.7196990e+02   3.2706490e+00
   1.7245200e+02   2.5241740e+00
   1.7293410e+02   1.3399090e+00
   1.7341630e+02   1.9179500e-01
   1.7389840e+02   3.1066100e-01
   1.7438050e+02   1.6835800e-01
   1.7486260e+02   9.7283600e-01
   1.7534470e+02   1.6212040e+00
   1.7582680e+02   2.1056820e+00
   1.7630900e+02   2.3822360e+00
   1.7679110e+02   2.2456090e+00
   1.7727320e+02   1.9105950e+00
   1.7775530e+02   1.7411310e+00
   1.7823740e+02   1.9236110e+00
   1.7871950e+02   2.2014730e+00
   1.7920170e+02   2.1877820e+00
   1.7968380e+02   1.9156420e+00
   1.8016590e+02   1.6999740e+00
   1.8064800e+02   1.9189830e+00
   1.8113010e+02   2.3805540e+00
   1.8161220e+02   2.6627920e+00
   1.8209440e+02   2.4644170e+00
   1.8257650e+02   2.0569500e+00
   1.8305860e+02   1.8698620e+00
   1.8354070e+02   1.9023970e+00
   1.8402280e+02   1.9072340e+00
   1.8450490e+02   1.5038990e+00
   1.8498710e+02   8.4384500e-01
   1.8546920e+02   4.9686100e-01
   1.8595130e+02   7.3718600e-01
   1.8643340e+02   1.3641090e+00
   1.8691550e+02   2.0639500e+00
   1.8739760e+02   2.8651430e+00
   1.8787980e+02   3.3806300e+00
   1.8836190e+02   2.9042780e+00
   1.8884400e+02   1.6196750e+00
   1.8932610e+02   7.5167500e-01
   1.8980820e+02   9.2247400e-01
   1.9029030e+02   1.8175390e+00
   1.9077250e+02   2.2677880e+00
   1.9125460e+02   2.2223090e+00
   1.9173670e+02   2.0357590e+00
   1.9221880e+02   2.2626190e+00
   1.9270090e+02   2.8646930e+00
   1.9318300e+02   3.0844270e+00
   1.9366520e+02   2.4180340e+00
   1.9414730e+02   1.0499730e+00
   1.9462940e+02   1.6339900e-01
   1.9511150e+02   2.0888900e-01
   1.9559360e+02   2.1811700e-01
   1.9607570e+02   2.5288001e-02
   1.9655790e+02   5.2822100e-01
   1.9704000e+02   1.0375860e+00
   1.9752210e+02   1.4918140e+00
   1.9800420e+02   1.8849330e+00
   1.9848630e+02   2.0812110e+00
   1.9896840e+02   2.0068820e+00
   1.9945060e+02   1.8983420e+00
   1.9993270e+02   2.2294010e+00
   2.0041480e+02   3.0783810e+00
   2.0089690e+02   3.6719440e+00
   2.0137900e+02   3.5026820e+00
   2.0186110e+02   2.5263560e+00
   2.0234330e+02   2.1959380e+00
   2.0282540e+02   2.7123300e+00
   2.0330750e+02   3.5520210e+00
   2.0378960e+02   3.7170830e+00
   2.0427170e+02   3.0457380e+00
   2.0475380e+02   2.5264660e+00
   2.0523600e+02   2.6635020e+00
   2.0571810e+02   3.5462800e+00
   2.0620020e+02   4.2453230e+00
   2.0668230e+02   4.7273830e+00
   2.0716440e+02   5.0663800e+00
   2.0764650e+02   5.3416370e+00
   2.0812870e+02   5.4825740e+00
   2.0861080e+02   5.7946470e+00
   2.0909290e+02   6.4835210e+00
   2.0957500e+02   7.6567120e+00
   2.1005710e+02   8.6429020e+00
   2.1053920e+02   9.4214210e+00
   2.1102140e+02   1.0041250e+01
   2.1150350e+02   1.0648080e+01
   2.1198560e+02   1.1330540e+01
   2.1246770e+02   1.1748460e+01
   2.1294980e+02   1.1629250e+01
   2.1343190e+02   1.0688010e+01
   2.1391400e+02   1.0260680e+01
   2.1439620e+02   1.0493690e+01
   2.1487830e+02   1.1157170e+01
   2.1536040e+02   1.1847160e+01
   2.1584250e+02   1.2566460e+01
   2.1632460e+02   1.3418610e+01
   2.1680670e+02   1.4372030e+01
   2.1728890e+02   1.5498260e+01
   2.1777100e+02   1.6250790e+01
   2.1825310e+02   1.6436220e+01
   2.1873520e+02   1.6334690e+01
   2.1921730e+02   1.6656050e+01
   2.1969940e+02   1.7585400e+01
   2.2018160e+02   1.8632110e+01
   2.2066370e+02   1.9540550e+01
   2.2114580e+02   2.0370020e+01
   2.2162790e+02   2.0932510e+01
   2.2211000e+02   2.1093870e+01
   2.2259210e+02   2.0981550e+01
   2.2307430e+02   2.1075390e+01
   2.2355640e+02   2.1514300e+01
   2.2403850e+02   2.1963340e+01
   2.2452060e+02   2.2392780e+01
   2.2500270e+02   2.2908570e+01
   2.2548480e+02   2.3196180e+01
   2.2596700e+02   2.3216820e+01
   2.2644910e+02   2.3032330e+01
   2.2693120e+02   2.2794680e+01
   2.2741330e+02   2.2498250e+01
   2.2789540e+02   2.2158100e+01
   2.2837750e+02   2.1774960e+01
   2.2885970e+02   2.1292830e+01
   2.2934180e+02   2.0901700e+01
   2.2982390e+02   2.0706790e+01
   2.3030600e+02   2.0572920e+01
   2.3078810e+02   2.0128680e+01
   2.3127020e+02   1.9260910e+01
   2.3175240e+02   1.8218770e+01
   2.3223450e+02   1.7137300e+01
   2.3271660e+02   1.5964650e+01
   2.3319870e+02   1.4792150e+01
   2.3368080e+02   1.3575650e+01
   2.3416290e+02   1.2375050e+01
   2.3464510e+02   1.1326380e+01
   2.3512720e+02   1.0453450e+01
   2.3560930e+02   9.7116580e+00
   2.3609140e+02   9.0829320e+00
   2.3657350e+02   8.5665970e+00
   2.3705560e+02   8.1921500e+00
   2.3753780e+02   8.1072390e+00
   2.3801990e+02   8.1241070e+00
   2.3850200e+02   7.7254560e+00
   2.3898410e+02   6.6068840e+00
   2.3946620e+02   5.5182840e+00
   2.3994830e+02   4.8127520e+00
   2.4043050e+02   4.7683830e+00
   2.4091260e+02   4.4397510e+00
   2.4139470e+02   3.6052670e+00
   2.4187680e+02   2.5541230e+00
   2.4235890e+02   2.0286250e+00
   2.4284100e+02   2.2905460e+00
   2.4332320e+02   2.6729890e+00
   2.4380530e+02   2.9099540e+00
   2.4428740e+02   2.9751430e+00
   2.4476950e+02   2.9596670e+00
   2.4525160e+02   2.8823200e+00
   2.4573370e+02   2.7179070e+00
   2.4621590e+02   2.3722990e+00
   2.4669800e+02   1.6432720e+00
   2.4718010e+02   1.0519220e+00
   2.4766220e+02   8.3283200e-01
   2.4814430e+02   1.1640360e+00
   2.4862640e+02   1.3740270e+00
   2.4910860e+02   1.4649200e+00
   2.4959070e+02   1.4370990e+00
   2.5007280e+02   1.2442470e+00
   2.5055490e+02   6.7533100e-01
   2.5103700e+02   2.9854200e-01
   2.5151910e+02   3.9922000e-01
   2.5200130e+02   1.2034190e+00
   2.5248340e+02   1.7246130e+00
   2.5296550e+02   1.9088400e+00
   2.5344760e+02   1.8353540e+00
   2.5392970e+02   1.5980030e+00
   2.5441180e+02   1.0379070e+00
   2.5489400e+02   6.0382800e-01
   2.5537610e+02   5.1766600e-01
   2.5585820e+02   9.3589800e-01
   2.5634030e+02   1.0471990e+00
   2.5682240e+02   7.0650500e-01
   2.5730460e+02   1.7139100e-01
   2.5778670e+02   1.1404400e-01
   2.5826880e+02   5.3993002e-02
   2.5875090e+02   5.1231001e-02
   2.5923300e+02   1.1311300e-01
   2.5971510e+02   1.3045100e-01
   2.6019730e+02   9.8330997e-02
   2.6067940e+02   6.2042002e-02
   2.6116150e+02   1.9363400e-01
   2.6164360e+02   1.2820000e-03
   2.6212570e+02   7.3927700e-01
   2.6260780e+02   1.2793770e+00
   2.6309000e+02   1.3637850e+00
   2.6357210e+02   9.4974900e-01
   2.6405420e+02   4.4913100e-01
   2.6453630e+02   3.0644600e-01
   2.6501840e+02   9.5482600e-01
   2.6550050e+02   9.4931800e-01
   2.6598270e+02   1.8897999e-02
   2.6646480e+02   7.7400200e-01
   2.6694690e+02   1.1093710e+00
   2.6742900e+02   9.7808100e-01
   2.6791110e+02   7.9010400e-01
   2.6839320e+02   4.9599500e-01
   2.6887540e+02   2.2361000e-01
   2.6935750e+02   1.5255400e-01
   2.6983960e+02   3.5560600e-01
   2.7032170e+02   4.8997500e-01
   2.7080380e+02   4.6018200e-01
   2.7128590e+02   2.7458200e-01
   2.7176810e+02   6.4181998e-02
   2.7225020e+02   2.2221000e-01
   2.7273230e+02   4.2757000e-01
   2.7321440e+02   3.0262400e-01
   2.7369650e+02   2.5442900e-01
   2.7417860e+02   5.8007400e-01
   2.7466080e+02   4.5552400e-01
   2.7514290e+02   3.8562998e-02
   2.7562500e+02   3.1567000e-01
   2.7610710e+02   3.4008800e-01
   2.7658920e+02   2.5053400e-01
   2.7707140e+02   1.2349700e-01
   2.7755350e+02   6.1168998e-02
   2.7803560e+02   8.3774999e-02
   2.7851770e+02   1.9200100e-01
   2.7899980e+02   6.3655900e-01
   2.7948190e+02   6.8615300e-01
   2.7996410e+02   2.8658700e-01
   2.8044620e+02   2.8224900e-01
   2.8092830e+02   9.1478700e-01
   2.8141040e+02   1.6183970e+00
   2.8189250e+02   1.9743500e+00
   2.8237460e+02   1.8421330e+00
   2.8285680e+02   1.3800010e+00
   2.8333890e+02   9.7607400e-01
   2.8382100e+02   6.1750400e-01
   2.8430310e+02   4.1293700e-01
   2.8478520e+02   5.4709200e-01
   2.8526730e+02   9.9043700e-01
   2.8574950e+02   1.2312130e+00
   2.8623160e+02   1.1794090e+00
   2.8671370e+02   9.3281600e-01
   2.8719580e+02   6.2677800e-01
   2.8767790e+02   2.5522200e-01
   2.8816000e+02   5.9620002e-03
   2.8864220e+02   3.0471999e-02
   2.8912430e+02   3.1404100e-01
   2.8960640e+02   4.1309400e-01
   2.9008850e+02   2.0405600e-01
   2.9057060e+02   2.1973001e-02
   2.9105270e+02   6.3139300e-01
   2.9153490e+02   1.9640810e+00
   2.9201700e+02   3.0131720e+00
   2.9249910e+02   2.9520030e+00
   2.9298120e+02   2.1149220e+00
   2.9346330e+02   1.7793810e+00
   2.9394540e+02   2.0937390e+00
   2.9442760e+02   2.5535090e+00
   2.9490970e+02   2.3557470e+00
   2.9539180e+02   1.6420820e+00
   2.9587390e+02   1.1633870e+00
   2.9635600e+02   1.5252420e+00
   2.9683810e+02   2.3587680e+00
   2.9732030e+02   2.7394100e+00
   2.9780240e+02   2.6090160e+00
   2.9828450e+02   2.3802760e+00
   2.9876660e+02   2.5870250e+00
   2.9924870e+02   3.0699880e+00
   2.9973080e+02   3.3444710e+00
   3.0021300e+02   2.9600600e+00
   3.0069510e+02   2.3390850e+00
   3.0117720e+02   2.2317010e+00
   3.0165930e+02   2.6360020e+00
   3.0214140e+02   3.1133080e+00
   3.0262350e+02   3.2369730e+00
   3.0310570e+02   3.1571770e+00
   3.0358780e+02   3.1771240e+00
   3.0406990e+02   3.4912830e+00
   3.0455200e+02   3.8820420e+00
   3.0503410e+02   4.0578080e+00
   3.0551620e+02   4.0451700e+00
   3.0599840e+02   4.0758630e+00
   3.0648050e+02   4.4616170e+00
   3.0696260e+02   4.9554290e+00
   3.0744470e+02   5.1766240e+00
   3.0792680e+02   4.8351940e+00
   3.0840890e+02   4.4432600e+00
   3.0889110e+02   4.4404560e+00
   3.0937320e+02   4.7729380e+00
   3.0985530e+02   5.2207490e+00
   3.1033740e+02   5.6932030e+00
   3.1081950e+02   6.1996800e+00
   3.1130160e+02   6.7596050e+00
   3.1178380e+02   7.4213330e+00
   3.1226590e+02   8.0403790e+00
   3.1274800e+02   8.4625050e+00
   3.1323010e+02   8.7574620e+00
   3.1371220e+02   9.1067700e+00
   3.1419430e+02   9.7603680e+00
   3.1467650e+02   1.0397670e+01
   3.1515860e+02   1.0652140e+01
   3.1564070e+02   1.0227200e+01
   3.1612280e+02   1.0257720e+01
   3.1660490e+02   1.1631040e+01
   3.1708700e+02   1.3770440e+01
   3.1756920e+02   1.5707450e+01
   3.1805130e+02   1.7039050e+01
   3.1853340e+02   1.8144880e+01
   3.1901550e+02   1.9218900e+01
   3.1949760e+02   2.0325100e+01
   3.1997970e+02   2.1248890e+01
   3.2046190e+02   2.1599460e+01
   3.2094400e+02   2.1840520e+01
   3.2142610e+02   2.2484700e+01
   3.2190820e+02   2.3973620e+01
   3.2239030e+02   2.5558040e+01
   3.2287240e+02   2.7114480e+01
   3.2335460e+02   2.8675160e+01
   3.2383670e+02   2.9969680e+01
   3.2431880e+02   3.0253850e+01
   3.2480090e+02   3.0549670e+01
   3.2528300e+02   3.1634970e+01
   3.2576510e+02   3.4664920e+01
   3.2624730e+02   3.7320060e+01
   3.2672940e+02   3.8941620e+01
   3.2721150e+02   3.9713410e+01
   3.2769360e+02   4.1109030e+01
   3.2817570e+02   4.3819600e+01
   3.2865780e+02   4.6715160e+01
   3.2914000e+02   4.9243270e+01
   3.2962210e+02   5.0954280e+01
   3.3010420e+02   5.2849840e+01
   3.3058630e+02   5.4993240e+01
   3.3106840e+02   5.7365920e+01
   3.3155050e+02   5.9781050e+01
   3.3203270e+02   6.2223590e+01
   3.3251480e+02   6.4730050e+01
   3.3299690e+02   6.7432720e+01
   3.3347900e+02   7.0644290e+01
   3.3396110e+02   7.2979490e+01
   3.3444320e+02   7.4055200e+01
   3.3492540e+02   7.4489480e+01
   3.3540750e+02   7.5388130e+01
   3.3588960e+02   7.7175570e+01
   3.3637170e+02   7.8548680e+01
   3.3685380e+02   7.9047890e+01
   3.3733590e+02   7.8637760e+01
   3.3781800e+02   7.8135770e+01
   3.3830010e+02   7.7759870e+01
   3.3878230e+02   7.6940500e+01
   3.3926440e+02   7.4958850e+01
   3.3974650e+02   7.1599020e+01
   3.4022860e+02   6.7968320e+01
   3.4071070e+02   6.4313480e+01
   3.4119280e+02   6.0584420e+01
   3.4167500e+02   5.6758860e+01
   3.4215710e+02   5.2717320e+01
   3.4263920e+02   4.8820100e+01
   3.4312130e+02   4.5361870e+01
   3.4360340e+02   4.2377010e+01
   3.4408550e+02   3.9382790e+01
   3.4456770e+02   3.6268550e+01
   3.4504980e+02   3.3165410e+01
   3.4553190e+02   3.0536420e+01
   3.4601400e+02   2.8393130e+01
   3.4649610e+02   2.6342180e+01
   3.4697820e+02   2.4121510e+01
   3.4746040e+02   2.1757820e+01
   3.4794250e+02   1.9405650e+01
   3.4842460e+02   1.6967350e+01
   3.4890670e+02   1.4808990e+01
   3.4938880e+02   1.3594570e+01
   3.4987090e+02   1.3194730e+01
   3.5035310e+02   1.2913070e+01
   3.5083520e+02   1.2388580e+01
   3.5131730e+02   1.1688360e+01
   3.5179940e+02   1.0951990e+01
   3.5228150e+02   1.0177060e+01
   3.5276360e+02   9.4882470e+00
   3.5324580e+02   9.1123620e+00
   3.5372790e+02   8.8954320e+00
   3.5421000e+02   8.6106870e+00
   3.5469210e+02   8.1315270e+00
   3.5517420e+02   7.6007960e+00
   3.5565630e+02   7.1748120e+00
   3.5613850e+02   6.8277440e+00
   3.5662060e+02   6.5020790e+00
   3.5710270e+02   6.0563660e+00
   3.5758480e+02   5.6443980e+00
   3.5806690e+02   5.4832650e+00
   3.5854900e+02   5.8958630e+00
   3.5903120e+02   6.1849750e+00
   3.5951330e+02   5.7260820e+00
   3.5999540e+02   4.7175370e+00
   3.6047750e+02   3.8531460e+00
   3.6095960e+02   3.4742850e+00
   3.6144170e+02   3.3414190e+00
   3.6192390e+02   3.3088260e+00
   3.6240600e+02   3.3822330e+00
   3.6288810e+02   3.4709050e+00
   3.6337020e+02   3.6436000e+00
   3.6385230e+02   3.7909280e+00
   3.6433440e+02   3.7452430e+00
   3.6481660e+02   3.2231710e+00
   3.6529870e+02   2.7085040e+00
   3.6578080e+02   2.4002950e+00
   3.6626290e+02   2.3243100e+00
   3.6674500e+02   2.2856450e+00
   3.6722710e+02   2.3369370e+00
   3.6770930e+02   2.3883480e+00
   3.6819140e+02   2.3615000e+00
   3.6867350e+02   1.8141480e+00
   3.6915560e+02   1.5601430e+00
   3.6963770e+02   1.8952410e+00
   3.7011980e+02   2.7271800e+00
   3.7060200e+02   3.2332460e+00
   3.7108410e+02   3.2824400e+00
   3.7156620e+02   3.1274950e+00
   3.7204830e+02   2.9038850e+00
   3.7253040e+02   2.6493870e+00
   3.7301250e+02   2.2263830e+00
   3.7349470e+02   1.4565320e+00
   3.7397680e+02   5.8263400e-01
   3.7445890e+02   2.0804200e-01
   3.7494100e+02   5.1785700e-01
   3.7542310e+02   9.2950100e-01
   3.7590520e+02   1.2821540e+00
   3.7638740e+02   1.6001660e+00
   3.7686950e+02   1.6151920e+00
   3.7735160e+02   1.1627160e+00
   3.7783370e+02   6.7999600e-01
   3.7831580e+02   8.0059800e-01
   3.7879790e+02   1.6249010e+00
   3.7928010e+02   2.3094790e+00
   3.7976220e+02   2.6512530e+00
   3.8024430e+02   2.7021480e+00
   3.8072640e+02   2.5309070e+00
   3.8120850e+02   2.0676500e+00
   3.8169060e+02   1.6095920e+00
   3.8217280e+02   1.4823650e+00
   3.8265490e+02   1.6280900e+00
   3.8313700e+02   1.6812360e+00
   3.8361910e+02   1.5740740e+00
   3.8410120e+02   1.3566700e+00
   3.8458330e+02   9.7286600e-01
   3.8506550e+02   4.7425500e-01
   3.8554760e+02   2.3604600e-01
   3.8602970e+02   8.6575300e-01
   3.8651180e+02   1.8057820e+00
   3.8699390e+02   1.9025340e+00
   3.8747600e+02   9.5705800e-01
   3.8795820e+02   8.9419998e-02
   3.8844030e+02   3.2860900e-01
   3.8892240e+02   1.8955000e-02
   3.8940450e+02   2.9841200e-01
   3.8988660e+02   3.8790900e-01
   3.9036870e+02   3.9829300e-01
   3.9085090e+02   4.3837000e-01
   3.9133300e+02   5.0832700e-01
   3.9181510e+02   5.9877800e-01
   3.9229720e+02   7.5603500e-01
   3.9277930e+02   9.0668900e-01
   3.9326140e+02   9.6386300e-01
   3.9374360e+02   7.2187800e-01
   3.9422570e+02   6.3264800e-01
   3.9470780e+02   1.0772740e+00
   3.9518990e+02   1.8388860e+00
   3.9567200e+02   2.3477550e+00
   3.9615410e+02   2.2429960e+00
   3.9663630e+02   1.9898990e+00
   3.9711840e+02   1.7990950e+00
   3.9760050e+02   1.7139020e+00
   3.9808260e+02   1.6289180e+00
   3.9856470e+02   1.5673560e+00
   3.9904680e+02   1.4848370e+00
   3.9952900e+02   1.3274380e+00
   4.0001110e+02   8.0683900e-01
   4.0049320e+02   5.2308300e-01
   4.0097530e+02   6.8511200e-01
   4.0145740e+02   1.2915800e+00
   4.0193950e+02   1.6888690e+00
   4.0242170e+02   1.7609060e+00
   4.0290380e+02   1.7494010e+00
   4.0338590e+02   1.8542900e+00
   4.0386800e+02   2.2813950e+00
   4.0435010e+02   2.3254890e+00
   4.0483220e+02   1.7123370e+00
   4.0531440e+02   7.2650500e-01
   4.0579650e+02   1.9715100e-01
   4.0627860e+02   2.4855000e-01
   4.0676070e+02   3.3277900e-01
   4.0724280e+02   1.1065700e-01
   4.0772490e+02   4.4014400e-01
   4.0820710e+02   4.3022200e-01
   4.0868920e+02   3.0534700e-01
   4.0917130e+02   1.1156880e+00
   4.0965340e+02   9.9826400e-01
   4.1013550e+02   1.2932000e-02
   4.1061760e+02   6.0748300e-01
   4.1109980e+02   3.2736600e-01
   4.1158190e+02   4.3391400e-01
   4.1206400e+02   5.9773600e-01
   4.1254610e+02   1.8573800e-01
   4.1302820e+02   2.1698400e-01
   4.1351030e+02   3.8074002e-02
   4.1399250e+02   4.6187200e-01
   4.1447460e+02   7.3993700e-01
   4.1495670e+02   6.7704400e-01
   4.1543880e+02   4.6569100e-01
   4.1592090e+02   1.6157200e-01
   4.1640300e+02   1.4456200e-01
   4.1688520e+02   2.4277900e-01
   4.1736730e+02   1.8568400e-01
   4.1784940e+02   7.2506000e-01
   4.1833150e+02   1.0082590e+00
   4.1881360e+02   1.0090900e+00
   4.1929570e+02   1.0023840e+00
   4.1977790e+02   1.2765730e+00
   4.2026000e+02   1.5621300e+00
   4.2074210e+02   1.5847820e+00
   4.2122420e+02   8.8465900e-01
   4.2170630e+02   3.1015000e-01
   4.2218840e+02   1.8560400e-01
   4.2267060e+02   4.1983400e-01
   4.2315270e+02   6.5527700e-01
   4.2363480e+02   1.0076370e+00
   4.2411690e+02   1.1795230e+00
   4.2459900e+02   9.3427300e-01
   4.2508110e+02   2.1215800e-01
   4.2556330e+02   6.8298700e-01
   4.2604540e+02   2.1010600e-01
   4.2652750e+02   1.5333630e+00
   4.2700960e+02   2.0799450e+00
   4.2749170e+02   1.2100790e+00
   4.2797380e+02   5.3290600e-01
   4.2845600e+02   4.6099100e-01
   4.2893810e+02   9.6024700e-01
   4.2942020e+02   1.1920510e+00
   4.2990230e+02   1.0883100e+00
   4.3038440e+02   8.4344100e-01
   4.3086650e+02   5.5327600e-01
   4.3134870e+02   1.8758400e-01
   4.3183080e+02   2.6825000e-02
   4.3231290e+02   3.7551999e-02
   4.3279500e+02   6.7691997e-02
   4.3327710e+02   9.9319004e-02
   4.3375920e+02   5.2219000e-02
   4.3424140e+02   4.9697999e-02
   4.3472350e+02   2.1129200e-01
   4.3520560e+02   4.7260700e-01
   4.3568770e+02   5.6607400e-01
   4.3616980e+02   4.8773600e-01
   4.3665190e+02   3.0283700e-01
   4.3713410e+02   7.2880000e-02
   4.3761620e+02   5.0883500e-01
   4.3809830e+02   6.4034300e-01
   4.3858040e+02   2.1949800e-01
   4.3906250e+02   3.3335100e-01
   4.3954460e+02   4.0567400e-01
   4.4002680e+02   1.5675000e-01
   4.4050890e+02   1.6750300e-01
   4.4099100e+02   1.2689550e+00
   4.4147310e+02   2.4913860e+00
   4.4195520e+02   2.8843310e+00
   4.4243730e+02   2.1989970e+00
   4.4291950e+02   1.4536670e+00
   4.4340160e+02   1.0746880e+00
   4.4388370e+02   9.5703900e-01
   4.4436580e+02   9.7305700e-01
   4.4484790e+02   1.2359010e+00
   4.4533000e+02   1.4751280e+00
   4.4581220e+02   1.5778470e+00
   4.4629430e+02   1.5522120e+00
   4.4677640e+02   1.5857390e+00
   4.4725850e+02   1.8000830e+00
   4.4774060e+02   1.9850460e+00
   4.4822270e+02   2.0432850e+00
   4.4870490e+02   2.0038680e+00
   4.4918700e+02   1.7615510e+00
   4.4966910e+02   1.0683020e+00
   4.5015120e+02   2.9692100e-01
   4.5063330e+02   1.1238100e-01
   4.5111540e+02   8.7490800e-01
   4.5159760e+02   1.4398920e+00
   4.5207970e+02   1.4458470e+00
   4.5256180e+02   9.3545900e-01
   4.5304390e+02   5.6887400e-01
   4.5352600e+02   3.5542300e-01
   4.5400810e+02   2.9772200e-01
   4.5449030e+02   4.3846100e-01
   4.5497240e+02   7.7402100e-01
   4.5545450e+02   1.1636620e+00
   4.5593660e+02   1.6398390e+00
   4.5641870e+02   2.0541840e+00
   4.5690080e+02   1.9997670e+00
   4.5738300e+02   1.5579410e+00
   4.5786510e+02   1.3243290e+00
   4.5834720e+02   1.8329010e+00
   4.5882930e+02   2.6527560e+00
   4.5931140e+02   3.0661700e+00
   4.5979350e+02   3.0625000e+00
   4.6027570e+02   2.7082750e+00
   4.6075780e+02   1.6495130e+00
   4.6123990e+02   3.9504600e-01
   4.6172200e+02   3.1513600e-01
   4.6220410e+02   9.6061997e-02
   4.6268620e+02   3.6551700e-01
   4.6316840e+02   7.4721100e-01
   4.6365050e+02   1.0381850e+00
   4.6413260e+02   1.1994170e+00
   4.6461470e+02   1.0408710e+00
   4.6509680e+02   8.9650000e-01
   4.6557890e+02   9.6843000e-01
   4.6606110e+02   1.3408320e+00
   4.6654320e+02   1.5886690e+00
   4.6702530e+02   1.4607960e+00
   4.6750740e+02   1.2239800e+00
   4.6798950e+02   1.1019210e+00
   4.6847160e+02   1.1925130e+00
   4.6895380e+02   1.2692410e+00
   4.6943590e+02   1.3747520e+00
   4.6991800e+02   1.4240880e+00
   4.7040010e+02   1.2610400e+00
   4.7088220e+02   7.6560200e-01
   4.7136430e+02   2.8788400e-01
   4.7184650e+02   8.1078000e-02
   4.7232860e+02   3.5220700e-01
   4.7281070e+02   3.6627200e-01
   4.7329280e+02   7.1941003e-02
   4.7377490e+02   3.3448000e-01
   4.7425700e+02   6.7861900e-01
   4.7473920e+02   9.6393600e-01
   4.7522130e+02   1.0992360e+00
   4.7570340e+02   9.8611100e-01
   4.7618550e+02   7.6533100e-01
   4.7666760e+02   6.9986000e-01
   4.7714970e+02   7.8679300e-01
   4.7763190e+02   9.9607500e-01
   4.7811400e+02   1.5770680e+00
   4.7859610e+02   2.1858670e+00
   4.7907820e+02   2.0958440e+00
   4.7956030e+02   1.2079770e+00
   4.8004240e+02   3.5234800e-01
   4.8052460e+02   2.2731000e-01
   4.8100670e+02   5.5214300e-01
   4.8148880e+02   9.3272000e-01
   4.8197090e+02   1.3345570e+00
   4.8245300e+02   1.6566120e+00
   4.8293520e+02   1.8226510e+00
   4.8341730e+02   1.8355290e+00
   4.8389940e+02   1.8238300e+00
   4.8438150e+02   1.8043630e+00
   4.8486360e+02   1.6828610e+00
   4.8534570e+02   1.3558350e+00
   4.8582790e+02   6.3877500e-01
   4.8631000e+02   2.3479500e-01
   4.8679210e+02   4.2659400e-01
   4.8727420e+02   8.3515900e-01
   4.8775630e+02   1.1475980e+00
   4.8823840e+02   1.4070550e+00
   4.8872060e+02   1.4730610e+00
   4.8920270e+02   1.1768300e+00
   4.8968480e+02   6.9039200e-01
   4.9016690e+02   7.9693200e-01
   4.9064900e+02   1.7787480e+00
   4.9113110e+02   2.5095860e+00
   4.9161330e+02   2.2324410e+00
   4.9209540e+02   9.7270200e-01
   4.9257750e+02   4.5601300e-01
   4.9305960e+02   8.0796100e-01
   4.9354170e+02   1.3767660e+00
   4.9402380e+02   1.3519630e+00
   4.9450600e+02   8.8768000e-01
   4.9498810e+02   7.1751000e-01
   4.9547020e+02   1.1057590e+00
   4.9595230e+02   1.7222600e+00
   4.9643440e+02   2.1550060e+00
   4.9691650e+02   2.4402430e+00
   4.9739870e+02   2.6616590e+00
   4.9788080e+02   2.9514730e+00
   4.9836290e+02   3.1070020e+00
   4.9884500e+02   2.7619630e+00
   4.9932710e+02   1.8568530e+00
   4.9980920e+02   1.1613160e+00
   5.0029140e+02   1.2570990e+00
   5.0077350e+02   1.6703950e+00
   5.0125560e+02   1.9545970e+00
   5.0173770e+02   1.9955980e+00
   5.0221980e+02   1.8976100e+00
   5.0270190e+02   1.5389670e+00
   5.0318410e+02   1.0483250e+00
   5.0366620e+02   7.7492500e-01
   5.0414830e+02   9.3100400e-01
   5.0463040e+02   1.1077040e+00
   5.0511250e+02   1.1812590e+00
   5.0559460e+02   1.1388930e+00
   5.0607680e+02   1.1665460e+00
   5.0655890e+02   1.2844160e+00
   5.0704100e+02   1.4436040e+00
   5.0752310e+02   1.6867940e+00
   5.0800520e+02   2.0872500e+00
   5.0848730e+02   1.9932330e+00
   5.0896950e+02   1.1340830e+00
   5.0945160e+02   7.8383997e-02
   5.0993370e+02   6.4560004e-02
   5.1041580e+02   1.0336190e+00
   5.1089790e+02   1.8686100e+00
   5.1138000e+02   1.9472240e+00
   5.1186220e+02   1.6033290e+00
   5.1234430e+02   1.7070200e+00
   5.1282640e+02   2.2230380e+00
   5.1330850e+02   2.5267180e+00
   5.1379060e+02   1.8410990e+00
   5.1427280e+02   7.7227800e-01
   5.1475490e+02   1.1740500e-01
   5.1523700e+02   8.6131997e-02
   5.1571910e+02   3.0288300e-01
   5.1620120e+02   7.0721100e-01
   5.1668330e+02   1.1694760e+00
   5.1716550e+02   1.4972110e+00
   5.1764760e+02   1.5554120e+00
   5.1812970e+02   1.5417290e+00
   5.1861180e+02   1.5499270e+00
   5.1909390e+02   1.5679820e+00
   5.1957600e+02   1.4165460e+00
   5.2005820e+02   9.1372300e-01
   5.2054030e+02   4.8832700e-01
   5.2102240e+02   2.8617900e-01
   5.2150450e+02   4.4316100e-01
   5.2198660e+02   5.0646600e-01
   5.2246880e+02   3.9656800e-01
   5.2295090e+02   3.0294800e-01
   5.2343300e+02   4.6525600e-01
   5.2391510e+02   9.1960500e-01
   5.2439720e+02   1.2254910e+00
   5.2487930e+02   1.2790220e+00
   5.2536150e+02   1.1220660e+00
   5.2584360e+02   7.4981700e-01
   5.2632570e+02   1.6717900e-01
   5.2680780e+02   2.3501200e-01
   5.2728990e+02   7.5676002e-02
   5.2777200e+02   3.9941000e-01
   5.2825420e+02   6.2281400e-01
   5.2873630e+02   5.6552900e-01
   5.2921840e+02   4.1901000e-01
   5.2970050e+02   1.9294400e-01
   5.3018260e+02   7.9380004e-03
   5.3066470e+02   9.0401001e-02
   5.3114690e+02   7.3603400e-01
   5.3162900e+02   1.3068350e+00
   5.3211110e+02   1.3199120e+00
   5.3259320e+02   9.9948100e-01
   5.3307530e+02   8.0612200e-01
   5.3355740e+02   1.0321390e+00
   5.3403960e+02   1.2532120e+00
   5.3452170e+02   1.2787590e+00
   5.3500380e+02   1.0849340e+00
   5.3548590e+02   1.0472600e+00
   5.3596800e+02   1.3608400e+00
   5.3645010e+02   1.6482120e+00
   5.3693230e+02   1.6507450e+00
   5.3741440e+02   1.1592710e+00
   5.3789650e+02   1.0499080e+00
   5.3837860e+02   1.4754450e+00
   5.3886070e+02   2.0819130e+00
   5.3934280e+02   2.2502060e+00
   5.3982500e+02   1.9434430e+00
   5.4030710e+02   1.7529750e+00
   5.4078920e+02   1.9723240e+00
   5.4127130e+02   2.3196530e+00
   5.4175340e+02   1.8386120e+00
   5.4223550e+02   6.3431200e-01
   5.4271770e+02   1.7726500e-01
   5.4319980e+02   6.2010200e-01
   5.4368190e+02   2.0705150e+00
   5.4416400e+02   2.6364140e+00
   5.4464610e+02   2.1821100e+00
   5.4512820e+02   1.5019420e+00
   5.4561040e+02   8.8860300e-01
   5.4609250e+02   4.6509200e-01
   5.4657460e+02   3.7796400e-01
   5.4705670e+02   8.0396700e-01
   5.4753880e+02   1.3785170e+00
   5.4802090e+02   2.2900240e+00
   5.4850310e+02   3.2454150e+00
   5.4898520e+02   3.6218530e+00
   5.4946730e+02   2.6991270e+00
   5.4994940e+02   1.8428080e+00
   5.5043150e+02   1.3901710e+00
   5.5091360e+02   1.3897670e+00
   5.5139580e+02   1.4634480e+00
   5.5187790e+02   1.7779920e+00
   5.5236000e+02   1.9761540e+00
   5.5284210e+02   1.7605670e+00
   5.5332420e+02   1.0727500e+00
   5.5380630e+02   4.5617700e-01
   5.5428850e+02   1.5450700e-01
   5.5477060e+02   4.4886400e-01
   5.5525270e+02   3.3471700e-01
   5.5573480e+02   1.9714090e+00
   5.5621690e+02   3.0029110e+00
   5.5669900e+02   2.7883380e+00
   5.5718120e+02   2.0109250e+00
   5.5766330e+02   1.4986950e+00
   5.5814540e+02   1.2289280e+00
   5.5862750e+02   1.1060180e+00
   5.5910960e+02   1.1512410e+00
   5.5959170e+02   1.2708930e+00
   5.6007390e+02   1.4183390e+00
   5.6055600e+02   1.5917970e+00
   5.6103810e+02   1.7015300e+00
   5.6152020e+02   1.5765880e+00
   5.6200230e+02   1.4551730e+00
   5.6248440e+02   1.5316050e+00
   5.6296660e+02   2.2249180e+00
   5.6344870e+02   2.5165710e+00
   5.6393080e+02   2.0571710e+00
   5.6441290e+02   1.2884250e+00
   5.6489500e+02   8.9499300e-01
   5.6537710e+02   1.0281330e+00
   5.6585930e+02   1.2116240e+00
   5.6634140e+02   1.3686900e+00
   5.6682350e+02   1.4942700e+00
   5.6730560e+02   1.5576130e+00
   5.6778770e+02   1.5663640e+00
   5.6826980e+02   1.5521970e+00
   5.6875200e+02   1.4906620e+00
   5.6923410e+02   1.4095650e+00
   5.6971620e+02   1.4591710e+00
   5.7019830e+02   1.6552770e+00
   5.7068040e+02   1.7951350e+00
   5.7116250e+02   1.5772780e+00
   5.7164470e+02   1.2045060e+00
   5.7212680e+02   1.0148350e+00
   5.7260890e+02   1.1400530e+00
   5.7309100e+02   1.3399620e+00
   5.7357310e+02   1.4854050e+00
   5.7405520e+02   1.5973850e+00
   5.7453740e+02   1.7140580e+00
   5.7501950e+02   2.0541760e+00
   5.7550160e+02   2.1924210e+00
   5.7598370e+02   1.8786470e+00
   5.7646580e+02   1.1568450e+00
   5.7694790e+02   5.7189200e-01
   5.7743010e+02   9.1484003e-02
   5.7791220e+02   3.3372900e-01
   5.7839430e+02   2.9204200e-01
   5.7887640e+02   2.1390230e+00
   5.7935850e+02   2.6556320e+00
   5.7984060e+02   1.3726620e+00
   5.8032280e+02   2.0040900e-01
   5.8080490e+02   3.0630500e-01
   5.8128700e+02   9.5775600e-01
   5.8176910e+02   1.8019520e+00
   5.8225120e+02   1.8473660e+00
   5.8273330e+02   1.5134770e+00
   5.8321550e+02   1.3324970e+00
   5.8369750e+02   1.2808840e+00
   5.8417960e+02   1.2856370e+00
   5.8466170e+02   1.3726690e+00
   5.8514390e+02   1.4644050e+00
   5.8562600e+02   1.4313130e+00
   5.8610810e+02   1.2943690e+00
   5.8659020e+02   1.2044370e+00
   5.8707230e+02   1.2589720e+00
   5.8755440e+02   1.3577770e+00
   5.8803660e+02   1.4696690e+00
   5.8851870e+02   1.6240580e+00
   5.8900080e+02   1.6910510e+00
   5.8948290e+02   1.5480040e+00
   5.8996500e+02   1.3480220e+00
   5.9044710e+02   1.2287750e+00
   5.9092930e+02   1.2690810e+00
   5.9141140e+02   1.3597110e+00
   5.9189350e+02   1.5585630e+00
   5.9237560e+02   1.7370720e+00
   5.9285770e+02   1.6295130e+00
   5.9333980e+02   1.2220880e+00
   5.9382200e+02   7.7437200e-01
   5.9430410e+02   2.7117500e-01
   5.9478620e+02   1.6793400e-01
   5.9526830e+02   1.3823300e-01
   5.9575040e+02   3.0248300e-01
   5.9623250e+02   7.3325300e-01
   5.9671470e+02   8.5409900e-01
   5.9719680e+02   8.3997300e-01
   5.9767890e+02   9.1788100e-01
   5.9816100e+02   1.1068460e+00
   5.9864310e+02   1.2133520e+00
   5.9912520e+02   1.0107000e+00
   5.9960740e+02   7.4879800e-01
   6.0008950e+02   6.3118700e-01
   6.0057160e+02   7.1897500e-01
   6.0105370e+02   8.9855600e-01
   6.0153580e+02   1.2410960e+00
   6.0201790e+02   1.6021730e+00
   6.0250010e+02   1.7790070e+00
   6.0298220e+02   1.6420860e+00
   6.0346430e+02   1.5904050e+00
   6.0394640e+02   1.7597540e+00
   6.0442850e+02   2.0304760e+00
   6.0491060e+02   1.9330410e+00
   6.0539280e+02   1.4114530e+00
   6.0587490e+02   1.0156670e+00
   6.0635700e+02   1.2344130e+00
   6.0683910e+02   1.7722590e+00
   6.0732120e+02   1.4188770e+00
   6.0780330e+02   2.2492200e-01
   6.0828550e+02   6.8355200e-01
   6.0876760e+02   2.0954000e-02
   6.0924970e+02   1.2781110e+00
   6.0973180e+02   2.0121570e+00
   6.1021390e+02   1.9449200e+00
   6.1069600e+02   1.6170200e+00
   6.1117820e+02   1.0494420e+00
   6.1166030e+02   4.9795500e-01
   6.1214240e+02   2.1563700e-01
   6.1262450e+02   6.7255800e-01
   6.1310660e+02   9.6176100e-01
   6.1358870e+02   6.7996200e-01
   6.1407090e+02   1.6491700e-01
   6.1455300e+02   1.5362500e-01
   6.1503510e+02   9.8985700e-01
   6.1551720e+02   1.5800590e+00
   6.1599930e+02   1.5333560e+00
   6.1648140e+02   1.0036700e+00
   6.1696360e+02   8.3340500e-01
   6.1744570e+02   1.0421300e+00
   6.1792780e+02   1.3825260e+00
   6.1840990e+02   1.9254490e+00
   6.1889200e+02   2.4599530e+00
   6.1937410e+02   2.2643010e+00
   6.1985630e+02   1.3012700e+00
   6.2033840e+02   3.4244500e-01
   6.2082050e+02   2.2236001e-02
   6.2130260e+02   6.6643000e-02
   6.2178470e+02   1.7546500e-01
   6.2226680e+02   3.2693100e-01
   6.2274900e+02   4.0795900e-01
   6.2323110e+02   2.6529300e-01
   6.2371320e+02   6.1214000e-02
   6.2419530e+02   3.2269999e-03
   6.2467740e+02   1.9853600e-01
   6.2515950e+02   4.6151700e-01
   6.2564170e+02   8.4045000e-01
   6.2612380e+02   1.2608640e+00
   6.2660590e+02   1.5037500e+00
   6.2708800e+02   1.5413820e+00
   6.2757010e+02   1.4846310e+00
   6.2805220e+02   1.3223110e+00
   6.2853440e+02   1.1045680e+00
   6.2901650e+02   1.0874560e+00
   6.2949860e+02   1.2495800e+00
   6.2998070e+02   1.4331670e+00
   6.3046280e+02   1.6098750e+00
   6.3094490e+02   1.6956440e+00
   6.3142710e+02   1.4289930e+00
   6.3190920e+02   7.7339600e-01
   6.3239130e+02   2.4150100e-01
   6.3287340e+02   3.7315000e-01
   6.3335550e+02   7.3641200e-01
   6.3383760e+02   8.5911200e-01
   6.3431980e+02   4.2677300e-01
   6.3480190e+02   1.6315100e-01
   6.3528400e+02   3.0397000e-01
   6.3576610e+02   6.8756100e-01
   6.3624820e+02   1.1589550e+00
   6.3673030e+02   1.8801380e+00
   6.3721250e+02   2.2864650e+00
   6.3769460e+02   2.2336500e+00
   6.3817670e+02   1.8217320e+00
   6.3865880e+02   1.3746830e+00
   6.3914090e+02   9.1075100e-01
   6.3962300e+02   5.1917300e-01
   6.4010520e+02   2.1759400e-01
   6.4058730e+02   2.9919000e-02
   6.4106940e+02   1.0326400e-01
   6.4155150e+02   4.1460800e-01
   6.4203360e+02   6.8730900e-01
   6.4251570e+02   6.9877200e-01
   6.4299790e+02   5.8840600e-01
   6.4348000e+02   4.8569100e-01
   6.4396210e+02   3.9923500e-01
   6.4444420e+02   3.9421100e-01
   6.4492630e+02   7.5906400e-01
   6.4540840e+02   1.0635490e+00
   6.4589060e+02   9.0898100e-01
   6.4637270e+02   3.1336200e-01
   6.4685480e+02   9.7081400e-01
   6.4733690e+02   6.6028200e-01
   6.4781900e+02   1.8955000e-02
   6.4830110e+02   3.5083400e-01
   6.4878330e+02   2.2789800e-01
   6.4926540e+02   1.1953000e-01
   6.4974750e+02   1.0112400e-01
   6.5022960e+02   1.2577100e-01
   6.5071170e+02   4.8611000e-02
   6.5119380e+02   1.1254100e-01
   6.5167600e+02   1.2752200e-01
   6.5215810e+02   2.2369000e-01
   6.5264020e+02   6.5352200e-01
   6.5312230e+02   7.0120600e-01
   6.5360440e+02   4.7657800e-01
   6.5408650e+02   3.6195400e-01
   6.5456870e+02   7.2019200e-01
   6.5505080e+02   1.1464880e+00
   6.5553290e+02   1.3614430e+00
   6.5601500e+02   1.3367230e+00
   6.5649710e+02   1.3475040e+00
   6.5697920e+02   1.5573620e+00
   6.5746140e+02   1.7333410e+00
   6.5794350e+02   1.7228890e+00
   6.5842560e+02   1.4210890e+00
   6.5890770e+02   1.3266750e+00
   6.5938980e+02   1.5427440e+00
   6.5987190e+02   1.7837410e+00
   6.6035410e+02   1.7128110e+00
   6.6083620e+02   1.3418240e+00
   6.6131830e+02   1.0228310e+00
   6.6180040e+02   7.8823500e-01
   6.6228250e+02   6.9303900e-01
   6.6276460e+02   1.0203020e+00
   6.6324680e+02   1.5456090e+00
   6.6372890e+02   1.6959380e+00
   6.6421100e+02   9.6299000e-01
   6.6469310e+02   1.7166500e-01
   6.6517520e+02   7.2598003e-02
   6.6565730e+02   6.4029999e-02
   6.6613950e+02   1.3935500e-01
   6.6662160e+02   6.3602000e-02
   6.6710370e+02   4.1126002e-02
   6.6758580e+02   1.8174000e-01
   6.6806790e+02   4.5210300e-01
   6.6855000e+02   5.9296000e-01
   6.6903220e+02   5.0347100e-01
   6.6951430e+02   4.8967400e-01
   6.6999640e+02   7.4692900e-01
   6.7047850e+02   1.2501530e+00
   6.7096060e+02   1.4818530e+00
   6.7144270e+02   1.4196890e+00
   6.7192490e+02   1.3027800e+00
   6.7240700e+02   1.3663600e+00
   6.7288910e+02   1.5146330e+00
   6.7337120e+02   1.4836120e+00
   6.7385330e+02   1.2252540e+00
   6.7433540e+02   1.0494270e+00
   6.7481760e+02   1.3540610e+00
   6.7529970e+02   1.7738800e+00
   6.7578180e+02   1.9074550e+00
   6.7626390e+02   1.5061000e+00
   6.7674600e+02   1.1214640e+00
   6.7722810e+02   9.2005200e-01
   6.7771030e+02   7.8745300e-01
   6.7819240e+02   5.6854600e-01
   6.7867450e+02   1.2965000e-01
   6.7915660e+02   1.0187900e-01
   6.7963870e+02   3.2478001e-02
   6.8012080e+02   2.3704900e-01
   6.8060300e+02   5.4999200e-01
   6.8108510e+02   9.0020400e-01
   6.8156720e+02   1.1221540e+00
   6.8204930e+02   1.0911030e+00
   6.8253140e+02   9.6810200e-01
   6.8301350e+02   1.0519070e+00
   6.8349570e+02   1.2812420e+00
   6.8397780e+02   1.4126970e+00
   6.8445990e+02   1.3094060e+00
   6.8494200e+02   1.0653080e+00
   6.8542410e+02   5.4241200e-01
   6.8590630e+02   1.9413800e-01
   6.8638840e+02   4.1700700e-01
   6.8687050e+02   7.6756700e-01
   6.8735260e+02   1.8689770e+00
   6.8783470e+02   2.1776010e+00
   6.8831680e+02   1.5531770e+00
   6.8879900e+02   1.1049350e+00
   6.8928110e+02   8.5611000e-01
   6.8976320e+02   7.1703300e-01
   6.9024530e+02   5.9372300e-01
   6.9072740e+02   4.9734100e-01
   6.9120950e+02   6.8521100e-01
   6.9169170e+02   1.2294960e+00
   6.9217380e+02   1.6390880e+00
   6.9265590e+02   1.1066280e+00
   6.9313800e+02   1.5050100e-01
   6.9362010e+02   3.2622100e-01
   6.9410220e+02   1.7742001e-02
   6.9458440e+02   5.1255400e-01
   6.9506650e+02   1.2367520e+00
   6.9554860e+02   1.8873210e+00
   6.9603070e+02   2.1224170e+00
   6.9651280e+02   1.4664190e+00
   6.9699490e+02   8.8694800e-01
   6.9747710e+02   4.2546100e-01
   6.9795920e+02   1.1552800e-01
   6.9844130e+02   8.1303000e-02
   6.9892340e+02   4.1879300e-01
   6.9940550e+02   6.4403900e-01
   6.9988760e+02   5.5694600e-01
   7.0036980e+02   3.4666100e-01
   7.0085190e+02   5.5057500e-01
   7.0133400e+02   1.1112790e+00
   7.0181610e+02   1.6412120e+00
   7.0229820e+02   2.0335460e+00
   7.0278030e+02   2.2288780e+00
   7.0326250e+02   2.0555340e+00
   7.0374460e+02   1.5845260e+00
   7.0422670e+02   1.1580580e+00
   7.0470880e+02   9.7551700e-01
   7.0519090e+02   8.6189700e-01
   7.0567300e+02   6.5020000e-01
   7.0615520e+02   2.6462600e-01
   7.0663730e+02   2.4139800e-01
   7.0711940e+02   8.3429000e-01
   7.0760150e+02   1.4369350e+00
   7.0808360e+02   1.7244950e+00
   7.0856570e+02   1.6859280e+00
   7.0904790e+02   1.4471020e+00
   7.0953000e+02   9.5875900e-01
   7.1001210e+02   6.2725800e-01
   7.1049420e+02   9.9244700e-01
   7.1097630e+02   1.7401580e+00
   7.1145840e+02   2.2646940e+00
   7.1194060e+02   2.4980050e+00
   7.1242270e+02   2.4401130e+00
   7.1290480e+02   1.7398220e+00
   7.1338690e+02   9.2177200e-01
   7.1386900e+02   5.6804700e-01
   7.1435110e+02   1.1730190e+00
   7.1483330e+02   1.5922890e+00
   7.1531540e+02   1.2495120e+00
   7.1579750e+02   8.1444500e-01
   7.1627960e+02   1.0979160e+00
   7.1676170e+02   2.5216940e+00
   7.1724380e+02   3.4129790e+00
   7.1772600e+02   3.5242580e+00
   7.1820810e+02   3.0905950e+00
   7.1869020e+02   2.2697830e+00
   7.1917230e+02   1.1503330e+00
   7.1965440e+02   4.9447300e-01
   7.2013650e+02   6.4112100e-01
   7.2061870e+02   1.1944470e+00
   7.2110080e+02   1.9746360e+00
   7.2158290e+02   2.7925000e+00
   7.2206500e+02   3.2248610e+00
   7.2254710e+02   2.6024550e+00
   7.2302920e+02   2.0334740e+00
   7.2351140e+02   2.0868530e+00
   7.2399350e+02   2.6230930e+00
   7.2447560e+02   3.0202140e+00
   7.2495770e+02   3.2420350e+00
   7.2543980e+02   3.3279840e+00
   7.2592190e+02   3.2381100e+00
   7.2640410e+02   3.0163840e+00
   7.2688620e+02   2.8832860e+00
   7.2736830e+02   2.8304440e+00
   7.2785040e+02   2.9631230e+00
   7.2833250e+02   3.5607380e+00
   7.2881460e+02   4.3210600e+00
   7.2929680e+02   4.4966240e+00
   7.2977890e+02   4.1468470e+00
   7.3026100e+02   3.8326840e+00
   7.3074310e+02   3.9651070e+00
   7.3122520e+02   4.2242890e+00
   7.3170730e+02   4.3660660e+00
   7.3218950e+02   4.3547550e+00
   7.3267160e+02   4.4108350e+00
   7.3315370e+02   4.6470870e+00
   7.3363580e+02   4.8923110e+00
   7.3411790e+02   5.0559620e+00
   7.3460000e+02   5.1140290e+00
   7.3508220e+02   5.2219390e+00
   7.3556430e+02   5.3814470e+00
   7.3604640e+02   5.5837140e+00
   7.3652850e+02   5.8266030e+00
   7.3701060e+02   6.0978810e+00
   7.3749270e+02   6.4652060e+00
   7.3797490e+02   6.9560850e+00
   7.3845700e+02   7.3129500e+00
   7.3893910e+02   7.1775130e+00
   7.3942120e+02   6.8397410e+00
   7.3990330e+02   6.6458780e+00
   7.4038540e+02   6.7454800e+00
   7.4086760e+02   6.8031390e+00
   7.4134970e+02   6.6448670e+00
   7.4183180e+02   6.4469380e+00
   7.4231390e+02   6.3999180e+00
   7.4279600e+02   6.6047900e+00
   7.4327810e+02   6.7157590e+00
   7.4376030e+02   6.7183040e+00
   7.4424240e+02   6.5877300e+00
   7.4472450e+02   6.2372090e+00
   7.4520660e+02   5.6929740e+00
   7.4568870e+02   5.3086930e+00
   7.4617080e+02   5.2167400e+00
   7.4665300e+02   5.1772350e+00
   7.4713510e+02   4.8768580e+00
   7.4761720e+02   4.4383130e+00
   7.4809930e+02   4.0813450e+00
   7.4858140e+02   4.1114270e+00
   7.4906350e+02   3.9747090e+00
   7.4954570e+02   3.2444000e+00
   7.5002780e+02   2.2484090e+00
   7.5050990e+02   1.7115710e+00
   7.5099200e+02   1.8719060e+00
   7.5147410e+02   2.0425420e+00
   7.5195620e+02   2.1657100e+00
   7.5243840e+02   2.2363320e+00
   7.5292050e+02   2.2626800e+00
   7.5340260e+02   2.2295570e+00
   7.5388470e+02   2.2033920e+00
   7.5436680e+02   2.1851080e+00
   7.5484890e+02   2.2425420e+00
   7.5533110e+02   2.6657490e+00
   7.5581320e+02   3.2707710e+00
   7.5629530e+02   3.5067790e+00
   7.5677740e+02   2.7518200e+00
   7.5725950e+02   1.9285580e+00
   7.5774160e+02   1.4852980e+00
   7.5822380e+02   1.3742100e+00
   7.5870590e+02   1.2044940e+00
   7.5918800e+02   8.1514400e-01
   7.5967010e+02   5.6189000e-01
   7.6015220e+02   5.9532200e-01
   7.6063430e+02   8.5889400e-01
   7.6111650e+02   1.0280610e+00
   7.6159860e+02   1.0935440e+00
   7.6208070e+02   1.2503400e+00
   7.6256280e+02   1.8603250e+00
   7.6304490e+02   2.5190730e+00
   7.6352700e+02   2.2920990e+00
   7.6400920e+02   1.3653030e+00
   7.6449130e+02   7.3431000e-01
   7.6497340e+02   1.4220850e+00
   7.6545550e+02   2.1763760e+00
   7.6593760e+02   2.1892130e+00
   7.6641970e+02   1.4217190e+00
   7.6690190e+02   7.1328700e-01
   7.6738400e+02   9.6557997e-02
   7.6786610e+02   5.2940400e-01
   7.6834820e+02   2.1244400e-01
   7.6883030e+02   8.0283700e-01
   7.6931240e+02   1.2233960e+00
   7.6979460e+02   1.0161440e+00
   7.7027670e+02   7.1134200e-01
   7.7075880e+02   6.2726600e-01
   7.7124090e+02   7.1787300e-01
   7.7172300e+02   9.8343700e-01
   7.7220510e+02   1.4059980e+00
   7.7268730e+02   1.7009700e+00
   7.7316940e+02   1.6474530e+00
   7.7365150e+02   1.4480020e+00
   7.7413360e+02   1.1914630e+00
   7.7461570e+02   8.5435500e-01
   7.7509780e+02   6.9275300e-01
   7.7558000e+02   8.1719600e-01
   7.7606210e+02   9.7448700e-01
   7.7654420e+02   1.0265500e+00
   7.7702630e+02   9.7052800e-01
   7.7750840e+02   7.9979700e-01
   7.7799050e+02   4.8720900e-01
   7.7847270e+02   3.0893700e-01
   7.7895480e+02   7.0591000e-01
   7.7943690e+02   1.3295100e+00
   7.7991900e+02   1.5333520e+00
   7.8040110e+02   1.2364390e+00
   7.8088320e+02   8.7937500e-01
   7.8136540e+02   6.4825800e-01
   7.8184750e+02   5.0292200e-01
   7.8232960e+02   4.1730500e-01
   7.8281170e+02   3.9560300e-01
   7.8329380e+02   4.2594100e-01
   7.8377590e+02   5.0761000e-01
   7.8425810e+02   6.4423000e-01
   7.8474020e+02   9.0903900e-01
   7.8522230e+02   1.3024370e+00
   7.8570440e+02   1.3329280e+00
   7.8618650e+02   9.4043400e-01
   7.8666860e+02   5.5856700e-01
   7.8715080e+02   7.1515300e-01
   7.8763290e+02   1.1081240e+00
   7.8811500e+02   1.2261810e+00
   7.8859710e+02   9.4026200e-01
   7.8907920e+02   7.3642300e-01
   7.8956130e+02   9.2198900e-01
   7.9004350e+02   1.2359810e+00
   7.9052560e+02   1.4878500e+00
   7.9100770e+02   1.7099150e+00
   7.9148980e+02   1.7351800e+00
   7.9197190e+02   1.5274010e+00
   7.9245400e+02   1.1804850e+00
   7.9293620e+02   6.8643600e-01
   7.9341830e+02   7.4436001e-02
   7.9390040e+02   1.6502800e-01
   7.9438250e+02   3.8727000e-02
   7.9486460e+02   3.0329900e-01
   7.9534670e+02   1.9385500e-01
   7.9582890e+02   4.9465001e-02
   7.9631100e+02   7.9848997e-02
   7.9679310e+02   2.3265100e-01
   7.9727520e+02   5.1642600e-01
   7.9775730e+02   6.9744100e-01
   7.9823940e+02   8.0537000e-01
   7.9872160e+02   8.6780500e-01
   7.9920370e+02   8.8255300e-01
   7.9968580e+02   8.5511800e-01
   8.0016790e+02   7.6885600e-01
   8.0065000e+02   6.7728000e-01
   8.0113210e+02   5.9735100e-01
   8.0161430e+02   5.4887400e-01
   8.0209640e+02   6.6186900e-01
   8.0257850e+02   9.6642700e-01
   8.0306060e+02   1.2708930e+00
   8.0354270e+02   1.4086420e+00
   8.0402480e+02   1.4491500e+00
   8.0450700e+02   1.4716110e+00
   8.0498910e+02   1.5003010e+00
   8.0547120e+02   1.4809910e+00
   8.0595330e+02   1.2913400e+00
   8.0643540e+02   1.1332510e+00
   8.0691750e+02   1.2281720e+00
   8.0739970e+02   1.7513500e+00
   8.0788180e+02   1.6898190e+00
   8.0836390e+02   9.0470500e-01
   8.0884600e+02   2.5131000e-02
   8.0932810e+02   5.8847400e-01
   8.0981020e+02   8.1748600e-01
   8.1029240e+02   7.3793800e-01
   8.1077450e+02   3.2736600e-01
   8.1125660e+02   1.4681200e-01
   8.1173870e+02   6.3384200e-01
   8.1222080e+02   1.0102730e+00
   8.1270290e+02   1.0995790e+00
   8.1318510e+02   6.1976200e-01
   8.1366720e+02   6.1276200e-01
   8.1414930e+02   1.6061170e+00
   8.1463140e+02   2.4962040e+00
   8.1511350e+02   2.1978910e+00
   8.1559560e+02   6.3133600e-01
   8.1607780e+02   2.0356800e-01
   8.1655990e+02   1.8811000e-01
   8.1704200e+02   2.0304900e-01
   8.1752410e+02   7.7117900e-01
   8.1800620e+02   1.3168950e+00
   8.1848830e+02   1.4661790e+00
   8.1897050e+02   1.1181030e+00
   8.1945260e+02   8.3121100e-01
   8.1993470e+02   9.7613900e-01
   8.2041680e+02   1.2039380e+00
   8.2089890e+02   1.2593420e+00
   8.2138100e+02   1.1093140e+00
   8.2186320e+02   8.6923200e-01
   8.2234530e+02   4.3468900e-01
   8.2282740e+02   1.3952600e-01
   8.2330950e+02   4.4839100e-01
   8.2379160e+02   1.1903340e+00
   8.2427370e+02   1.3172990e+00
   8.2475590e+02   7.7719900e-01
   8.2523800e+02   1.7289400e-01
   8.2572010e+02   1.7780300e-01
   8.2620220e+02   2.1433300e-01
   8.2668430e+02   2.2559700e-01
   8.2716640e+02   1.2025110e+00
   8.2764860e+02   1.7641600e+00
   8.2813070e+02   1.2641370e+00
   8.2861280e+02   7.3015200e-01
   8.2909490e+02   7.0823300e-01
   8.2957700e+02   1.2513240e+00
   8.3005910e+02   1.4790880e+00
   8.3054130e+02   1.3618280e+00
   8.3102340e+02   1.0987130e+00
   8.3150550e+02   5.9091600e-01
   8.3198760e+02   1.2293600e-01
   8.3246970e+02   4.9796700e-01
   8.3295180e+02   1.6596870e+00
   8.3343400e+02   2.4770320e+00
   8.3391610e+02   1.8742830e+00
   8.3439820e+02   1.0515670e+00
   8.3488030e+02   7.5929600e-01
   8.3536240e+02   1.0920640e+00
   8.3584450e+02   1.4243430e+00
   8.3632670e+02   1.8138240e+00
   8.3680880e+02   2.0857620e+00
   8.3729090e+02   2.1064340e+00
   8.3777300e+02   1.9301800e+00
   8.3825510e+02   1.9188540e+00
   8.3873720e+02   2.0576900e+00
   8.3921940e+02   2.1031760e+00
   8.3970150e+02   1.8321500e+00
   8.4018360e+02   1.4416120e+00
   8.4066570e+02   9.6918500e-01
   8.4114780e+02   4.9168400e-01
   8.4162990e+02   4.3957100e-01
   8.4211210e+02   1.6631510e+00
   8.4259420e+02   2.5406460e+00
   8.4307630e+02   2.3669130e+00
   8.4355840e+02   1.3808170e+00
   8.4404050e+02   9.9038700e-01
   8.4452260e+02   1.2820660e+00
   8.4500480e+02   1.5248370e+00
   8.4548690e+02   1.3709070e+00
   8.4596900e+02   9.9745900e-01
   8.4645110e+02   6.5767300e-01
   8.4693320e+02   3.6422300e-01
   8.4741530e+02   2.3086500e-01
   8.4789750e+02   3.5224200e-01
   8.4837960e+02   6.1480700e-01
   8.4886170e+02   1.0565610e+00
   8.4934380e+02   1.6039160e+00
   8.4982590e+02   2.0277140e+00
   8.5030800e+02   2.3733330e+00
   8.5079020e+02   2.4792020e+00
   8.5127230e+02   2.2469980e+00
   8.5175440e+02   1.8226510e+00
   8.5223650e+02   1.5896990e+00
   8.5271860e+02   1.4960940e+00
   8.5320070e+02   1.2094500e+00
   8.5368290e+02   3.1785600e-01
   8.5416500e+02   3.2194500e-01
   8.5464710e+02   4.2546500e-01
   8.5512920e+02   1.8517530e+00
   8.5561130e+02   2.7675970e+00
   8.5609340e+02   2.3293800e+00
   8.5657560e+02   2.0309640e+00
   8.5705770e+02   2.1773030e+00
   8.5753980e+02   2.4375150e+00
   8.5802190e+02   2.2794040e+00
   8.5850400e+02   1.6718640e+00
   8.5898610e+02   1.1745720e+00
   8.5946830e+02   8.7764700e-01
   8.5995040e+02   7.5926200e-01
   8.6043250e+02   7.1736500e-01
   8.6091460e+02   7.5845700e-01
   8.6139670e+02   1.0040660e+00
   8.6187880e+02   1.6028940e+00
   8.6236100e+02   2.0748830e+00
   8.6284310e+02   2.1559100e+00
   8.6332520e+02   2.0720180e+00
   8.6380730e+02   2.0517230e+00
   8.6428940e+02   2.1657180e+00
   8.6477150e+02   2.0832980e+00
   8.6525370e+02   1.7290500e+00
   8.6573580e+02   1.4041710e+00
   8.6621790e+02   1.4930040e+00
   8.6670000e+02   1.8395160e+00
   8.6718210e+02   1.9437790e+00
   8.6766420e+02   1.7613530e+00
   8.6814640e+02   1.6829720e+00
   8.6862850e+02   2.2527770e+00
   8.6911060e+02   2.8351210e+00
   8.6959270e+02   2.8444400e+00
   8.7007480e+02   2.0399700e+00
   8.7055690e+02   1.6666030e+00
   8.7103910e+02   2.0030670e+00
   8.7152120e+02   2.2673030e+00
   8.7200330e+02   1.7961920e+00
   8.7248540e+02   7.6795600e-01
   8.7296750e+02   6.7869900e-01
   8.7344960e+02   1.4664920e+00
   8.7393180e+02   2.2097550e+00
   8.7441390e+02   2.2989650e+00
   8.7489600e+02   2.0776250e+00
   8.7537810e+02   1.7058260e+00
   8.7586020e+02   1.2352750e+00
   8.7634230e+02   9.6828500e-01
   8.7682450e+02   1.2226680e+00
   8.7730660e+02   1.3986590e+00
   8.7778870e+02   1.2871700e+00
   8.7827080e+02   9.8544300e-01
   8.7875290e+02   9.1429900e-01
   8.7923500e+02   1.0689240e+00
   8.7971720e+02   1.2229540e+00
   8.8019930e+02   1.2614060e+00
   8.8068140e+02   1.2714840e+00
   8.8116350e+02   1.4911230e+00
   8.8164560e+02   1.7863270e+00
   8.8212770e+02   1.8116760e+00
   8.8260990e+02   1.0525210e+00
   8.8309200e+02   3.5134100e-01
   8.8357410e+02   1.9144100e-01
   8.8405620e+02   4.6184500e-01
   8.8453830e+02   1.5556300e-01
   8.8502040e+02   8.9864000e-01
   8.8550260e+02   1.5447080e+00
   8.8598470e+02   1.4154740e+00
   8.8646680e+02   1.0687560e+00
   8.8694890e+02   1.5186730e+00
   8.8743100e+02   2.3229220e+00
   8.8791310e+02   2.4939270e+00
   8.8839530e+02   1.5348240e+00
   8.8887740e+02   6.5293900e-01
   8.8935950e+02   3.6188900e-01
   8.8984160e+02   4.1344100e-01
   8.9032370e+02   5.8472400e-01
   8.9080580e+02   9.5352200e-01
   8.9128800e+02   1.1900250e+00
   8.9177010e+02   1.2687990e+00
   8.9225220e+02   1.2716100e+00
   8.9273430e+02   1.1580240e+00
   8.9321640e+02   1.0422590e+00
   8.9369850e+02   1.3793830e+00
   8.9418070e+02   2.1925850e+00
   8.9466280e+02   2.7440610e+00
   8.9514490e+02   2.3559760e+00
   8.9562700e+02   1.7036400e+00
   8.9610910e+02   1.1701470e+00
   8.9659120e+02   7.9112200e-01
   8.9707340e+02   6.1805700e-01
   8.9755550e+02   7.1004500e-01
   8.9803760e+02   8.7278400e-01
   8.9851970e+02   1.0425070e+00
   8.9900180e+02   1.2031140e+00
   8.9948390e+02   1.3246120e+00
   8.9996610e+02   1.3939360e+00
   9.0044820e+02   1.3285260e+00
   9.0093030e+02   8.7481700e-01
   9.0141240e+02   4.6767800e-01
   9.0189450e+02   5.1876100e-01
   9.0237660e+02   8.6619900e-01
   9.0285880e+02   9.2441600e-01
   9.0334090e+02   3.2131600e-01
   9.0382300e+02   1.8375000e-02
   9.0430510e+02   2.7083600e-01
   9.0478720e+02   7.9683700e-01
   9.0526930e+02   1.0261730e+00
   9.0575150e+02   1.0114780e+00
   9.0623360e+02   1.0863800e+00
   9.0671570e+02   1.3519330e+00
   9.0719780e+02   1.7151760e+00
   9.0767990e+02   2.3156470e+00
   9.0816200e+02   2.8680460e+00
   9.0864420e+02   3.0149080e+00
   9.0912630e+02   2.3416290e+00
   9.0960840e+02   1.8630450e+00
   9.1009050e+02   1.7014690e+00
   9.1057260e+02   1.6139530e+00
   9.1105470e+02   1.3451920e+00
   9.1153690e+02   9.2003600e-01
   9.1201900e+02   5.7743500e-01
   9.1250110e+02   3.7188000e-01
   9.1298320e+02   3.1339300e-01
   9.1346530e+02   5.1027300e-01
   9.1394740e+02   8.1184400e-01
   9.1442960e+02   1.1401410e+00
   9.1491170e+02   1.4962810e+00
   9.1539380e+02   1.5895310e+00
   9.1587590e+02   1.2653270e+00
   9.1635800e+02   8.2143000e-01
   9.1684010e+02   2.5544000e-01
   9.1732230e+02   3.3783300e-01
   9.1780440e+02   2.6052500e-01
   9.1828650e+02   4.4486200e-01
   9.1876860e+02   1.0526770e+00
   9.1925070e+02   1.0912360e+00
   9.1973280e+02   9.2622800e-01
   9.2021500e+02   8.7183800e-01
   9.2069710e+02   8.9810200e-01
   9.2117920e+02   9.2877200e-01
   9.2166130e+02   9.0715000e-01
   9.2214340e+02   9.4353900e-01
   9.2262550e+02   1.0737110e+00
   9.2310770e+02   1.2507550e+00
   9.2358980e+02   1.4410130e+00
   9.2407190e+02   1.6331100e+00
   9.2455400e+02   1.6195640e+00
   9.2503610e+02   1.3258670e+00
   9.2551820e+02   9.5917100e-01
   9.2600040e+02   6.0284400e-01
   9.2648250e+02   3.5471300e-01
   9.2696460e+02   3.7445800e-01
   9.2744670e+02   8.6521100e-01
   9.2792880e+02   1.0954250e+00
   9.2841090e+02   7.1427200e-01
   9.2889310e+02   4.0184000e-01
   9.2937520e+02   7.9201500e-01
   9.2985730e+02   1.8591190e+00
   9.3033940e+02   2.1165770e+00
   9.3082150e+02   1.5631830e+00
   9.3130360e+02   9.8735400e-01
   9.3178580e+02   1.0147320e+00
   9.3226790e+02   1.2656630e+00
   9.3275000e+02   1.3386270e+00
   9.3323210e+02   1.2594220e+00
   9.3371420e+02   1.3767320e+00
   9.3419640e+02   2.2666050e+00
   9.3467850e+02   2.6833110e+00
   9.3516060e+02   2.1166880e+00
   9.3564270e+02   9.7100800e-01
   9.3612480e+02   4.7996900e-01
   9.3660690e+02   5.9763700e-01
   9.3708910e+02   8.4933500e-01
   9.3757120e+02   1.2096330e+00
   9.3805330e+02   1.3816030e+00
   9.3853540e+02   8.2044600e-01
   9.3901750e+02   3.0471999e-02
   9.3949960e+02   5.1192500e-01
   9.3998180e+02   2.8798300e-01
   9.4046390e+02   1.0795600e-01
   9.4094600e+02   8.9306300e-01
   9.4142810e+02   1.4788970e+00
   9.4191020e+02   1.0332600e+00
   9.4239230e+02   2.4636800e-01
   9.4287450e+02   7.5692000e-01
   9.4335660e+02   4.0793200e-01
   9.4383870e+02   9.3235001e-02
   9.4432080e+02   2.5081600e-01
   9.4480290e+02   3.0905500e-01
   9.4528500e+02   4.6937600e-01
   9.4576720e+02   7.5201400e-01
   9.4624930e+02   1.0651440e+00
   9.4673140e+02   1.5638390e+00
   9.4721350e+02   1.7788580e+00
   9.4769560e+02   1.3964610e+00
   9.4817770e+02   6.6774000e-01
   9.4865990e+02   5.2710000e-01
   9.4914200e+02   8.5878000e-01
   9.4962410e+02   1.1478880e+00
   9.5010620e+02   1.0724140e+00
   9.5058830e+02   9.6036900e-01
   9.5107040e+02   1.0816080e+00
   9.5155260e+02   1.3158450e+00
   9.5203470e+02   1.4298780e+00
   9.5251680e+02   1.3703880e+00
   9.5299890e+02   1.2528150e+00
   9.5348100e+02   1.0504910e+00
   9.5396310e+02   8.6187400e-01
   9.5444530e+02   8.3068800e-01
   9.5492740e+02   9.1697300e-01
   9.5540950e+02   9.6468400e-01
   9.5589160e+02   9.4975300e-01
   9.5637370e+02   1.0260280e+00
   9.5685580e+02   1.4692000e+00
   9.5733800e+02   1.8649250e+00
   9.5782010e+02   1.9030800e+00
   9.5830220e+02   1.5507700e+00
   9.5878430e+02   1.1476140e+00
   9.5926640e+02   6.4756000e-01
   9.5974850e+02   2.3097600e-01
   9.6023070e+02   1.3973000e-02
   9.6071280e+02   1.1010000e-01
   9.6119490e+02   1.0135700e-01
   9.6167700e+02   2.5750000e-03
   9.6215910e+02   1.6045400e-01
   9.6264120e+02   2.7862200e-01
   9.6312340e+02   5.4654700e-01
   9.6360550e+02   1.3100590e+00
   9.6408760e+02   2.1673470e+00
   9.6456970e+02   2.5013500e+00
   9.6505180e+02   2.2300190e+00
   9.6553390e+02   1.7381550e+00
   9.6601610e+02   9.7932100e-01
   9.6649820e+02   3.5500000e-01
   9.6698030e+02   5.2150300e-01
   9.6746240e+02   1.1266290e+00
   9.6794450e+02   1.4926680e+00
   9.6842660e+02   1.4501270e+00
   9.6890880e+02   1.3110540e+00
   9.6939090e+02   1.1814610e+00
   9.6987300e+02   1.0216900e+00
   9.7035510e+02   7.6576200e-01
   9.7083720e+02   4.3380000e-01
   9.7131930e+02   3.4991500e-01
   9.7180150e+02   5.2016100e-01
   9.7228360e+02   7.2690200e-01
   9.7276570e+02   8.9353900e-01
   9.7324780e+02   9.9168400e-01
   9.7372990e+02   8.8414800e-01
   9.7421200e+02   6.8642800e-01
   9.7469420e+02   6.7619300e-01
   9.7517630e+02   1.2138560e+00
   9.7565840e+02   1.5531040e+00
   9.7614050e+02   1.5636600e+00
   9.7662260e+02   1.4072720e+00
   9.7710470e+02   1.2701720e+00
   9.7758690e+02   1.1452450e+00
   9.7806900e+02   1.3328820e+00
   9.7855110e+02   1.9155920e+00
   9.7903320e+02   2.4009130e+00
   9.7951530e+02   2.2696420e+00
   9.7999740e+02   1.9215350e+00
   9.8047960e+02   1.7594720e+00
   9.8096170e+02   1.8743710e+00
   9.8144380e+02   1.7006030e+00
   9.8192590e+02   9.8372700e-01
   9.8240800e+02   4.9035600e-01
   9.8289010e+02   6.7159700e-01
   9.8337230e+02   1.2787020e+00
   9.8385440e+02   1.5916370e+00
   9.8433650e+02   1.6380160e+00
   9.8481860e+02   1.5442310e+00
   9.8530070e+02   1.1024510e+00
   9.8578280e+02   8.3606300e-01
   9.8626500e+02   1.2253680e+00
   9.8674710e+02   1.8618810e+00
   9.8722920e+02   2.0349350e+00
   9.8771130e+02   1.5401380e+00
   9.8819340e+02   1.3652310e+00
   9.8867550e+02   1.6898570e+00
   9.8915770e+02   1.9651640e+00
   9.8963980e+02   1.2485730e+00
   9.9012190e+02   1.9971500e-01
   9.9060400e+02   1.1647800e-01
   9.9108610e+02   1.1584590e+00
   9.9156820e+02   1.9516600e+00
   9.9205040e+02   1.6706200e+00
   9.9253250e+02   1.3035550e+00
   9.9301460e+02   1.3112680e+00
   9.9349670e+02   1.6129760e+00
   9.9397880e+02   1.7117840e+00
   9.9446090e+02   1.6149900e+00
   9.9494310e+02   1.7379070e+00
   9.9542520e+02   2.4897230e+00
   9.9590730e+02   3.1743320e+00
   9.9638940e+02   2.7337570e+00
   9.9687150e+02   1.7763560e+00
   9.9735360e+02   1.3136440e+00
   9.9783580e+02   2.5412450e+00
   9.9831790e+02   2.9574700e+00
   9.9880000e+02   2.1861880e+00
   9.9928210e+02   1.0554660e+00
   9.9976420e+02   2.4595600e-01
   1.0002460e+03   2.7292600e-01
   1.0007280e+03   3.6095800e-01
   1.0012110e+03   1.9711001e-02
   1.0016930e+03   4.0958000e-01
   1.0021750e+03   3.5218800e-01
   1.0026570e+03   2.8350400e-01
   1.0031390e+03   6.3889300e-01
   1.0036210e+03   1.3064420e+00
   1.0041030e+03   1.3985750e+00
   1.0045850e+03   7.3740000e-01
   1.0050680e+03   1.4888800e-01
   1.0055500e+03   1.8528000e-01
   1.0060320e+03   2.5392900e-01
   1.0065140e+03   1.3661200e-01
   1.0069960e+03   7.7585200e-01
   1.0074780e+03   1.2389370e+00
   1.0079600e+03   1.3731880e+00
   1.0084420e+03   1.3996320e+00
   1.0089240e+03   1.3306690e+00
   1.0094070e+03   1.2302090e+00
   1.0098890e+03   1.1472550e+00
   1.0103710e+03   1.0852090e+00
   1.0108530e+03   9.1737000e-01
   1.0113350e+03   6.4023200e-01
   1.0118170e+03   3.7632000e-01
   1.0122990e+03   2.1504200e-01
   1.0127810e+03   9.7251996e-02
   1.0132630e+03   1.0645700e-01
   1.0137460e+03   3.2211700e-01
   1.0142280e+03   2.7843100e-01
   1.0147100e+03   2.1765500e-01
   1.0151920e+03   7.1121200e-01
   1.0156740e+03   1.2258070e+00
   1.0161560e+03   1.5558660e+00
   1.0166380e+03   1.2156220e+00
   1.0171200e+03   4.3740500e-01
   1.0176030e+03   6.9758996e-02
   1.0180850e+03   1.8908300e-01
   1.0185670e+03   6.7184001e-02
   1.0190490e+03   6.2300100e-01
   1.0195310e+03   1.1776660e+00
   1.0200130e+03   9.5444500e-01
   1.0204950e+03   1.1560000e-03
   1.0209770e+03   2.7736700e-01
   1.0214590e+03   2.0148500e-01
   1.0219420e+03   6.8313200e-01
   1.0224240e+03   8.5439300e-01
   1.0229060e+03   7.9631000e-01
   1.0233880e+03   5.5312700e-01
   1.0238700e+03   1.7971000e-01
   1.0243520e+03   2.1873500e-01
   1.0248340e+03   9.4334800e-01
   1.0253160e+03   1.1432230e+00
   1.0257990e+03   5.1422500e-01
   1.0262810e+03   3.0603000e-01
   1.0267630e+03   6.2262300e-01
   1.0272450e+03   5.1910000e-01
   1.0277270e+03   6.4545800e-01
   1.0282090e+03   1.0230790e+00
   1.0286910e+03   1.2494050e+00
   1.0291730e+03   9.1317400e-01
   1.0296560e+03   4.6511100e-01
   1.0301380e+03   1.6857900e-01
   1.0306200e+03   2.3800001e-02
   1.0311020e+03   6.7638002e-02
   1.0315840e+03   1.2955500e-01
   1.0320660e+03   2.7500000e-04
   1.0325480e+03   4.6316100e-01
   1.0330300e+03   8.9251700e-01
   1.0335120e+03   4.9753200e-01
   1.0339950e+03   2.4334000e-01
   1.0344770e+03   4.5530300e-01
   1.0349590e+03   2.0908000e-01
   1.0354410e+03   8.1776400e-01
   1.0359230e+03   1.2769130e+00
   1.0364050e+03   1.4635510e+00
   1.0368870e+03   1.1592290e+00
   1.0373690e+03   4.6899000e-01
   1.0378510e+03   4.0662000e-01
   1.0383340e+03   9.1300600e-01
   1.0388160e+03   1.4235840e+00
   1.0392980e+03   1.6566510e+00
   1.0397800e+03   1.7515980e+00
   1.0402620e+03   1.8104480e+00
   1.0407440e+03   1.7963030e+00
   1.0412260e+03   1.6213040e+00
   1.0417080e+03   1.2069050e+00
   1.0421910e+03   8.3539200e-01
   1.0426730e+03   4.9440800e-01
   1.0431550e+03   3.0270000e-01
   1.0436370e+03   3.7090300e-01
   1.0441190e+03   6.7635000e-01
   1.0446010e+03   1.3235660e+00
   1.0450830e+03   2.2899820e+00
   1.0455650e+03   2.9296460e+00
   1.0460470e+03   2.8199770e+00
   1.0465300e+03   2.5592040e+00
   1.0470120e+03   2.2882800e+00
   1.0474940e+03   2.0258940e+00
   1.0479760e+03   1.8529470e+00
   1.0484580e+03   1.7502780e+00
   1.0489400e+03   1.5007170e+00
   1.0494220e+03   8.8428500e-01
   1.0499040e+03   5.7804100e-01
   1.0503860e+03   1.5522270e+00
   1.0508690e+03   2.8099560e+00
   1.0513510e+03   3.2528270e+00
   1.0518330e+03   2.6657070e+00
   1.0523150e+03   2.3314930e+00
   1.0527970e+03   2.2634470e+00
   1.0532790e+03   2.3924180e+00
   1.0537610e+03   2.8403170e+00
   1.0542430e+03   3.3511390e+00
   1.0547260e+03   3.3692210e+00
   1.0552080e+03   3.0887760e+00
   1.0556900e+03   3.0239300e+00
   1.0561720e+03   3.6416590e+00
   1.0566540e+03   4.0826110e+00
   1.0571360e+03   4.1276930e+00
   1.0576180e+03   4.0907860e+00
   1.0581000e+03   4.3377950e+00
   1.0585830e+03   4.8426020e+00
   1.0590650e+03   5.3244590e+00
   1.0595470e+03   5.7404820e+00
   1.0600290e+03   6.2174260e+00
   1.0605110e+03   7.0951080e+00
   1.0609930e+03   7.8149760e+00
   1.0614750e+03   7.7880250e+00
   1.0619570e+03   7.2696760e+00
   1.0624390e+03   7.4314500e+00
   1.0629220e+03   8.4203990e+00
   1.0634040e+03   9.0956570e+00
   1.0638860e+03   9.0596160e+00
   1.0643680e+03   8.9986420e+00
   1.0648500e+03   9.8410680e+00
   1.0653320e+03   1.1101880e+01
   1.0658140e+03   1.2097160e+01
   1.0662960e+03   1.2586760e+01
   1.0667780e+03   1.3299710e+01
   1.0672610e+03   1.4382250e+01
   1.0677430e+03   1.5543650e+01
   1.0682250e+03   1.6613040e+01
   1.0687070e+03   1.7664770e+01
   1.0691890e+03   1.8885990e+01
   1.0696710e+03   2.0274700e+01
   1.0701530e+03   2.1816260e+01
   1.0706350e+03   2.3514770e+01
   1.0711180e+03   2.5333390e+01
   1.0716000e+03   2.7125890e+01
   1.0720820e+03   2.9096150e+01
   1.0725640e+03   3.1503650e+01
   1.0730460e+03   3.4360000e+01
   1.0735280e+03   3.7016510e+01
   1.0740100e+03   3.9421750e+01
   1.0744920e+03   4.1957660e+01
   1.0749740e+03   4.4997050e+01
   1.0754570e+03   4.8188530e+01
   1.0759390e+03   5.1046770e+01
   1.0764210e+03   5.3759310e+01
   1.0769030e+03   5.7177640e+01
   1.0773850e+03   6.1505580e+01
   1.0778670e+03   6.5940450e+01
   1.0783490e+03   7.0298740e+01
   1.0788310e+03   7.4779920e+01
   1.0793130e+03   7.9839290e+01
   1.0797960e+03   8.5172000e+01
   1.0802780e+03   9.0237600e+01
   1.0807600e+03   9.4996370e+01
   1.0812420e+03   9.9655880e+01
   1.0817240e+03   1.0401040e+02
   1.0822060e+03   1.0864900e+02
   1.0826880e+03   1.1385890e+02
   1.0831700e+03   1.1933960e+02
   1.0836520e+03   1.2393690e+02
   1.0841350e+03   1.2785310e+02
   1.0846170e+03   1.3204450e+02
   1.0850990e+03   1.3713500e+02
   1.0855810e+03   1.4178400e+02
   1.0860630e+03   1.4540920e+02
   1.0865450e+03   1.4797960e+02
   1.0870270e+03   1.4951140e+02
   1.0875090e+03   1.4992510e+02
   1.0879920e+03   1.5027010e+02
   1.0884740e+03   1.5056150e+02
   1.0889560e+03   1.5058880e+02
   1.0894380e+03   1.5070230e+02
   1.0899200e+03   1.5007510e+02
   1.0904020e+03   1.4727960e+02
   1.0908840e+03   1.4316830e+02
   1.0913660e+03   1.3957520e+02
   1.0918490e+03   1.3741990e+02
   1.0923310e+03   1.3447450e+02
   1.0928130e+03   1.3055520e+02
   1.0932950e+03   1.2609990e+02
   1.0937770e+03   1.2143180e+02
   1.0942590e+03   1.1661170e+02
   1.0947410e+03   1.1155620e+02
   1.0952230e+03   1.0632610e+02
   1.0957050e+03   1.0131570e+02
   1.0961880e+03   9.6812240e+01
   1.0966700e+03   9.2515780e+01
   1.0971520e+03   8.8482410e+01
   1.0976340e+03   8.4486770e+01
   1.0981160e+03   7.9741230e+01
   1.0985980e+03   7.4490020e+01
   1.0990800e+03   7.0363260e+01
   1.0995620e+03   6.7692430e+01
   1.1000440e+03   6.5092290e+01
   1.1005270e+03   6.1494930e+01
   1.1010090e+03   5.7803640e+01
   1.1014910e+03   5.4658700e+01
   1.1019730e+03   5.1923110e+01
   1.1024550e+03   4.8938290e+01
   1.1029370e+03   4.5682980e+01
   1.1034190e+03   4.2849050e+01
   1.1039010e+03   4.0756620e+01
   1.1043840e+03   3.8881750e+01
   1.1048660e+03   3.6644670e+01
   1.1053480e+03   3.4384480e+01
   1.1058300e+03   3.2574710e+01
   1.1063120e+03   3.1534930e+01
   1.1067940e+03   2.9837140e+01
   1.1072760e+03   2.7216390e+01
   1.1077580e+03   2.4880540e+01
   1.1082400e+03   2.3636670e+01
   1.1087230e+03   2.2974950e+01
   1.1092050e+03   2.2063440e+01
   1.1096870e+03   2.0959940e+01
   1.1101690e+03   1.9795880e+01
   1.1106510e+03   1.8382490e+01
   1.1111330e+03   1.7264420e+01
   1.1116150e+03   1.6554140e+01
   1.1120970e+03   1.5990670e+01
   1.1125790e+03   1.5396920e+01
   1.1130620e+03   1.4747750e+01
   1.1135440e+03   1.3813050e+01
   1.1140260e+03   1.2662470e+01
   1.1145080e+03   1.1819930e+01
   1.1149900e+03   1.2095100e+01
   1.1154720e+03   1.2058180e+01
   1.1159540e+03   1.0906610e+01
   1.1164360e+03   9.3894200e+00
   1.1169190e+03   8.7227550e+00
   1.1174010e+03   8.8336910e+00
   1.1178830e+03   8.5803300e+00
   1.1183650e+03   7.8231050e+00
   1.1188470e+03   7.0852130e+00
   1.1193290e+03   6.8883630e+00
   1.1198110e+03   6.7343180e+00
   1.1202930e+03   6.2072830e+00
   1.1207760e+03   5.4131970e+00
   1.1212580e+03   4.8091850e+00
   1.1217400e+03   4.4031410e+00
   1.1222220e+03   4.1599040e+00
   1.1227040e+03   4.1374780e+00
   1.1231860e+03   4.0085070e+00
   1.1236680e+03   3.1274870e+00
   1.1241500e+03   2.1344380e+00
   1.1246320e+03   1.7714040e+00
   1.1251150e+03   2.2123990e+00
   1.1255970e+03   2.6498340e+00
   1.1260790e+03   3.1243930e+00
   1.1265610e+03   3.4261890e+00
   1.1270430e+03   3.4610400e+00
   1.1275250e+03   3.3026500e+00
   1.1280070e+03   3.0212940e+00
   1.1284890e+03   2.6538160e+00
   1.1289710e+03   2.2166790e+00
   1.1294540e+03   1.5406880e+00
   1.1299360e+03   1.4292410e+00
   1.1304180e+03   2.3244740e+00
   1.1309000e+03   2.9493330e+00
   1.1313820e+03   2.2663500e+00
   1.1318640e+03   9.2790600e-01
   1.1323460e+03   9.7298400e-01
   1.1328280e+03   1.9874310e+00
   1.1333110e+03   2.6563110e+00
   1.1337930e+03   2.0031970e+00
   1.1342750e+03   1.5517230e+00
   1.1347570e+03   1.7663840e+00
   1.1352390e+03   2.1540300e+00
   1.1357210e+03   2.3719140e+00
   1.1362030e+03   2.4056550e+00
   1.1366850e+03   1.9989170e+00
   1.1371670e+03   1.2238040e+00
   1.1376500e+03   6.7198600e-01
   1.1381320e+03   1.0173150e+00
   1.1386140e+03   1.2615010e+00
   1.1390960e+03   7.1228400e-01
   1.1395780e+03   1.2147100e-01
   1.1400600e+03   4.9218400e-01
   1.1405420e+03   3.8770700e-01
   1.1410240e+03   1.6481400e-01
   1.1415060e+03   1.5167600e-01
   1.1419890e+03   4.0136300e-01
   1.1424710e+03   2.7724800e-01
   1.1429530e+03   2.2083700e-01
   1.1434350e+03   7.0375800e-01
   1.1439170e+03   1.5059780e+00
   1.1443990e+03   1.9051630e+00
   1.1448810e+03   1.8738560e+00
   1.1453630e+03   1.5778350e+00
   1.1458460e+03   1.0061760e+00
   1.1463280e+03   4.5447500e-01
   1.1468100e+03   2.0842700e-01
   1.1472920e+03   1.5299600e-01
   1.1477740e+03   1.3481500e-01
   1.1482560e+03   1.6915100e-01
   1.1487380e+03   6.5341900e-01
   1.1492200e+03   1.8574220e+00
   1.1497030e+03   2.4110110e+00
   1.1501850e+03   1.7946780e+00
   1.1506670e+03   7.9164500e-01
   1.1511490e+03   2.8397400e-01
   1.1516310e+03   1.0717000e-01
   1.1521130e+03   3.0315001e-02
   1.1525950e+03   9.5899999e-03
   1.1530770e+03   2.4120700e-01
   1.1535590e+03   9.0883300e-01
   1.1540420e+03   1.3421250e+00
   1.1545240e+03   1.2022970e+00
   1.1550060e+03   7.7912500e-01
   1.1554880e+03   4.9463700e-01
   1.1559700e+03   3.4773600e-01
   1.1564520e+03   4.0295000e-01
   1.1569340e+03   8.4402500e-01
   1.1574160e+03   9.2650600e-01
   1.1578980e+03   3.7936800e-01
   1.1583810e+03   1.4246700e-01
   1.1588630e+03   2.1511800e-01
   1.1593450e+03   3.5881002e-02
   1.1598270e+03   2.6486200e-01
   1.1603090e+03   7.2078700e-01
   1.1607910e+03   8.7918500e-01
   1.1612730e+03   2.9895400e-01
   1.1617550e+03   1.4653400e-01
   1.1622380e+03   2.9265600e-01
   1.1627200e+03   2.4301500e-01
   1.1632020e+03   6.8466000e-02
   1.1636840e+03   5.1028400e-01
   1.1641660e+03   2.2030300e-01
   1.1646480e+03   6.2014800e-01
   1.1651300e+03   1.2034450e+00
   1.1656120e+03   8.2720200e-01
   1.1660940e+03   4.2901600e-01
   1.1665770e+03   2.2810400e-01
   1.1670590e+03   2.2380100e-01
   1.1675410e+03   5.6030700e-01
   1.1680230e+03   1.1096120e+00
   1.1685050e+03   1.3030700e+00
   1.1689870e+03   1.1521300e+00
   1.1694690e+03   9.1249500e-01
   1.1699510e+03   5.9064900e-01
   1.1704330e+03   3.7745700e-01
   1.1709160e+03   4.7186300e-01
   1.1713980e+03   6.4869300e-01
   1.1718800e+03   5.0143800e-01
   1.1723620e+03   6.7962997e-02
   1.1728440e+03   3.4383400e-01
   1.1733260e+03   1.3793910e+00
   1.1738080e+03   2.2153820e+00
   1.1742900e+03   2.0653110e+00
   1.1747730e+03   1.6384390e+00
   1.1752550e+03   1.1022490e+00
   1.1757370e+03   6.6994100e-01
   1.1762190e+03   9.2022700e-01
   1.1767010e+03   1.8604660e+00
   1.1771830e+03   2.1719860e+00
   1.1776650e+03   1.6612660e+00
   1.1781470e+03   1.0358090e+00
   1.1786300e+03   7.8329500e-01
   1.1791120e+03   6.8374300e-01
   1.1795940e+03   5.9109100e-01
   1.1800760e+03   5.2236600e-01
   1.1805580e+03   5.4892000e-01
   1.1810400e+03   6.7031100e-01
   1.1815220e+03   9.6710200e-01
   1.1820040e+03   1.5040780e+00
   1.1824860e+03   1.8673860e+00
   1.1829690e+03   1.3642810e+00
   1.1834510e+03   7.9588700e-01
   1.1839330e+03   1.0093350e+00
   1.1844150e+03   1.8454970e+00
   1.1848970e+03   2.0128140e+00
   1.1853790e+03   1.4537700e+00
   1.1858610e+03   8.4895700e-01
   1.1863430e+03   3.4322700e-01
   1.1868250e+03   4.3308001e-02
   1.1873080e+03   3.9546200e-01
   1.1877900e+03   5.3473700e-01
   1.1882720e+03   1.1839700e-01
   1.1887540e+03   8.2529800e-01
   1.1892360e+03   1.2650220e+00
   1.1897180e+03   1.1477130e+00
   1.1902000e+03   9.8673600e-01
   1.1906820e+03   9.2261900e-01
   1.1911650e+03   9.4405700e-01
   1.1916470e+03   1.1630250e+00
   1.1921290e+03   1.3818020e+00
   1.1926110e+03   1.3687590e+00
   1.1930930e+03   1.0925140e+00
   1.1935750e+03   7.6386600e-01
   1.1940570e+03   3.6874400e-01
   1.1945390e+03   1.8951001e-02
   1.1950210e+03   2.7497500e-01
   1.1955040e+03   4.5072600e-01
   1.1959860e+03   4.8109100e-01
   1.1964680e+03   3.2584000e-01
   1.1969500e+03   1.7644100e-01
   1.1974320e+03   1.1601790e+00
   1.1979140e+03   1.4933890e+00
   1.1983960e+03   1.1071360e+00
   1.1988780e+03   7.2021900e-01
   1.1993600e+03   6.7915700e-01
   1.1998430e+03   7.7152600e-01
   1.2003250e+03   6.3127900e-01
   1.2008070e+03   5.2684800e-01
   1.2012890e+03   9.7938900e-01
   1.2017710e+03   2.3450970e+00
   1.2022530e+03   2.6492420e+00
   1.2027350e+03   1.7028470e+00
   1.2032170e+03   9.4046000e-01
   1.2037000e+03   1.4516330e+00
   1.2041820e+03   2.2197490e+00
   1.2046640e+03   1.9069600e+00
   1.2051460e+03   1.1093060e+00
   1.2056280e+03   8.3036400e-01
   1.2061100e+03   1.3992200e+00
   1.2065920e+03   1.6701320e+00
   1.2070740e+03   1.5941160e+00
   1.2075570e+03   1.5446660e+00
   1.2080390e+03   1.8783300e+00
   1.2085210e+03   2.2479320e+00
   1.2090030e+03   2.1908150e+00
   1.2094850e+03   1.9182700e+00
   1.2099670e+03   1.8352200e+00
   1.2104490e+03   2.1207810e+00
   1.2109310e+03   2.1528660e+00
   1.2114130e+03   1.9033160e+00
   1.2118960e+03   1.5741810e+00
   1.2123780e+03   1.0638280e+00
   1.2128600e+03   7.5330000e-01
   1.2133420e+03   1.3538670e+00
   1.2138240e+03   2.3893620e+00
   1.2143060e+03   2.8424720e+00
   1.2147880e+03   2.5028950e+00
   1.2152700e+03   2.1087490e+00
   1.2157520e+03   1.6581880e+00
   1.2162350e+03   1.2742810e+00
   1.2167170e+03   9.5782100e-01
   1.2171990e+03   8.6010400e-01
   1.2176810e+03   1.4342580e+00
   1.2181630e+03   2.2126920e+00
   1.2186450e+03   2.0757410e+00
   1.2191270e+03   6.0125400e-01
   1.2196090e+03   1.3962200e-01
   1.2200920e+03   8.6673000e-01
   1.2205740e+03   1.6304280e+00
   1.2210560e+03   1.4864120e+00
   1.2215380e+03   9.7176000e-01
   1.2220200e+03   3.3736400e-01
   1.2225020e+03   1.7386200e-01
   1.2229840e+03   9.6332997e-02
   1.2234660e+03   1.5188940e+00
   1.2239480e+03   1.7660480e+00
   1.2244310e+03   5.8888200e-01
   1.2249130e+03   2.9047800e-01
   1.2253950e+03   1.1886140e+00
   1.2258770e+03   2.9293900e+00
   1.2263590e+03   3.0936850e+00
   1.2268410e+03   2.1597900e+00
   1.2273230e+03   1.4296300e+00
   1.2278050e+03   9.0824100e-01
   1.2282870e+03   5.9875900e-01
   1.2287700e+03   4.9773000e-01
   1.2292520e+03   7.0416300e-01
   1.2297340e+03   1.7400020e+00
   1.2302160e+03   2.6725650e+00
   1.2306980e+03   2.6738850e+00
   1.2311800e+03   2.0874480e+00
   1.2316620e+03   1.7563900e+00
   1.2321440e+03   1.7017590e+00
   1.2326270e+03   1.5553700e+00
   1.2331090e+03   1.2816730e+00
   1.2335910e+03   1.0891950e+00
   1.2340730e+03   1.1338390e+00
   1.2345550e+03   1.3132130e+00
   1.2350370e+03   1.6861270e+00
   1.2355190e+03   2.0980000e+00
   1.2360010e+03   2.2044260e+00
   1.2364840e+03   2.0046010e+00
   1.2369660e+03   2.1444970e+00
   1.2374480e+03   2.6783220e+00
   1.2379300e+03   3.0578990e+00
   1.2384120e+03   2.8509290e+00
   1.2388940e+03   2.4453390e+00
   1.2393760e+03   1.8333660e+00
   1.2398580e+03   1.2918660e+00
   1.2403400e+03   1.3950350e+00
   1.2408230e+03   2.0698970e+00
   1.2413050e+03   2.5928120e+00
   1.2417870e+03   2.8838420e+00
   1.2422690e+03   2.7723580e+00
   1.2427510e+03   1.5447650e+00
   1.2432330e+03   6.1825900e-01
   1.2437150e+03   7.3529100e-01
   1.2441970e+03   1.3696290e+00
   1.2446790e+03   1.8240590e+00
   1.2451620e+03   2.0920370e+00
   1.2456440e+03   2.1355130e+00
   1.2461260e+03   2.0155260e+00
   1.2466080e+03   1.8911060e+00
   1.2470900e+03   1.8200990e+00
   1.2475720e+03   1.7323950e+00
   1.2480540e+03   1.5434720e+00
   1.2485360e+03   1.4016530e+00
   1.2490190e+03   1.6718520e+00
   1.2495010e+03   2.1038480e+00
   1.2499830e+03   2.0511170e+00
   1.2504650e+03   1.5763440e+00
   1.2509470e+03   1.0774350e+00
   1.2514290e+03   5.9248700e-01
   1.2519110e+03   3.0884200e-01
   1.2523930e+03   2.8670100e-01
   1.2528750e+03   4.3195000e-01
   1.2533580e+03   6.3422000e-01
   1.2538400e+03   8.8835100e-01
   1.2543220e+03   1.2757570e+00
   1.2548040e+03   1.7521970e+00
   1.2552860e+03   1.8862000e+00
   1.2557680e+03   1.2477420e+00
   1.2562500e+03   7.7655400e-01
   1.2567320e+03   6.0606800e-01
   1.2572140e+03   6.6937600e-01
   1.2576970e+03   1.0187300e+00
   1.2581790e+03   1.4708560e+00
   1.2586610e+03   1.7830890e+00
   1.2591430e+03   1.9332280e+00
   1.2596250e+03   1.9109690e+00
   1.2601070e+03   1.6956180e+00
   1.2605890e+03   1.3462490e+00
   1.2610710e+03   8.1158400e-01
   1.2615540e+03   3.8985400e-01
   1.2620360e+03   5.1779600e-01
   1.2625180e+03   9.2726500e-01
   1.2630000e+03   1.4591710e+00
   1.2634820e+03   2.0545880e+00
   1.2639640e+03   2.1362530e+00
   1.2644460e+03   1.4534380e+00
   1.2649280e+03   1.1382450e+00
   1.2654110e+03   1.3095130e+00
   1.2658930e+03   1.4581380e+00
   1.2663750e+03   1.0392340e+00
   1.2668570e+03   5.0946800e-01
   1.2673390e+03   1.3478900e-01
   1.2678210e+03   2.0896999e-02
   1.2683030e+03   1.6673700e-01
   1.2687850e+03   7.2819500e-01
   1.2692670e+03   1.2619130e+00
   1.2697500e+03   1.7255020e+00
   1.2702320e+03   1.9661410e+00
   1.2707140e+03   1.8092120e+00
   1.2711960e+03   1.4598580e+00
   1.2716780e+03   8.0044200e-01
   1.2721600e+03   1.6468400e-01
   1.2726420e+03   2.0398300e-01
   1.2731240e+03   8.5651000e-01
   1.2736060e+03   1.1755980e+00
   1.2740890e+03   1.1287310e+00
   1.2745710e+03   1.1146700e+00
   1.2750530e+03   1.5701410e+00
   1.2755350e+03   1.8398740e+00
   1.2760170e+03   1.4817090e+00
   1.2764990e+03   1.0531350e+00
   1.2769810e+03   1.6079640e+00
   1.2774630e+03   2.7150880e+00
   1.2779460e+03   2.5020830e+00
   1.2784280e+03   1.0780030e+00
   1.2789100e+03   7.0006996e-02
   1.2793920e+03   3.2117100e-01
   1.2798740e+03   9.4200000e-02
   1.2803560e+03   7.2785900e-01
   1.2808380e+03   1.5806850e+00
   1.2813200e+03   1.8660850e+00
   1.2818020e+03   1.7037700e+00
   1.2822850e+03   1.0837360e+00
   1.2827670e+03   1.9045300e-01
   1.2832490e+03   1.1813000e-01
   1.2837310e+03   8.9827300e-01
   1.2842130e+03   1.4005780e+00
   1.2846950e+03   1.1554680e+00
   1.2851770e+03   7.2855000e-01
   1.2856590e+03   5.3746000e-01
   1.2861410e+03   5.5472900e-01
   1.2866240e+03   7.0071400e-01
   1.2871060e+03   9.2455700e-01
   1.2875880e+03   1.1715430e+00
   1.2880700e+03   1.4732740e+00
   1.2885520e+03   1.5128860e+00
   1.2890340e+03   1.2143860e+00
   1.2895160e+03   9.5664600e-01
   1.2899980e+03   9.8893400e-01
   1.2904810e+03   1.2209550e+00
   1.2909630e+03   1.8375590e+00
   1.2914450e+03   2.2821850e+00
   1.2919270e+03   2.2389560e+00
   1.2924090e+03   1.6184960e+00
   1.2928910e+03   1.1775210e+00
   1.2933730e+03   8.2089200e-01
   1.2938550e+03   7.0323900e-01
   1.2943380e+03   7.7396800e-01
   1.2948200e+03   8.3340100e-01
   1.2953020e+03   7.7141600e-01
   1.2957840e+03   7.1530900e-01
   1.2962660e+03   8.0950500e-01
   1.2967480e+03   1.0173420e+00
   1.2972300e+03   1.1019100e+00
   1.2977120e+03   1.0953900e+00
   1.2981940e+03   1.0384450e+00
   1.2986770e+03   9.3779400e-01
   1.2991590e+03   7.8802900e-01
   1.2996410e+03   5.6425900e-01
   1.3001230e+03   3.4820900e-01
   1.3006050e+03   1.1717600e-01
   1.3010870e+03   1.6483000e-02
   1.3015690e+03   4.2292000e-01
   1.3020510e+03   1.0168610e+00
   1.3025330e+03   8.1056600e-01
   1.3030160e+03   0.0000000e+00
   1.5000000e+03   0.0000000e+00
