   1.0000000e+02   0.0000000e+00
   1.4065010e+02   0.0000000e+00
   1.4113220e+02   1.4774500e-01
   1.4161430e+02   2.5751000e-02
   1.4209640e+02   6.5568998e-02
   1.4257850e+02   3.9712000e-01
   1.4306070e+02   8.8983200e-01
   1.4354280e+02   9.7000900e-01
   1.4402490e+02   8.0046700e-01
   1.4450700e+02   5.6587600e-01
   1.4498910e+02   1.3668800e-01
   1.4547120e+02   1.0393900e-01
   1.4595340e+02   2.0948000e-02
   1.4643550e+02   4.5934500e-01
   1.4691760e+02   9.6717800e-01
   1.4739970e+02   1.6517940e+00
   1.4788180e+02   2.3034290e+00
   1.4836390e+02   2.5526620e+00
   1.4884610e+02   2.1163830e+00
   1.4932820e+02   1.6082860e+00
   1.4981030e+02   1.2248940e+00
   1.5029240e+02   9.2864400e-01
   1.5077450e+02   8.0188000e-01
   1.5125660e+02   8.9487500e-01
   1.5173880e+02   1.1594920e+00
   1.5222090e+02   1.4616030e+00
   1.5270300e+02   1.9380820e+00
   1.5318510e+02   2.3418180e+00
   1.5366720e+02   2.5623700e+00
   1.5414930e+02   2.1880150e+00
   1.5463150e+02   2.1735840e+00
   1.5511360e+02   3.0045760e+00
   1.5559570e+02   4.3449550e+00
   1.5607780e+02   4.9742090e+00
   1.5655990e+02   4.0518110e+00
   1.5704200e+02   2.8541280e+00
   1.5752420e+02   2.0683330e+00
   1.5800630e+02   2.0858570e+00
   1.5848840e+02   2.2985800e+00
   1.5897050e+02   2.7057480e+00
   1.5945260e+02   3.1106400e+00
   1.5993470e+02   3.2687340e+00
   1.6041690e+02   2.7854610e+00
   1.6089900e+02   2.2517680e+00
   1.6138110e+02   2.0265370e+00
   1.6186320e+02   2.6279280e+00
   1.6234530e+02   3.2383400e+00
   1.6282740e+02   3.4504680e+00
   1.6330960e+02   3.2390270e+00
   1.6379170e+02   3.1764580e+00
   1.6427380e+02   3.4880080e+00
   1.6475590e+02   4.0415040e+00
   1.6523800e+02   4.7067570e+00
   1.6572010e+02   5.6929550e+00
   1.6620230e+02   6.5750120e+00
   1.6668440e+02   7.1999230e+00
   1.6716650e+02   7.5634570e+00
   1.6764860e+02   7.5846120e+00
   1.6813070e+02   7.0874560e+00
   1.6861280e+02   6.2545090e+00
   1.6909490e+02   5.3237720e+00
   1.6957710e+02   4.2402760e+00
   1.7005920e+02   3.1917190e+00
   1.7054130e+02   2.2686940e+00
   1.7102340e+02   1.4610020e+00
   1.7150550e+02   8.9691700e-01
   1.7198760e+02   8.3424000e-01
   1.7246980e+02   1.0667860e+00
   1.7295190e+02   1.2282300e+00
   1.7343400e+02   1.1082820e+00
   1.7391610e+02   8.5420400e-01
   1.7439820e+02   6.0061100e-01
   1.7488030e+02   3.5326200e-01
   1.7536250e+02   1.3128500e-01
   1.7584460e+02   8.1064001e-02
   1.7632670e+02   2.6032800e-01
   1.7680880e+02   3.4381500e-01
   1.7729090e+02   2.3540900e-01
   1.7777300e+02   3.0239001e-02
   1.7825520e+02   1.5446900e-01
   1.7873730e+02   3.2055900e-01
   1.7921940e+02   4.1758000e-01
   1.7970150e+02   3.2602500e-01
   1.8018360e+02   9.6147999e-02
   1.8066570e+02   7.6798998e-02
   1.8114790e+02   2.6489001e-02
   1.8163000e+02   1.5171600e-01
   1.8211210e+02   2.6791400e-01
   1.8259420e+02   2.9575200e-01
   1.8307630e+02   2.6534500e-01
   1.8355840e+02   1.2161100e-01
   1.8404060e+02   9.9009998e-02
   1.8452270e+02   1.5142600e-01
   1.8500480e+02   2.6680400e-01
   1.8548690e+02   9.8641200e-01
   1.8596900e+02   1.5319420e+00
   1.8645110e+02   1.8255750e+00
   1.8693330e+02   1.9285410e+00
   1.8741540e+02   1.8893010e+00
   1.8789750e+02   1.7145120e+00
   1.8837960e+02   1.5263400e+00
   1.8886170e+02   1.3398780e+00
   1.8934380e+02   1.1879100e+00
   1.8982600e+02   1.2595960e+00
   1.9030810e+02   1.6651540e+00
   1.9079020e+02   2.2097380e+00
   1.9127230e+02   2.4662690e+00
   1.9175440e+02   2.4285200e+00
   1.9223650e+02   2.3256550e+00
   1.9271870e+02   2.3165000e+00
   1.9320080e+02   2.3943230e+00
   1.9368290e+02   2.4772300e+00
   1.9416500e+02   2.5258600e+00
   1.9464710e+02   2.5928060e+00
   1.9512920e+02   2.8570310e+00
   1.9561140e+02   3.3358190e+00
   1.9609350e+02   3.8429410e+00
   1.9657560e+02   4.2261600e+00
   1.9705770e+02   4.4867080e+00
   1.9753980e+02   4.7108520e+00
   1.9802190e+02   4.9085640e+00
   1.9850410e+02   5.1011010e+00
   1.9898620e+02   5.2272420e+00
   1.9946830e+02   5.2555620e+00
   1.9995040e+02   5.3721180e+00
   2.0043250e+02   5.7849540e+00
   2.0091460e+02   6.5072210e+00
   2.0139680e+02   7.1976010e+00
   2.0187890e+02   7.7519210e+00
   2.0236100e+02   8.2188190e+00
   2.0284310e+02   8.8488480e+00
   2.0332520e+02   9.6475660e+00
   2.0380730e+02   1.0556300e+01
   2.0428950e+02   1.1548040e+01
   2.0477160e+02   1.2644790e+01
   2.0525370e+02   1.3704240e+01
   2.0573580e+02   1.4839340e+01
   2.0621790e+02   1.5935130e+01
   2.0670000e+02   1.6236960e+01
   2.0718220e+02   1.5669880e+01
   2.0766430e+02   1.4557520e+01
   2.0814640e+02   1.3016510e+01
   2.0862850e+02   1.0879460e+01
   2.0911060e+02   9.0757980e+00
   2.0959270e+02   7.8458560e+00
   2.1007490e+02   7.1298260e+00
   2.1055700e+02   6.3564110e+00
   2.1103910e+02   5.4696480e+00
   2.1152120e+02   4.6603530e+00
   2.1200330e+02   4.1373180e+00
   2.1248540e+02   3.9812470e+00
   2.1296760e+02   3.8823380e+00
   2.1344970e+02   3.7815000e+00
   2.1393180e+02   3.6770550e+00
   2.1441390e+02   3.5447500e+00
   2.1489600e+02   3.3168680e+00
   2.1537810e+02   3.0706880e+00
   2.1586030e+02   2.9419140e+00
   2.1634240e+02   2.9786930e+00
   2.1682450e+02   3.0829470e+00
   2.1730660e+02   3.2170160e+00
   2.1778870e+02   3.3591630e+00
   2.1827080e+02   3.5482790e+00
   2.1875290e+02   3.7940940e+00
   2.1923510e+02   4.0916460e+00
   2.1971720e+02   4.4500370e+00
   2.2019930e+02   4.9349980e+00
   2.2068140e+02   5.3164460e+00
   2.2116350e+02   5.4749180e+00
   2.2164560e+02   5.4068180e+00
   2.2212780e+02   5.6267510e+00
   2.2260990e+02   6.2862630e+00
   2.2309200e+02   7.0577960e+00
   2.2357410e+02   7.5569250e+00
   2.2405620e+02   7.6164280e+00
   2.2453830e+02   7.7987190e+00
   2.2502050e+02   8.1945230e+00
   2.2550260e+02   8.7979910e+00
   2.2598470e+02   9.7129380e+00
   2.2646680e+02   1.1139570e+01
   2.2694890e+02   1.2655990e+01
   2.2743100e+02   1.3757770e+01
   2.2791320e+02   1.4247780e+01
   2.2839530e+02   1.4783540e+01
   2.2887740e+02   1.5518970e+01
   2.2935950e+02   1.6469750e+01
   2.2984160e+02   1.7317810e+01
   2.3032370e+02   1.8024380e+01
   2.3080590e+02   1.8681960e+01
   2.3128800e+02   1.9400660e+01
   2.3177010e+02   2.0265790e+01
   2.3225220e+02   2.1014970e+01
   2.3273430e+02   2.1543580e+01
   2.3321640e+02   2.1843190e+01
   2.3369860e+02   2.2298010e+01
   2.3418070e+02   2.2904380e+01
   2.3466280e+02   2.3660220e+01
   2.3514490e+02   2.4590410e+01
   2.3562700e+02   2.5799280e+01
   2.3610910e+02   2.6955240e+01
   2.3659130e+02   2.8004030e+01
   2.3707340e+02   2.8937800e+01
   2.3755550e+02   2.9800740e+01
   2.3803760e+02   3.0387290e+01
   2.3851970e+02   3.1106120e+01
   2.3900180e+02   3.2385650e+01
   2.3948400e+02   3.4555300e+01
   2.3996610e+02   3.6659700e+01
   2.4044820e+02   3.8452950e+01
   2.4093030e+02   3.9940290e+01
   2.4141240e+02   4.1866000e+01
   2.4189450e+02   4.4347130e+01
   2.4237670e+02   4.7132390e+01
   2.4285880e+02   5.0006700e+01
   2.4334090e+02   5.3038990e+01
   2.4382300e+02   5.6028980e+01
   2.4430510e+02   5.9065810e+01
   2.4478720e+02   6.2134610e+01
   2.4526940e+02   6.4777880e+01
   2.4575150e+02   6.7424220e+01
   2.4623360e+02   6.9169460e+01
   2.4671570e+02   6.9269790e+01
   2.4719780e+02   6.7532040e+01
   2.4767990e+02   6.4483670e+01
   2.4816210e+02   5.9941960e+01
   2.4864420e+02   5.3971260e+01
   2.4912630e+02   4.7981690e+01
   2.4960840e+02   4.1746360e+01
   2.5009050e+02   3.5714200e+01
   2.5057260e+02   3.0177630e+01
   2.5105480e+02   2.4998440e+01
   2.5153690e+02   2.0606950e+01
   2.5201900e+02   1.7207480e+01
   2.5250110e+02   1.4701860e+01
   2.5298320e+02   1.2495660e+01
   2.5346530e+02   1.0557660e+01
   2.5394750e+02   8.9345090e+00
   2.5442960e+02   7.6576770e+00
   2.5491170e+02   6.7273750e+00
   2.5539380e+02   6.1639370e+00
   2.5587590e+02   6.1130870e+00
   2.5635800e+02   6.4592210e+00
   2.5684010e+02   6.5048830e+00
   2.5732230e+02   6.1130710e+00
   2.5780440e+02   5.6339650e+00
   2.5828650e+02   5.3272020e+00
   2.5876860e+02   5.3498540e+00
   2.5925070e+02   5.1257510e+00
   2.5973280e+02   4.5166020e+00
   2.6021500e+02   3.6290630e+00
   2.6069710e+02   2.8620680e+00
   2.6117920e+02   2.2610020e+00
   2.6166130e+02   1.7140240e+00
   2.6214340e+02   1.1247020e+00
   2.6262550e+02   4.1052200e-01
   2.6310770e+02   5.7326999e-02
   2.6358980e+02   1.6017200e-01
   2.6407190e+02   2.5149999e-02
   2.6455400e+02   7.0537999e-02
   2.6503610e+02   3.7316900e-01
   2.6551820e+02   6.9218400e-01
   2.6600040e+02   9.2132600e-01
   2.6648250e+02   1.0730210e+00
   2.6696460e+02   1.0696640e+00
   2.6744670e+02   8.5542700e-01
   2.6792880e+02   5.1360300e-01
   2.6841090e+02   2.5355900e-01
   2.6889310e+02   3.0872000e-02
   2.6937520e+02   1.0459100e-01
   2.6985730e+02   7.1560003e-02
   2.7033940e+02   1.9097100e-01
   2.7082150e+02   4.0869900e-01
   2.7130360e+02   6.1964000e-01
   2.7178580e+02   7.2907300e-01
   2.7226790e+02   4.4287900e-01
   2.7275000e+02   3.8711900e-01
   2.7323210e+02   1.0744060e+00
   2.7371420e+02   1.1598360e+00
   2.7419640e+02   5.2699700e-01
   2.7467850e+02   4.2320600e-01
   2.7516060e+02   1.0191960e+00
   2.7564270e+02   1.9210170e+00
   2.7612480e+02   2.4317050e+00
   2.7660690e+02   2.4607200e+00
   2.7708910e+02   2.5590250e+00
   2.7757120e+02   2.9308820e+00
   2.7805330e+02   3.5885240e+00
   2.7853540e+02   4.4162830e+00
   2.7901750e+02   5.4104040e+00
   2.7949960e+02   6.5601270e+00
   2.7998180e+02   7.8240930e+00
   2.8046390e+02   9.1910020e+00
   2.8094600e+02   1.0664030e+01
   2.8142810e+02   1.2262220e+01
   2.8191020e+02   1.3975670e+01
   2.8239230e+02   1.5745260e+01
   2.8287450e+02   1.7610210e+01
   2.8335660e+02   1.9401320e+01
   2.8383870e+02   2.0893590e+01
   2.8432080e+02   2.2087020e+01
   2.8480290e+02   2.3209490e+01
   2.8528500e+02   2.4316090e+01
   2.8576720e+02   2.5414270e+01
   2.8624930e+02   2.6477550e+01
   2.8673140e+02   2.7472670e+01
   2.8721350e+02   2.8631470e+01
   2.8769560e+02   3.0374740e+01
   2.8817770e+02   3.2651910e+01
   2.8865990e+02   3.4535620e+01
   2.8914200e+02   3.5639710e+01
   2.8962410e+02   3.6305210e+01
   2.9010620e+02   3.7438360e+01
   2.9058830e+02   3.9053000e+01
   2.9107040e+02   4.1039440e+01
   2.9155260e+02   4.3413430e+01
   2.9203470e+02   4.6144410e+01
   2.9251680e+02   4.8955690e+01
   2.9299890e+02   5.1778250e+01
   2.9348100e+02   5.4703210e+01
   2.9396310e+02   5.7854670e+01
   2.9444530e+02   6.1244170e+01
   2.9492740e+02   6.5162250e+01
   2.9540950e+02   6.9794020e+01
   2.9589160e+02   7.5094210e+01
   2.9637370e+02   8.0985180e+01
   2.9685580e+02   8.7564590e+01
   2.9733800e+02   9.4381390e+01
   2.9782010e+02   1.0109340e+02
   2.9830220e+02   1.0766280e+02
   2.9878430e+02   1.1363760e+02
   2.9926640e+02   1.1960050e+02
   2.9974850e+02   1.2477370e+02
   3.0023070e+02   1.2742160e+02
   3.0071280e+02   1.2742970e+02
   3.0119490e+02   1.2492160e+02
   3.0167700e+02   1.1941940e+02
   3.0215910e+02   1.1133700e+02
   3.0264120e+02   1.0221240e+02
   3.0312340e+02   9.1988190e+01
   3.0360550e+02   8.1461660e+01
   3.0408760e+02   7.1331860e+01
   3.0456970e+02   6.1759380e+01
   3.0505180e+02   5.3122430e+01
   3.0553390e+02   4.6097900e+01
   3.0601610e+02   4.0355590e+01
   3.0649820e+02   3.5367590e+01
   3.0698030e+02   3.1024930e+01
   3.0746240e+02   2.7222860e+01
   3.0794450e+02   2.3956180e+01
   3.0842660e+02   2.1223450e+01
   3.0890880e+02   1.8899630e+01
   3.0939090e+02   1.6952130e+01
   3.0987300e+02   1.5324020e+01
   3.1035510e+02   1.3924980e+01
   3.1083720e+02   1.2939890e+01
   3.1131930e+02   1.1992390e+01
   3.1180150e+02   1.0742250e+01
   3.1228360e+02   9.2138630e+00
   3.1276570e+02   7.7722400e+00
   3.1324780e+02   6.4512710e+00
   3.1372990e+02   5.3848110e+00
   3.1421200e+02   4.7174190e+00
   3.1469420e+02   4.8283390e+00
   3.1517630e+02   4.9564480e+00
   3.1565840e+02   4.6451610e+00
   3.1614050e+02   3.9935570e+00
   3.1662260e+02   3.3940350e+00
   3.1710470e+02   3.0521160e+00
   3.1758690e+02   2.8014980e+00
   3.1806900e+02   2.5270420e+00
   3.1855110e+02   2.1934890e+00
   3.1903320e+02   1.8579060e+00
   3.1951530e+02   1.4937550e+00
   3.1999740e+02   1.1383360e+00
   3.2047960e+02   8.7570200e-01
   3.2096170e+02   7.8550700e-01
   3.2144380e+02   7.5709900e-01
   3.2192590e+02   7.4948500e-01
   3.2240800e+02   7.4521600e-01
   3.2289010e+02   7.3186900e-01
   3.2337230e+02   7.4514000e-01
   3.2385440e+02   7.4663200e-01
   3.2433650e+02   6.7870700e-01
   3.2481860e+02   6.2373400e-01
   3.2530070e+02   4.4240200e-01
   3.2578280e+02   2.6819999e-03
   3.2626500e+02   7.9740500e-01
   3.2674710e+02   1.3151890e+00
   3.2722920e+02   1.3146440e+00
   3.2771130e+02   1.1024440e+00
   3.2819340e+02   9.7435000e-01
   3.2867550e+02   9.8826600e-01
   3.2915770e+02   1.0377390e+00
   3.2963980e+02   1.1614720e+00
   3.3012190e+02   1.3341830e+00
   3.3060400e+02   1.2570150e+00
   3.3108610e+02   7.4260300e-01
   3.3156820e+02   1.9162400e-01
   3.3205040e+02   1.2168900e-01
   3.3253250e+02   3.3302002e-02
   3.3301460e+02   2.3979001e-02
   3.3349670e+02   1.9545400e-01
   3.3397880e+02   4.6612900e-01
   3.3446090e+02   4.3403600e-01
   3.3494310e+02   2.3037700e-01
   3.3542520e+02   7.3544300e-01
   3.3590730e+02   5.9328800e-01
   3.3638940e+02   5.9752300e-01
   3.3687150e+02   1.3555980e+00
   3.3735360e+02   1.5573690e+00
   3.3783580e+02   1.3897170e+00
   3.3831790e+02   1.2148130e+00
   3.3880000e+02   9.9974100e-01
   3.3928210e+02   8.7386300e-01
   3.3976420e+02   9.0831800e-01
   3.4024630e+02   1.1180950e+00
   3.4072850e+02   1.3198170e+00
   3.4121050e+02   1.4942320e+00
   3.4169270e+02   1.6881450e+00
   3.4217480e+02   1.9546360e+00
   3.4265690e+02   2.2964060e+00
   3.4313900e+02   2.7048070e+00
   3.4362110e+02   3.2215460e+00
   3.4410320e+02   3.8106040e+00
   3.4458540e+02   4.1708220e+00
   3.4506750e+02   4.2547530e+00
   3.4554960e+02   4.3367080e+00
   3.4603170e+02   4.6785390e+00
   3.4651380e+02   5.2663920e+00
   3.4699590e+02   5.9135590e+00
   3.4747810e+02   6.6085740e+00
   3.4796020e+02   7.3189090e+00
   3.4844230e+02   8.0380820e+00
   3.4892440e+02   8.7605060e+00
   3.4940650e+02   9.3133740e+00
   3.4988860e+02   9.3892100e+00
   3.5037080e+02   9.1902620e+00
   3.5085290e+02   9.2985760e+00
   3.5133500e+02   9.8097880e+00
   3.5181710e+02   1.0597010e+01
   3.5229920e+02   1.1590790e+01
   3.5278130e+02   1.2738690e+01
   3.5326350e+02   1.3871390e+01
   3.5374560e+02   1.4954250e+01
   3.5422770e+02   1.5956470e+01
   3.5470980e+02   1.6805630e+01
   3.5519190e+02   1.7481030e+01
   3.5567400e+02   1.8146780e+01
   3.5615620e+02   1.8886960e+01
   3.5663830e+02   1.9710090e+01
   3.5712040e+02   2.0646520e+01
   3.5760250e+02   2.1705730e+01
   3.5808460e+02   2.2881400e+01
   3.5856670e+02   2.4234580e+01
   3.5904890e+02   2.5755910e+01
   3.5953100e+02   2.7204580e+01
   3.6001310e+02   2.8244220e+01
   3.6049520e+02   2.9231270e+01
   3.6097730e+02   3.0515400e+01
   3.6145940e+02   3.2324560e+01
   3.6194160e+02   3.4293190e+01
   3.6242370e+02   3.6226440e+01
   3.6290580e+02   3.8179000e+01
   3.6338790e+02   4.0323780e+01
   3.6387000e+02   4.2659930e+01
   3.6435210e+02   4.5263830e+01
   3.6483430e+02   4.8178330e+01
   3.6531640e+02   5.1519220e+01
   3.6579850e+02   5.4951390e+01
   3.6628060e+02   5.8259400e+01
   3.6676270e+02   6.1652870e+01
   3.6724480e+02   6.5413370e+01
   3.6772700e+02   7.0024250e+01
   3.6820910e+02   7.4626850e+01
   3.6869120e+02   7.8847110e+01
   3.6917330e+02   8.2458820e+01
   3.6965540e+02   8.6680990e+01
   3.7013750e+02   9.1963100e+01
   3.7061970e+02   9.7644710e+01
   3.7110180e+02   1.0323610e+02
   3.7158390e+02   1.0867660e+02
   3.7206600e+02   1.1412930e+02
   3.7254810e+02   1.1954550e+02
   3.7303020e+02   1.2492130e+02
   3.7351240e+02   1.3043760e+02
   3.7399450e+02   1.3613050e+02
   3.7447660e+02   1.4191610e+02
   3.7495870e+02   1.4782910e+02
   3.7544080e+02   1.5398630e+02
   3.7592290e+02   1.5994430e+02
   3.7640510e+02   1.6561600e+02
   3.7688720e+02   1.7119270e+02
   3.7736930e+02   1.7711280e+02
   3.7785140e+02   1.8343050e+02
   3.7833350e+02   1.9003920e+02
   3.7881560e+02   1.9677740e+02
   3.7929780e+02   2.0370150e+02
   3.7977990e+02   2.1118920e+02
   3.8026200e+02   2.1942250e+02
   3.8074410e+02   2.2793550e+02
   3.8122620e+02   2.3608540e+02
   3.8170830e+02   2.4386260e+02
   3.8219050e+02   2.5214030e+02
   3.8267260e+02   2.6141620e+02
   3.8315470e+02   2.7119930e+02
   3.8363680e+02   2.7976140e+02
   3.8411890e+02   2.8713270e+02
   3.8460100e+02   2.9400180e+02
   3.8508320e+02   3.0173290e+02
   3.8556530e+02   3.0947230e+02
   3.8604740e+02   3.1479490e+02
   3.8652950e+02   3.1692510e+02
   3.8701160e+02   3.1714560e+02
   3.8749370e+02   3.1729380e+02
   3.8797590e+02   3.1696880e+02
   3.8845800e+02   3.1477230e+02
   3.8894010e+02   3.0966360e+02
   3.8942220e+02   3.0236420e+02
   3.8990430e+02   2.9341090e+02
   3.9038640e+02   2.8268980e+02
   3.9086860e+02   2.7149600e+02
   3.9135070e+02   2.6076270e+02
   3.9183280e+02   2.5009180e+02
   3.9231490e+02   2.3905120e+02
   3.9279700e+02   2.2679470e+02
   3.9327910e+02   2.1481340e+02
   3.9376130e+02   2.0382960e+02
   3.9424340e+02   1.9381030e+02
   3.9472550e+02   1.8492220e+02
   3.9520760e+02   1.7746960e+02
   3.9568970e+02   1.7097690e+02
   3.9617180e+02   1.6513400e+02
   3.9665400e+02   1.5996340e+02
   3.9713610e+02   1.5531580e+02
   3.9761820e+02   1.5116320e+02
   3.9810030e+02   1.4750630e+02
   3.9858240e+02   1.4434810e+02
   3.9906450e+02   1.4219180e+02
   3.9954670e+02   1.4008070e+02
   4.0002880e+02   1.3773330e+02
   4.0051090e+02   1.3514470e+02
   4.0099300e+02   1.3226820e+02
   4.0147510e+02   1.2938190e+02
   4.0195720e+02   1.2603480e+02
   4.0243940e+02   1.2174760e+02
   4.0292150e+02   1.1620220e+02
   4.0340360e+02   1.1021340e+02
   4.0388570e+02   1.0366850e+02
   4.0436780e+02   9.6657650e+01
   4.0484990e+02   9.0255230e+01
   4.0533210e+02   8.4398250e+01
   4.0581420e+02   7.9161470e+01
   4.0629630e+02   7.4693900e+01
   4.0677840e+02   7.1036590e+01
   4.0726050e+02   6.7814000e+01
   4.0774260e+02   6.5071310e+01
   4.0822480e+02   6.2664140e+01
   4.0870690e+02   6.0131290e+01
   4.0918900e+02   5.7445160e+01
   4.0967110e+02   5.5480830e+01
   4.1015320e+02   5.4784130e+01
   4.1063530e+02   5.5178330e+01
   4.1111750e+02   5.5762550e+01
   4.1159960e+02   5.6545880e+01
   4.1208170e+02   5.7400610e+01
   4.1256380e+02   5.8076550e+01
   4.1304590e+02   5.8677700e+01
   4.1352800e+02   5.9642840e+01
   4.1401020e+02   6.1149900e+01
   4.1449230e+02   6.2999050e+01
   4.1497440e+02   6.5039790e+01
   4.1545650e+02   6.7245260e+01
   4.1593860e+02   6.9406490e+01
   4.1642070e+02   7.1506940e+01
   4.1690290e+02   7.3468380e+01
   4.1738500e+02   7.5331310e+01
   4.1786710e+02   7.7242260e+01
   4.1834920e+02   7.8475910e+01
   4.1883130e+02   7.8602290e+01
   4.1931340e+02   7.7711180e+01
   4.1979560e+02   7.5951970e+01
   4.2027770e+02   7.2751040e+01
   4.2075980e+02   6.9234890e+01
   4.2124190e+02   6.5991000e+01
   4.2172400e+02   6.3020200e+01
   4.2220610e+02   5.9737270e+01
   4.2268830e+02   5.5580020e+01
   4.2317040e+02   5.1237630e+01
   4.2365250e+02   4.7131660e+01
   4.2413460e+02   4.3383780e+01
   4.2461670e+02   3.9849770e+01
   4.2509880e+02   3.6472110e+01
   4.2558100e+02   3.3339810e+01
   4.2606310e+02   3.0673450e+01
   4.2654520e+02   2.8864010e+01
   4.2702730e+02   2.7145390e+01
   4.2750940e+02   2.5264840e+01
   4.2799150e+02   2.3178310e+01
   4.2847370e+02   2.1192540e+01
   4.2895580e+02   1.9258760e+01
   4.2943790e+02   1.7477850e+01
   4.2992000e+02   1.5980350e+01
   4.3040210e+02   1.4858210e+01
   4.3088420e+02   1.3744730e+01
   4.3136640e+02   1.2547330e+01
   4.3184850e+02   1.1328510e+01
   4.3233060e+02   1.0348380e+01
   4.3281270e+02   9.6307220e+00
   4.3329480e+02   9.0390700e+00
   4.3377690e+02   8.5879480e+00
   4.3425910e+02   8.2514460e+00
   4.3474120e+02   7.5910030e+00
   4.3522330e+02   6.5117530e+00
   4.3570540e+02   5.3462490e+00
   4.3618750e+02   4.4757190e+00
   4.3666960e+02   3.8894770e+00
   4.3715180e+02   3.5300220e+00
   4.3763390e+02   3.5455820e+00
   4.3811600e+02   3.6698190e+00
   4.3859810e+02   3.4088100e+00
   4.3908020e+02   2.7894330e+00
   4.3956230e+02   2.1164250e+00
   4.4004440e+02   1.5559500e+00
   4.4052660e+02   1.1003230e+00
   4.4100870e+02   7.3289100e-01
   4.4149080e+02   4.5706600e-01
   4.4197290e+02   2.5535200e-01
   4.4245500e+02   2.2900800e-01
   4.4293710e+02   2.6276000e-01
   4.4341930e+02   1.2891400e-01
   4.4390140e+02   4.6687300e-01
   4.4438350e+02   1.0884090e+00
   4.4486560e+02   1.5473630e+00
   4.4534770e+02   1.8352740e+00
   4.4582980e+02   1.9059640e+00
   4.4631200e+02   1.4810790e+00
   4.4679410e+02   9.6990200e-01
   4.4727620e+02   7.0698500e-01
   4.4775830e+02   1.0853650e+00
   4.4824040e+02   1.2938040e+00
   4.4872250e+02   1.2045170e+00
   4.4920470e+02   8.9373800e-01
   4.4968680e+02   5.5960100e-01
   4.5016890e+02   4.9773999e-02
   4.5065100e+02   2.7782400e-01
   4.5113310e+02   2.2018400e-01
   4.5161520e+02   3.3113500e-01
   4.5209740e+02   5.4762600e-01
   4.5257950e+02   3.3194400e-01
   4.5306160e+02   4.9495999e-02
   4.5354370e+02   3.1661600e-01
   4.5402580e+02   4.4858600e-01
   4.5450790e+02   6.2083800e-01
   4.5499010e+02   8.8213700e-01
   4.5547220e+02   1.2104760e+00
   4.5595430e+02   1.5481410e+00
   4.5643640e+02   1.8922460e+00
   4.5691850e+02   2.2221180e+00
   4.5740060e+02   2.5498850e+00
   4.5788280e+02   2.8592450e+00
   4.5836490e+02   3.0593680e+00
   4.5884700e+02   3.1191640e+00
   4.5932910e+02   3.2256580e+00
   4.5981120e+02   3.6454350e+00
   4.6029330e+02   4.2646830e+00
   4.6077550e+02   4.8242340e+00
   4.6125760e+02   5.2122340e+00
   4.6173970e+02   5.5227780e+00
   4.6222180e+02   5.8012770e+00
   4.6270390e+02   6.0667000e+00
   4.6318600e+02   6.3946460e+00
   4.6366820e+02   6.8245430e+00
   4.6415030e+02   7.3412440e+00
   4.6463240e+02   7.9272540e+00
   4.6511450e+02   8.5877000e+00
   4.6559660e+02   9.3200610e+00
   4.6607870e+02   1.0195100e+01
   4.6656090e+02   1.1122630e+01
   4.6704300e+02   1.1974120e+01
   4.6752510e+02   1.2555140e+01
   4.6800720e+02   1.3236780e+01
   4.6848930e+02   1.4180540e+01
   4.6897140e+02   1.5364770e+01
   4.6945360e+02   1.6384220e+01
   4.6993570e+02   1.7153360e+01
   4.7041780e+02   1.7848170e+01
   4.7089990e+02   1.8546570e+01
   4.7138200e+02   1.9238060e+01
   4.7186410e+02   1.9964200e+01
   4.7234630e+02   2.0743710e+01
   4.7282840e+02   2.1535270e+01
   4.7331050e+02   2.2233750e+01
   4.7379260e+02   2.2773800e+01
   4.7427470e+02   2.3608070e+01
   4.7475680e+02   2.5031650e+01
   4.7523900e+02   2.6829490e+01
   4.7572110e+02   2.8063160e+01
   4.7620320e+02   2.8710960e+01
   4.7668530e+02   2.9161340e+01
   4.7716740e+02   2.9620080e+01
   4.7764950e+02   3.0119910e+01
   4.7813170e+02   3.0828300e+01
   4.7861380e+02   3.1837680e+01
   4.7909590e+02   3.2776330e+01
   4.7957800e+02   3.3137660e+01
   4.8006010e+02   3.3107210e+01
   4.8054220e+02   3.3117470e+01
   4.8102440e+02   3.3573180e+01
   4.8150650e+02   3.3988990e+01
   4.8198860e+02   3.3978410e+01
   4.8247070e+02   3.3560420e+01
   4.8295280e+02   3.2940340e+01
   4.8343490e+02   3.2080430e+01
   4.8391710e+02   3.1137090e+01
   4.8439920e+02   3.0245700e+01
   4.8488130e+02   2.9487580e+01
   4.8536340e+02   2.8635290e+01
   4.8584550e+02   2.7656220e+01
   4.8632760e+02   2.6554150e+01
   4.8680980e+02   2.5339670e+01
   4.8729190e+02   2.4068200e+01
   4.8777400e+02   2.2598650e+01
   4.8825610e+02   2.0801810e+01
   4.8873820e+02   1.8699410e+01
   4.8922030e+02   1.6987900e+01
   4.8970250e+02   1.5825200e+01
   4.9018460e+02   1.4833710e+01
   4.9066670e+02   1.3795040e+01
   4.9114880e+02   1.2703260e+01
   4.9163090e+02   1.1623760e+01
   4.9211300e+02   1.0505980e+01
   4.9259520e+02   9.4895900e+00
   4.9307730e+02   8.8683510e+00
   4.9355940e+02   8.6351550e+00
   4.9404150e+02   8.1608240e+00
   4.9452360e+02   7.0578350e+00
   4.9500570e+02   5.6740530e+00
   4.9548790e+02   4.8606910e+00
   4.9597000e+02   4.5891990e+00
   4.9645210e+02   4.3902280e+00
   4.9693420e+02   3.8552590e+00
   4.9741630e+02   3.1995090e+00
   4.9789840e+02   2.7823070e+00
   4.9838060e+02   2.6786190e+00
   4.9886270e+02   2.6555980e+00
   4.9934480e+02   2.5596120e+00
   4.9982690e+02   2.4229390e+00
   5.0030900e+02   2.2932510e+00
   5.0079110e+02   2.2134280e+00
   5.0127330e+02   2.1199720e+00
   5.0175540e+02   1.9940870e+00
   5.0223750e+02   1.8098790e+00
   5.0271960e+02   1.5091860e+00
   5.0320170e+02   9.3268200e-01
   5.0368380e+02   3.7494300e-01
   5.0416600e+02   1.5022000e-02
   5.0464810e+02   8.4274001e-02
   5.0513020e+02   1.6170900e-01
   5.0561230e+02   2.5662200e-01
   5.0609440e+02   3.5144000e-01
   5.0657650e+02   4.1587800e-01
   5.0705870e+02   4.2561300e-01
   5.0754080e+02   4.2109300e-01
   5.0802290e+02   3.9278800e-01
   5.0850500e+02   3.6999900e-01
   5.0898710e+02   4.3256400e-01
   5.0946920e+02   6.2739600e-01
   5.0995140e+02   7.4452600e-01
   5.1043350e+02   6.0608700e-01
   5.1091560e+02   2.4649400e-01
   5.1139770e+02   9.5458999e-02
   5.1187980e+02   4.1700000e-01
   5.1236190e+02   6.5975200e-01
   5.1284410e+02   6.9228400e-01
   5.1332620e+02   6.0822700e-01
   5.1380830e+02   6.3009600e-01
   5.1429040e+02   8.6312100e-01
   5.1477250e+02   1.1435970e+00
   5.1525460e+02   1.2600400e+00
   5.1573680e+02   1.2966690e+00
   5.1621890e+02   1.4735070e+00
   5.1670100e+02   2.2054480e+00
   5.1718310e+02   2.8556670e+00
   5.1766520e+02   2.9399910e+00
   5.1814730e+02   2.4046520e+00
   5.1862950e+02   2.0276370e+00
   5.1911160e+02   1.9822240e+00
   5.1959370e+02   2.2007180e+00
   5.2007580e+02   2.6349330e+00
   5.2055790e+02   3.6621360e+00
   5.2104000e+02   4.4009820e+00
   5.2152220e+02   4.7649150e+00
   5.2200430e+02   4.8762250e+00
   5.2248640e+02   4.9412610e+00
   5.2296850e+02   4.9378470e+00
   5.2345060e+02   4.9755590e+00
   5.2393270e+02   5.0330620e+00
   5.2441490e+02   5.1257970e+00
   5.2489700e+02   5.4844210e+00
   5.2537910e+02   6.1652830e+00
   5.2586120e+02   6.9278980e+00
   5.2634330e+02   7.6271320e+00
   5.2682540e+02   8.2458690e+00
   5.2730760e+02   8.7178040e+00
   5.2778970e+02   9.0123940e+00
   5.2827180e+02   9.2882460e+00
   5.2875390e+02   9.7648930e+00
   5.2923600e+02   1.0376840e+01
   5.2971810e+02   1.0957280e+01
   5.3020030e+02   1.1329350e+01
   5.3068240e+02   1.1743110e+01
   5.3116450e+02   1.2482280e+01
   5.3164660e+02   1.3459410e+01
   5.3212870e+02   1.4406840e+01
   5.3261080e+02   1.5231880e+01
   5.3309300e+02   1.5961200e+01
   5.3357510e+02   1.6575550e+01
   5.3405720e+02   1.7026770e+01
   5.3453930e+02   1.7589730e+01
   5.3502140e+02   1.8296440e+01
   5.3550350e+02   1.9162540e+01
   5.3598570e+02   2.0181530e+01
   5.3646780e+02   2.1433000e+01
   5.3694990e+02   2.2719840e+01
   5.3743200e+02   2.4059640e+01
   5.3791410e+02   2.5406220e+01
   5.3839620e+02   2.6601780e+01
   5.3887840e+02   2.7608860e+01
   5.3936050e+02   2.8627400e+01
   5.3984260e+02   2.9700870e+01
   5.4032470e+02   3.0843200e+01
   5.4080680e+02   3.2081680e+01
   5.4128890e+02   3.3419060e+01
   5.4177110e+02   3.4774380e+01
   5.4225320e+02   3.6071530e+01
   5.4273530e+02   3.7319490e+01
   5.4321740e+02   3.8547150e+01
   5.4369950e+02   3.9766080e+01
   5.4418160e+02   4.0930900e+01
   5.4466380e+02   4.1868240e+01
   5.4514590e+02   4.2738380e+01
   5.4562800e+02   4.3816360e+01
   5.4611010e+02   4.5438370e+01
   5.4659220e+02   4.7097880e+01
   5.4707430e+02   4.8720510e+01
   5.4755650e+02   5.0190070e+01
   5.4803860e+02   5.1068320e+01
   5.4852070e+02   5.0702380e+01
   5.4900280e+02   5.0139270e+01
   5.4948490e+02   4.9936140e+01
   5.4996700e+02   5.0326290e+01
   5.5044920e+02   5.0239800e+01
   5.5093130e+02   4.9492220e+01
   5.5141340e+02   4.8409760e+01
   5.5189550e+02   4.7206360e+01
   5.5237760e+02   4.5856980e+01
   5.5285970e+02   4.4486310e+01
   5.5334190e+02   4.3139990e+01
   5.5382400e+02   4.1744140e+01
   5.5430610e+02   4.0158080e+01
   5.5478820e+02   3.8381460e+01
   5.5527030e+02   3.6400000e+01
   5.5575240e+02   3.4108770e+01
   5.5623460e+02   3.1689860e+01
   5.5671670e+02   2.9728520e+01
   5.5719880e+02   2.8197030e+01
   5.5768090e+02   2.6709320e+01
   5.5816300e+02   2.4800850e+01
   5.5864510e+02   2.2828800e+01
   5.5912730e+02   2.1456250e+01
   5.5960940e+02   2.0863020e+01
   5.6009150e+02   2.0108420e+01
   5.6057360e+02   1.8270110e+01
   5.6105570e+02   1.6037290e+01
   5.6153780e+02   1.4206260e+01
   5.6202000e+02   1.3293750e+01
   5.6250210e+02   1.2503350e+01
   5.6298420e+02   1.1574700e+01
   5.6346630e+02   1.0607810e+01
   5.6394840e+02   9.8848230e+00
   5.6443050e+02   9.6522290e+00
   5.6491270e+02   9.3868100e+00
   5.6539480e+02   8.9445760e+00
   5.6587690e+02   8.3284990e+00
   5.6635900e+02   7.6519240e+00
   5.6684110e+02   6.8686260e+00
   5.6732320e+02   6.0984500e+00
   5.6780540e+02   5.3830410e+00
   5.6828750e+02   4.7370720e+00
   5.6876960e+02   4.3718450e+00
   5.6925170e+02   4.3428000e+00
   5.6973380e+02   4.4172100e+00
   5.7021590e+02   4.3758050e+00
   5.7069810e+02   4.1972390e+00
   5.7118020e+02   3.7947080e+00
   5.7166230e+02   2.9795800e+00
   5.7214440e+02   2.1427230e+00
   5.7262650e+02   1.6569210e+00
   5.7310860e+02   1.4780690e+00
   5.7359080e+02   1.4630010e+00
   5.7407290e+02   1.8154910e+00
   5.7455500e+02   2.0877300e+00
   5.7503710e+02   1.9324000e+00
   5.7551920e+02   1.3121870e+00
   5.7600130e+02   7.9411700e-01
   5.7648350e+02   5.6011600e-01
   5.7696560e+02   4.3953300e-01
   5.7744770e+02   3.1955700e-01
   5.7792980e+02   1.6380300e-01
   5.7841190e+02   8.3038002e-02
   5.7889400e+02   1.3473500e-01
   5.7937620e+02   2.1095300e-01
   5.7985830e+02   1.2886400e-01
   5.8034040e+02   1.6389100e-01
   5.8082250e+02   3.2927700e-01
   5.8130460e+02   2.3730100e-01
   5.8178670e+02   2.0760000e-02
   5.8226890e+02   7.7514999e-02
   5.8275100e+02   3.8853100e-01
   5.8323310e+02   6.3078300e-01
   5.8371520e+02   5.6082500e-01
   5.8419730e+02   3.3372500e-01
   5.8467940e+02   1.7657100e-01
   5.8516160e+02   9.6557997e-02
   5.8564370e+02   1.1377700e-01
   5.8612580e+02   3.4142700e-01
   5.8660790e+02   6.1895800e-01
   5.8709000e+02   7.9669200e-01
   5.8757210e+02   8.3547200e-01
   5.8805420e+02   8.0918500e-01
   5.8853630e+02   7.3848000e-01
   5.8901840e+02   6.1801900e-01
   5.8950050e+02   4.4065100e-01
   5.8998270e+02   8.9759998e-02
   5.9046480e+02   1.7689500e-01
   5.9094690e+02   3.3934400e-01
   5.9142900e+02   3.9714100e-01
   5.9191110e+02   3.2381800e-01
   5.9239320e+02   7.2437003e-02
   5.9287540e+02   1.7688000e-01
   5.9335750e+02   3.8022600e-01
   5.9383960e+02   5.2754200e-01
   5.9432170e+02   5.0409700e-01
   5.9480380e+02   2.9988900e-01
   5.9528590e+02   7.3348999e-02
   5.9576810e+02   3.0872000e-02
   5.9625020e+02   6.4980000e-02
   5.9673230e+02   1.7741000e-01
   5.9721440e+02   4.0893200e-01
   5.9769650e+02   5.7311600e-01
   5.9817860e+02   3.4226200e-01
   5.9866080e+02   4.6270001e-03
   5.9914290e+02   8.9511998e-02
   5.9962500e+02   4.4844800e-01
   6.0010710e+02   9.7366300e-01
   6.0058920e+02   1.2822380e+00
   6.0107140e+02   1.4026220e+00
   6.0155350e+02   1.3949550e+00
   6.0203560e+02   1.0319630e+00
   6.0251770e+02   8.0154800e-01
   6.0299980e+02   8.7372200e-01
   6.0348190e+02   1.2232320e+00
   6.0396410e+02   1.3839840e+00
   6.0444620e+02   1.2555120e+00
   6.0492830e+02   1.1726650e+00
   6.0541040e+02   1.4144210e+00
   6.0589250e+02   1.9803810e+00
   6.0637460e+02   2.2245060e+00
   6.0685680e+02   2.1168100e+00
   6.0733890e+02   1.8533670e+00
   6.0782100e+02   1.5031740e+00
   6.0830310e+02   1.1549570e+00
   6.0878520e+02   1.0784260e+00
   6.0926730e+02   1.4059830e+00
   6.0974950e+02   1.8214490e+00
   6.1023160e+02   2.1333390e+00
   6.1071370e+02   2.3166770e+00
   6.1119580e+02   2.3294870e+00
   6.1167790e+02   1.8842280e+00
   6.1216000e+02   1.5371400e+00
   6.1264220e+02   1.5824090e+00
   6.1312430e+02   1.9419670e+00
   6.1360640e+02   2.2029910e+00
   6.1408850e+02   2.1917950e+00
   6.1457060e+02   2.2037960e+00
   6.1505270e+02   2.3758890e+00
   6.1553490e+02   2.7279170e+00
   6.1601700e+02   2.8524820e+00
   6.1649910e+02   2.6858330e+00
   6.1698120e+02   2.4431720e+00
   6.1746330e+02   2.3058200e+00
   6.1794540e+02   2.2633670e+00
   6.1842760e+02   2.0653500e+00
   6.1890970e+02   1.6370740e+00
   6.1939180e+02   1.3166200e+00
   6.1987390e+02   1.7123600e+00
   6.2035600e+02   2.5163270e+00
   6.2083810e+02   2.9570730e+00
   6.2132030e+02   2.6413570e+00
   6.2180240e+02   2.1692390e+00
   6.2228450e+02   1.9370420e+00
   6.2276660e+02   1.8955610e+00
   6.2324870e+02   1.9364970e+00
   6.2373080e+02   2.1483540e+00
   6.2421300e+02   2.3087770e+00
   6.2469510e+02   2.2811810e+00
   6.2517720e+02   2.0868530e+00
   6.2565930e+02   2.0265580e+00
   6.2614140e+02   2.1712680e+00
   6.2662350e+02   2.3656310e+00
   6.2710570e+02   2.5841560e+00
   6.2758780e+02   2.8442230e+00
   6.2806990e+02   2.8596530e+00
   6.2855200e+02   2.5407870e+00
   6.2903410e+02   2.2660260e+00
   6.2951620e+02   2.4720000e+00
   6.2999840e+02   3.0566640e+00
   6.3048050e+02   3.4916270e+00
   6.3096260e+02   3.7185170e+00
   6.3144470e+02   3.7549740e+00
   6.3192680e+02   3.4524420e+00
   6.3240890e+02   2.9986800e+00
   6.3289110e+02   2.7520480e+00
   6.3337320e+02   3.0161670e+00
   6.3385530e+02   3.2807080e+00
   6.3433740e+02   3.1444550e+00
   6.3481950e+02   2.7996060e+00
   6.3530160e+02   2.6703760e+00
   6.3578380e+02   3.0332490e+00
   6.3626590e+02   3.4490740e+00
   6.3674800e+02   3.8600690e+00
   6.3723010e+02   4.2481270e+00
   6.3771220e+02   4.3781130e+00
   6.3819430e+02   4.0483590e+00
   6.3867650e+02   3.8320010e+00
   6.3915860e+02   4.1587140e+00
   6.3964070e+02   5.0216220e+00
   6.4012280e+02   5.2122730e+00
   6.4060490e+02   4.6303710e+00
   6.4108700e+02   3.9558410e+00
   6.4156920e+02   3.7677420e+00
   6.4205130e+02   3.9955290e+00
   6.4253340e+02   4.5431140e+00
   6.4301550e+02   5.4673460e+00
   6.4349760e+02   6.2683830e+00
   6.4397970e+02   6.4215240e+00
   6.4446190e+02   6.2077480e+00
   6.4494400e+02   6.0117990e+00
   6.4542610e+02   5.8539090e+00
   6.4590820e+02   5.8801160e+00
   6.4639030e+02   6.2455220e+00
   6.4687240e+02   6.8214840e+00
   6.4735460e+02   7.3222350e+00
   6.4783670e+02   7.7029530e+00
   6.4831880e+02   8.0734630e+00
   6.4880090e+02   8.4928090e+00
   6.4928300e+02   8.9175800e+00
   6.4976510e+02   9.1170010e+00
   6.5024730e+02   9.0395770e+00
   6.5072940e+02   9.0025180e+00
   6.5121150e+02   9.1217460e+00
   6.5169360e+02   9.4136200e+00
   6.5217570e+02   1.0119240e+01
   6.5265780e+02   1.1246710e+01
   6.5314000e+02   1.2086560e+01
   6.5362210e+02   1.1698670e+01
   6.5410420e+02   1.0889760e+01
   6.5458630e+02   1.0682420e+01
   6.5506840e+02   1.1265900e+01
   6.5555050e+02   1.2072510e+01
   6.5603270e+02   1.3030610e+01
   6.5651480e+02   1.3962540e+01
   6.5699690e+02   1.4690510e+01
   6.5747900e+02   1.5034030e+01
   6.5796110e+02   1.5400680e+01
   6.5844320e+02   1.5781430e+01
   6.5892540e+02   1.6205430e+01
   6.5940750e+02   1.6697390e+01
   6.5988960e+02   1.7227730e+01
   6.6037170e+02   1.7974190e+01
   6.6085380e+02   1.9088030e+01
   6.6133590e+02   2.0309200e+01
   6.6181810e+02   2.0927040e+01
   6.6230020e+02   2.1006130e+01
   6.6278230e+02   2.1183900e+01
   6.6326440e+02   2.1798610e+01
   6.6374650e+02   2.2658650e+01
   6.6422860e+02   2.3542990e+01
   6.6471080e+02   2.4443400e+01
   6.6519290e+02   2.5358400e+01
   6.6567500e+02   2.6312800e+01
   6.6615710e+02   2.7258400e+01
   6.6663920e+02   2.8141240e+01
   6.6712130e+02   2.8946530e+01
   6.6760350e+02   2.9828670e+01
   6.6808560e+02   3.1004780e+01
   6.6856770e+02   3.2101060e+01
   6.6904980e+02   3.2900230e+01
   6.6953190e+02   3.3284680e+01
   6.7001400e+02   3.3809470e+01
   6.7049620e+02   3.4510460e+01
   6.7097830e+02   3.5280100e+01
   6.7146040e+02   3.5963680e+01
   6.7194250e+02   3.6585560e+01
   6.7242460e+02   3.7406270e+01
   6.7290670e+02   3.8490680e+01
   6.7338890e+02   3.9647520e+01
   6.7387100e+02   4.0720050e+01
   6.7435310e+02   4.1687910e+01
   6.7483520e+02   4.2489820e+01
   6.7531730e+02   4.3013130e+01
   6.7579940e+02   4.3490880e+01
   6.7628160e+02   4.4059330e+01
   6.7676370e+02   4.4667590e+01
   6.7724580e+02   4.5209880e+01
   6.7772790e+02   4.5475970e+01
   6.7821000e+02   4.5892400e+01
   6.7869210e+02   4.6672790e+01
   6.7917430e+02   4.7712200e+01
   6.7965640e+02   4.8424570e+01
   6.8013850e+02   4.8827440e+01
   6.8062060e+02   4.8850060e+01
   6.8110270e+02   4.8212410e+01
   6.8158480e+02   4.7155080e+01
   6.8206700e+02   4.7070620e+01
   6.8254910e+02   4.7954080e+01
   6.8303120e+02   4.8811230e+01
   6.8351330e+02   4.8843570e+01
   6.8399540e+02   4.8415830e+01
   6.8447750e+02   4.7995000e+01
   6.8495970e+02   4.7667560e+01
   6.8544180e+02   4.7328190e+01
   6.8592390e+02   4.7015130e+01
   6.8640600e+02   4.6637670e+01
   6.8688810e+02   4.6083170e+01
   6.8737020e+02   4.5264100e+01
   6.8785240e+02   4.4460160e+01
   6.8833450e+02   4.3724790e+01
   6.8881660e+02   4.3003830e+01
   6.8929870e+02   4.2245020e+01
   6.8978080e+02   4.1465260e+01
   6.9026290e+02   4.0534070e+01
   6.9074510e+02   3.9410100e+01
   6.9122720e+02   3.8160570e+01
   6.9170930e+02   3.6850280e+01
   6.9219140e+02   3.5503580e+01
   6.9267350e+02   3.4116860e+01
   6.9315560e+02   3.2579010e+01
   6.9363780e+02   3.1188750e+01
   6.9411990e+02   3.0548020e+01
   6.9460200e+02   3.0315480e+01
   6.9508410e+02   2.9699660e+01
   6.9556620e+02   2.7939510e+01
   6.9604830e+02   2.6147750e+01
   6.9653050e+02   2.4707180e+01
   6.9701260e+02   2.3614970e+01
   6.9749470e+02   2.2771630e+01
   6.9797680e+02   2.2399580e+01
   6.9845890e+02   2.1970280e+01
   6.9894100e+02   2.1305180e+01
   6.9942320e+02   2.0412850e+01
   6.9990530e+02   1.9439580e+01
   7.0038740e+02   1.8352020e+01
   7.0086950e+02   1.7354840e+01
   7.0135160e+02   1.6612550e+01
   7.0183370e+02   1.6063920e+01
   7.0231590e+02   1.5565020e+01
   7.0279800e+02   1.5107940e+01
   7.0328010e+02   1.4658820e+01
   7.0376220e+02   1.4250250e+01
   7.0424430e+02   1.3797550e+01
   7.0472640e+02   1.3179500e+01
   7.0520860e+02   1.2317620e+01
   7.0569070e+02   1.1564800e+01
   7.0617280e+02   1.1034860e+01
   7.0665490e+02   1.0652660e+01
   7.0713700e+02   1.0363520e+01
   7.0761910e+02   1.0285880e+01
   7.0810130e+02   9.9937970e+00
   7.0858340e+02   9.4139940e+00
   7.0906550e+02   8.7220840e+00
   7.0954760e+02   8.1284830e+00
   7.1002970e+02   7.6294630e+00
   7.1051180e+02   7.2311970e+00
   7.1099400e+02   6.9536670e+00
   7.1147610e+02   6.7272610e+00
   7.1195820e+02   6.4615590e+00
   7.1244030e+02   6.1805230e+00
   7.1292240e+02   5.9299960e+00
   7.1340450e+02   5.7583960e+00
   7.1388670e+02   5.5811580e+00
   7.1436880e+02   5.2749600e+00
   7.1485090e+02   4.9422870e+00
   7.1533300e+02   4.7992860e+00
   7.1581510e+02   5.2472000e+00
   7.1629720e+02   5.4459150e+00
   7.1677940e+02   5.1459850e+00
   7.1726150e+02   4.4978710e+00
   7.1774360e+02   4.0416910e+00
   7.1822570e+02   3.7883150e+00
   7.1870780e+02   3.6777230e+00
   7.1918990e+02   3.7636720e+00
   7.1967210e+02   3.9384380e+00
   7.2015420e+02   3.8523220e+00
   7.2063630e+02   3.5406610e+00
   7.2111840e+02   3.2657050e+00
   7.2160050e+02   3.3609010e+00
   7.2208260e+02   3.4581570e+00
   7.2256480e+02   3.1045680e+00
   7.2304690e+02   2.3211330e+00
   7.2352900e+02   1.7265470e+00
   7.2401110e+02   1.6226500e+00
   7.2449320e+02   1.7002560e+00
   7.2497530e+02   1.8334810e+00
   7.2545750e+02   2.0346340e+00
   7.2593960e+02   2.1606410e+00
   7.2642170e+02   2.1921500e+00
   7.2690380e+02   2.1864400e+00
   7.2738590e+02   2.1774750e+00
   7.2786800e+02   2.1661950e+00
   7.2835020e+02   2.1952860e+00
   7.2883230e+02   2.2810940e+00
   7.2931440e+02   2.2634200e+00
   7.2979650e+02   1.8752860e+00
   7.3027860e+02   1.3222500e+00
   7.3076070e+02   9.1030500e-01
   7.3124290e+02   6.9959600e-01
   7.3172500e+02   5.8917200e-01
   7.3220710e+02   5.4082900e-01
   7.3268920e+02   5.5817000e-01
   7.3317130e+02   6.4516100e-01
   7.3365340e+02   9.5078300e-01
   7.3413560e+02   1.1122280e+00
   7.3461770e+02   1.0986020e+00
   7.3509980e+02   9.6818200e-01
   7.3558190e+02   7.6360300e-01
   7.3606400e+02   4.7177100e-01
   7.3654610e+02   2.6437400e-01
   7.3702830e+02   1.9031100e-01
   7.3751040e+02   1.6155200e-01
   7.3799250e+02   3.3943001e-02
   7.3847460e+02   1.5104700e-01
   7.3895670e+02   2.9244600e-01
   7.3943880e+02   3.5192500e-01
   7.3992100e+02   3.9341700e-01
   7.4040310e+02   5.2220200e-01
   7.4088520e+02   6.4652300e-01
   7.4136730e+02   5.9299900e-01
   7.4184940e+02   6.3460998e-02
   7.4233150e+02   4.3098400e-01
   7.4281370e+02   1.8125200e-01
   7.4329580e+02   4.1901000e-01
   7.4377790e+02   6.0618600e-01
   7.4426000e+02   2.7435300e-01
   7.4474210e+02   1.9910000e-03
   7.4522420e+02   3.3027999e-02
   7.4570640e+02   1.1130900e-01
   7.4618850e+02   3.1580700e-01
   7.4667060e+02   5.5369600e-01
   7.4715270e+02   6.8035100e-01
   7.4763480e+02   5.2694300e-01
   7.4811690e+02   3.0967300e-01
   7.4859910e+02   2.0945400e-01
   7.4908120e+02   1.9352700e-01
   7.4956330e+02   1.6774400e-01
   7.5004540e+02   1.2763200e-01
   7.5052750e+02   8.2886003e-02
   7.5100960e+02   3.6319999e-03
   7.5149180e+02   1.0030000e-01
   7.5197390e+02   7.6889001e-02
   7.5245600e+02   1.2709800e-01
   7.5293810e+02   3.1868400e-01
   7.5342020e+02   4.1687400e-01
   7.5390230e+02   4.2266800e-01
   7.5438450e+02   3.0621700e-01
   7.5486660e+02   7.6545998e-02
   7.5534870e+02   1.0891700e-01
   7.5583080e+02   8.5143998e-02
   7.5631290e+02   1.1154000e-02
   7.5679500e+02   5.3805999e-02
   7.5727720e+02   3.1895000e-02
   7.5775930e+02   7.1067996e-02
   7.5824140e+02   3.9109000e-01
   7.5872350e+02   6.9015100e-01
   7.5920560e+02   8.1134400e-01
   7.5968770e+02   7.1675500e-01
   7.6016990e+02   6.8518400e-01
   7.6065200e+02   7.4123400e-01
   7.6113410e+02   8.1286600e-01
   7.6161620e+02   8.6196500e-01
   7.6209830e+02   8.8564700e-01
   7.6258040e+02   8.4583700e-01
   7.6306260e+02   7.3681300e-01
   7.6354470e+02   5.9565700e-01
   7.6402680e+02   3.3263800e-01
   7.6450890e+02   1.1252200e-01
   7.6499100e+02   2.3954000e-01
   7.6547310e+02   8.3970600e-01
   7.6595530e+02   1.2470970e+00
   7.6643740e+02   9.8451600e-01
   7.6691950e+02   5.8189400e-01
   7.6740160e+02   4.9741700e-01
   7.6788370e+02   9.7233200e-01
   7.6836580e+02   1.1245190e+00
   7.6884800e+02   8.3334700e-01
   7.6933010e+02   4.2625800e-01
   7.6981220e+02   2.0229300e-01
   7.7029430e+02   1.5368700e-01
   7.7077640e+02   2.3040800e-01
   7.7125850e+02   4.4207800e-01
   7.7174070e+02   6.7630400e-01
   7.7222280e+02   8.2349800e-01
   7.7270490e+02   9.1877700e-01
   7.7318700e+02   1.0206990e+00
   7.7366910e+02   1.1715620e+00
   7.7415120e+02   1.2525060e+00
   7.7463340e+02   1.0741420e+00
   7.7511550e+02   8.7911200e-01
   7.7559760e+02   9.4812400e-01
   7.7607970e+02   1.5106540e+00
   7.7656180e+02   1.8584180e+00
   7.7704390e+02   1.9426880e+00
   7.7752610e+02   1.8420070e+00
   7.7800820e+02   1.5513950e+00
   7.7849030e+02   1.1145590e+00
   7.7897240e+02   9.7022200e-01
   7.7945450e+02   1.2687110e+00
   7.7993660e+02   1.6286240e+00
   7.8041880e+02   1.6077380e+00
   7.8090090e+02   1.3729860e+00
   7.8138300e+02   1.1712270e+00
   7.8186510e+02   9.8661800e-01
   7.8234720e+02   9.8641600e-01
   7.8282930e+02   1.3878940e+00
   7.8331150e+02   1.9412920e+00
   7.8379360e+02   2.3164370e+00
   7.8427570e+02   2.5435220e+00
   7.8475780e+02   2.4757580e+00
   7.8523990e+02   1.9909860e+00
   7.8572200e+02   1.3794670e+00
   7.8620410e+02   1.0972750e+00
   7.8668620e+02   1.1161310e+00
   7.8716830e+02   1.2678950e+00
   7.8765050e+02   1.5618060e+00
   7.8813260e+02   1.8420100e+00
   7.8861470e+02   1.9488070e+00
   7.8909680e+02   1.9408610e+00
   7.8957890e+02   1.9072720e+00
   7.9006100e+02   1.8945200e+00
   7.9054320e+02   1.8426970e+00
   7.9102530e+02   1.6867370e+00
   7.9150740e+02   1.5018120e+00
   7.9198950e+02   1.4131200e+00
   7.9247160e+02   1.4546660e+00
   7.9295370e+02   1.4847150e+00
   7.9343590e+02   1.5008700e+00
   7.9391800e+02   1.4654200e+00
   7.9440010e+02   1.2747690e+00
   7.9488220e+02   9.6258200e-01
   7.9536430e+02   6.6280400e-01
   7.9584640e+02   3.5885200e-01
   7.9632860e+02   1.7340500e-01
   7.9681070e+02   2.8791000e-01
   7.9729280e+02   5.7748800e-01
   7.9777490e+02   8.2550400e-01
   7.9825700e+02   9.8356600e-01
   7.9873910e+02   1.0699540e+00
   7.9922130e+02   1.1004260e+00
   7.9970340e+02   1.1065600e+00
   8.0018550e+02   1.0382880e+00
   8.0066760e+02   8.7674300e-01
   8.0114970e+02   7.2625000e-01
   8.0163180e+02   6.2636200e-01
   8.0211400e+02   5.9492900e-01
   8.0259610e+02   6.4810900e-01
   8.0307820e+02   7.3320000e-01
   8.0356030e+02   7.2077200e-01
   8.0404240e+02   4.8325000e-01
   8.0452450e+02   2.4585700e-01
   8.0500670e+02   2.1881900e-01
   8.0548880e+02   3.0232200e-01
   8.0597090e+02   3.0212400e-01
   8.0645300e+02   5.8364999e-02
   8.0693510e+02   1.9635400e-01
   8.0741720e+02   4.7974002e-02
   8.0789940e+02   4.6738400e-01
   8.0838150e+02   6.7033000e-01
   8.0886360e+02   6.5279400e-01
   8.0934570e+02   6.2054400e-01
   8.0982780e+02   6.1840800e-01
   8.1030990e+02   6.0572400e-01
   8.1079210e+02   5.0337200e-01
   8.1127420e+02   3.7070800e-01
   8.1175630e+02   3.2403200e-01
   8.1223840e+02   4.1388700e-01
   8.1272050e+02   6.0378600e-01
   8.1320260e+02   1.0446740e+00
   8.1368480e+02   1.5107880e+00
   8.1416690e+02   1.6208270e+00
   8.1464900e+02   1.1770860e+00
   8.1513110e+02   7.7190000e-01
   8.1561320e+02   4.4502600e-01
   8.1609530e+02   2.3146100e-01
   8.1657750e+02   2.1188000e-01
   8.1705960e+02   3.6831300e-01
   8.1754170e+02   5.9789700e-01
   8.1802380e+02   9.3601600e-01
   8.1850590e+02   1.1885680e+00
   8.1898800e+02   1.0361820e+00
   8.1947020e+02   6.9784900e-01
   8.1995230e+02   5.1177200e-01
   8.2043440e+02   8.2197200e-01
   8.2091650e+02   9.7690200e-01
   8.2139860e+02   6.9834100e-01
   8.2188070e+02   2.7200700e-01
   8.2236290e+02   1.3237000e-02
   8.2284500e+02   7.3680997e-02
   8.2332710e+02   1.2702600e-01
   8.2380920e+02   6.9049100e-01
   8.2429130e+02   1.2848210e+00
   8.2477340e+02   1.5573040e+00
   8.2525560e+02   1.5562060e+00
   8.2573770e+02   1.3585740e+00
   8.2621980e+02   9.0527300e-01
   8.2670190e+02   4.9092100e-01
   8.2718400e+02   2.6479700e-01
   8.2766610e+02   2.0580700e-01
   8.2814830e+02   2.9025700e-01
   8.2863040e+02   6.7623900e-01
   8.2911250e+02   9.9211900e-01
   8.2959460e+02   1.2451060e+00
   8.3007670e+02   1.4106220e+00
   8.3055880e+02   1.4463420e+00
   8.3104100e+02   1.3546220e+00
   8.3152310e+02   1.2105900e+00
   8.3200520e+02   1.0180360e+00
   8.3248730e+02   8.1992000e-01
   8.3296940e+02   6.2561000e-01
   8.3345150e+02   4.9188200e-01
   8.3393370e+02   5.1857400e-01
   8.3441580e+02   7.6884100e-01
   8.3489790e+02   9.4579700e-01
   8.3538000e+02   9.4278000e-01
   8.3586210e+02   8.5875700e-01
   8.3634420e+02   8.0080000e-01
   8.3682640e+02   7.0239600e-01
   8.3730850e+02   6.7881800e-01
   8.3779060e+02   7.6068100e-01
   8.3827270e+02   8.7501900e-01
   8.3875480e+02   9.4039500e-01
   8.3923690e+02   9.6846800e-01
   8.3971910e+02   1.0060040e+00
   8.4020120e+02   1.0602530e+00
   8.4068330e+02   1.0951420e+00
   8.4116540e+02   1.0315820e+00
   8.4164750e+02   9.7210700e-01
   8.4212960e+02   1.0612220e+00
   8.4261180e+02   1.3749770e+00
   8.4309390e+02   1.4603000e+00
   8.4357600e+02   1.1860960e+00
   8.4405810e+02   8.6082500e-01
   8.4454020e+02   6.8718300e-01
   8.4502230e+02   6.6956700e-01
   8.4550450e+02   5.6090500e-01
   8.4598660e+02   3.5145200e-01
   8.4646870e+02   2.3048800e-01
   8.4695080e+02   4.8777000e-01
   8.4743290e+02   8.4997900e-01
   8.4791500e+02   9.2458300e-01
   8.4839720e+02   6.9003300e-01
   8.4887930e+02   4.9299600e-01
   8.4936140e+02   4.0693700e-01
   8.4984350e+02   4.5599400e-01
   8.5032560e+02   7.3302800e-01
   8.5080770e+02   1.2380030e+00
   8.5128990e+02   1.3736420e+00
   8.5177200e+02   1.0531620e+00
   8.5225410e+02   7.3094200e-01
   8.5273620e+02   6.4800300e-01
   8.5321830e+02   6.8360900e-01
   8.5370040e+02   6.6047700e-01
   8.5418260e+02   6.0232900e-01
   8.5466470e+02   5.8928300e-01
   8.5514680e+02   7.3155200e-01
   8.5562890e+02   8.6801500e-01
   8.5611100e+02   9.1369200e-01
   8.5659310e+02   8.6544800e-01
   8.5707530e+02   7.3237200e-01
   8.5755740e+02   3.8963300e-01
   8.5803950e+02   1.9182600e-01
   8.5852160e+02   2.6606000e-01
   8.5900370e+02   5.5346300e-01
   8.5948580e+02   9.4934800e-01
   8.5996800e+02   1.4251400e+00
   8.6045010e+02   1.6875610e+00
   8.6093220e+02   1.4960670e+00
   8.6141430e+02   1.1446840e+00
   8.6189640e+02   8.4871300e-01
   8.6237850e+02   6.2234900e-01
   8.6286070e+02   5.0154500e-01
   8.6334280e+02   6.5587200e-01
   8.6382490e+02   7.1934500e-01
   8.6430700e+02   5.3848300e-01
   8.6478910e+02   2.5542400e-01
   8.6527120e+02   1.8865600e-01
   8.6575340e+02   3.5195200e-01
   8.6623550e+02   4.8928800e-01
   8.6671760e+02   5.3943300e-01
   8.6719970e+02   5.5126600e-01
   8.6768180e+02   6.2540100e-01
   8.6816390e+02   7.0889300e-01
   8.6864610e+02   6.8097700e-01
   8.6912820e+02   3.7891800e-01
   8.6961030e+02   1.9178400e-01
   8.7009240e+02   3.9638500e-01
   8.7057450e+02   7.3315000e-01
   8.7105660e+02   8.6693600e-01
   8.7153880e+02   6.9010900e-01
   8.7202090e+02   6.2875000e-01
   8.7250300e+02   7.2431200e-01
   8.7298510e+02   8.9043800e-01
   8.7346720e+02   1.1151540e+00
   8.7394930e+02   1.3259740e+00
   8.7443150e+02   1.2552110e+00
   8.7491360e+02   8.2469200e-01
   8.7539570e+02   4.3472700e-01
   8.7587780e+02   2.2927100e-01
   8.7635990e+02   2.5525700e-01
   8.7684200e+02   6.6810200e-01
   8.7732420e+02   1.7901950e+00
   8.7780630e+02   2.1438670e+00
   8.7828840e+02   1.4000170e+00
   8.7877050e+02   4.8230400e-01
   8.7925260e+02   5.6568000e-02
   8.7973470e+02   5.9250001e-02
   8.8021690e+02   1.1425000e-01
   8.8069900e+02   4.6006800e-01
   8.8118110e+02   6.0423700e-01
   8.8166320e+02   4.1607000e-02
   8.8214530e+02   6.5123700e-01
   8.8262740e+02   9.3965900e-01
   8.8310960e+02   8.1113400e-01
   8.8359170e+02   6.8724100e-01
   8.8407380e+02   7.0030200e-01
   8.8455590e+02   6.5416700e-01
   8.8503800e+02   4.3473800e-01
   8.8552010e+02   1.0529700e-01
   8.8600230e+02   3.8136002e-02
   8.8648440e+02   2.2980100e-01
   8.8696650e+02   4.4826500e-01
   8.8744860e+02   6.4491300e-01
   8.8793070e+02   7.4704400e-01
   8.8841280e+02   5.8107400e-01
   8.8889500e+02   2.4657400e-01
   8.8937710e+02   5.1270002e-03
   8.8985920e+02   5.8807001e-02
   8.9034130e+02   7.6466002e-02
   8.9082340e+02   1.0377100e-01
   8.9130550e+02   3.3140600e-01
   8.9178770e+02   2.3528700e-01
   8.9226980e+02   2.5005000e-01
   8.9275190e+02   4.1256300e-01
   8.9323400e+02   6.0419999e-03
   8.9371610e+02   5.1594200e-01
   8.9419820e+02   5.0261300e-01
   8.9468040e+02   1.6770600e-01
   8.9516250e+02   9.7198002e-02
   8.9564460e+02   1.5340800e-01
   8.9612670e+02   2.0500200e-01
   8.9660880e+02   3.5687300e-01
   8.9709090e+02   5.1785300e-01
   8.9757310e+02   6.2136100e-01
   8.9805520e+02   7.0020300e-01
   8.9853730e+02   5.4605100e-01
   8.9901940e+02   8.7150998e-02
   8.9950150e+02   3.3701700e-01
   8.9998360e+02   3.3785200e-01
   9.0046580e+02   8.4911004e-02
   9.0094790e+02   7.5026996e-02
   9.0143000e+02   1.0704400e-01
   9.0191210e+02   1.0091800e-01
   9.0239420e+02   3.7617002e-02
   9.0287630e+02   8.8539999e-03
   9.0335850e+02   8.5918002e-02
   9.0384060e+02   2.6693300e-01
   9.0432270e+02   4.8539400e-01
   9.0480480e+02   8.0068200e-01
   9.0528690e+02   9.7060800e-01
   9.0576900e+02   7.9453700e-01
   9.0625120e+02   4.1418800e-01
   9.0673330e+02   1.7874100e-01
   9.0721540e+02   8.2278997e-02
   9.0769750e+02   1.0505300e-01
   9.0817960e+02   5.0673300e-01
   9.0866170e+02   7.5500900e-01
   9.0914390e+02   3.2850300e-01
   9.0962600e+02   4.9071100e-01
   9.1010810e+02   7.7705000e-01
   9.1059020e+02   2.7236900e-01
   9.1107230e+02   1.5405300e-01
   9.1155440e+02   3.2855600e-01
   9.1203660e+02   3.4129700e-01
   9.1251870e+02   3.2841100e-01
   9.1300080e+02   2.9262500e-01
   9.1348290e+02   2.2842000e-01
   9.1396500e+02   9.7942002e-02
   9.1444710e+02   3.3066001e-02
   9.1492930e+02   1.7128000e-01
   9.1541140e+02   3.9723600e-01
   9.1589350e+02   5.8361800e-01
   9.1637560e+02   7.4675800e-01
   9.1685770e+02   8.1132500e-01
   9.1733980e+02   7.4072600e-01
   9.1782200e+02   6.4331400e-01
   9.1830410e+02   6.3115700e-01
   9.1878620e+02   6.8058400e-01
   9.1926830e+02   6.7796700e-01
   9.1975040e+02   6.1687900e-01
   9.2023250e+02   5.9017900e-01
   9.2071470e+02   7.1358500e-01
   9.2119680e+02   8.5977900e-01
   9.2167890e+02   9.3971600e-01
   9.2216100e+02   9.4082300e-01
   9.2264310e+02   8.9650000e-01
   9.2312520e+02   7.4822200e-01
   9.2360740e+02   6.9488500e-01
   9.2408950e+02   8.9300200e-01
   9.2457160e+02   1.2122960e+00
   9.2505370e+02   1.0904430e+00
   9.2553580e+02   6.2845200e-01
   9.2601790e+02   3.2579400e-01
   9.2650010e+02   6.3469700e-01
   9.2698220e+02   9.8906300e-01
   9.2746430e+02   9.7221000e-01
   9.2794640e+02   7.4413300e-01
   9.2842850e+02   6.6474200e-01
   9.2891060e+02   8.3258400e-01
   9.2939280e+02   1.0073780e+00
   9.2987490e+02   1.1743350e+00
   9.3035700e+02   1.3176230e+00
   9.3083910e+02   1.4167790e+00
   9.3132120e+02   1.4732090e+00
   9.3180330e+02   1.4558140e+00
   9.3228550e+02   1.3262480e+00
   9.3276760e+02   1.3084910e+00
   9.3324970e+02   1.7566180e+00
   9.3373180e+02   2.2705120e+00
   9.3421390e+02   2.4670030e+00
   9.3469600e+02   2.1918220e+00
   9.3517820e+02   1.9575650e+00
   9.3566030e+02   1.7509270e+00
   9.3614240e+02   1.6082270e+00
   9.3662450e+02   1.5799900e+00
   9.3710660e+02   1.6322400e+00
   9.3758870e+02   1.6348950e+00
   9.3807090e+02   1.5806160e+00
   9.3855300e+02   1.4825900e+00
   9.3903510e+02   1.3400690e+00
   9.3951720e+02   1.2419170e+00
   9.3999930e+02   1.1777340e+00
   9.4048140e+02   1.1466100e+00
   9.4096360e+02   1.1939890e+00
   9.4144570e+02   1.3977890e+00
   9.4192780e+02   1.4754940e+00
   9.4240990e+02   1.3123090e+00
   9.4289200e+02   1.0526310e+00
   9.4337410e+02   9.6102100e-01
   9.4385630e+02   1.0144500e+00
   9.4433840e+02   1.1510120e+00
   9.4482050e+02   1.3921810e+00
   9.4530260e+02   1.6043320e+00
   9.4578470e+02   1.6796420e+00
   9.4626680e+02   1.6944850e+00
   9.4674900e+02   1.7519260e+00
   9.4723110e+02   1.9802510e+00
   9.4771320e+02   1.8850400e+00
   9.4819530e+02   1.3656960e+00
   9.4867740e+02   8.0136900e-01
   9.4915950e+02   5.5221200e-01
   9.4964170e+02   5.4082100e-01
   9.5012380e+02   5.3181500e-01
   9.5060590e+02   4.9757000e-01
   9.5108800e+02   5.0674100e-01
   9.5157010e+02   5.5009100e-01
   9.5205220e+02   6.7110800e-01
   9.5253440e+02   9.8308200e-01
   9.5301650e+02   1.4199710e+00
   9.5349860e+02   1.5792120e+00
   9.5398070e+02   1.3843570e+00
   9.5446280e+02   1.2509770e+00
   9.5494490e+02   1.3513180e+00
   9.5542710e+02   1.5560380e+00
   9.5590920e+02   1.6802220e+00
   9.5639130e+02   1.7205770e+00
   9.5687340e+02   1.6597630e+00
   9.5735550e+02   1.3319850e+00
   9.5783760e+02   1.1111830e+00
   9.5831980e+02   1.2488860e+00
   9.5880190e+02   1.4951250e+00
   9.5928400e+02   1.5772480e+00
   9.5976610e+02   1.4588430e+00
   9.6024820e+02   1.3834610e+00
   9.6073030e+02   1.3697660e+00
   9.6121250e+02   1.3733900e+00
   9.6169460e+02   1.3321840e+00
   9.6217670e+02   1.2901230e+00
   9.6265880e+02   1.3375930e+00
   9.6314090e+02   1.4800220e+00
   9.6362300e+02   1.5655330e+00
   9.6410520e+02   1.4383540e+00
   9.6458730e+02   1.3581280e+00
   9.6506940e+02   1.4640050e+00
   9.6555150e+02   1.7071300e+00
   9.6603360e+02   1.7466130e+00
   9.6651570e+02   1.5821610e+00
   9.6699790e+02   1.5304990e+00
   9.6748000e+02   1.7643740e+00
   9.6796210e+02   2.0641980e+00
   9.6844420e+02   2.2397270e+00
   9.6892630e+02   2.3151250e+00
   9.6940840e+02   2.3489760e+00
   9.6989060e+02   2.3055150e+00
   9.7037270e+02   2.3075640e+00
   9.7085480e+02   2.4181480e+00
   9.7133690e+02   2.5103110e+00
   9.7181900e+02   2.3900150e+00
   9.7230110e+02   2.0901300e+00
   9.7278330e+02   1.9203830e+00
   9.7326540e+02   1.9081380e+00
   9.7374750e+02   2.0372160e+00
   9.7422960e+02   2.4401630e+00
   9.7471170e+02   2.8679700e+00
   9.7519380e+02   3.0908810e+00
   9.7567600e+02   3.0802690e+00
   9.7615810e+02   3.1269070e+00
   9.7664020e+02   3.2596660e+00
   9.7712230e+02   3.4121700e+00
   9.7760440e+02   3.5355340e+00
   9.7808650e+02   3.6772350e+00
   9.7856870e+02   3.9616010e+00
   9.7905080e+02   4.3751110e+00
   9.7953290e+02   4.8885350e+00
   9.8001500e+02   5.6557080e+00
   9.8049710e+02   6.2809220e+00
   9.8097920e+02   6.3564640e+00
   9.8146140e+02   6.2428700e+00
   9.8194350e+02   6.4815180e+00
   9.8242560e+02   7.2817040e+00
   9.8290770e+02   7.7696760e+00
   9.8338980e+02   7.8450550e+00
   9.8387190e+02   7.8240010e+00
   9.8435400e+02   7.9383540e+00
   9.8483610e+02   8.2168310e+00
   9.8531820e+02   8.8256420e+00
   9.8580040e+02   9.7499200e+00
   9.8628250e+02   1.0526060e+01
   9.8676460e+02   1.0771580e+01
   9.8724670e+02   1.1020380e+01
   9.8772880e+02   1.1548730e+01
   9.8821090e+02   1.2280030e+01
   9.8869310e+02   1.2759350e+01
   9.8917520e+02   1.2974690e+01
   9.8965730e+02   1.3301040e+01
   9.9013940e+02   1.3890840e+01
   9.9062150e+02   1.4673500e+01
   9.9110360e+02   1.5596200e+01
   9.9158580e+02   1.6535470e+01
   9.9206790e+02   1.7365910e+01
   9.9255000e+02   1.8031190e+01
   9.9303210e+02   1.8635670e+01
   9.9351420e+02   1.9154170e+01
   9.9399630e+02   1.9612470e+01
   9.9447850e+02   1.9905350e+01
   9.9496060e+02   2.0094180e+01
   9.9544270e+02   2.0819970e+01
   9.9592480e+02   2.2082410e+01
   9.9640690e+02   2.3184270e+01
   9.9688900e+02   2.3502540e+01
   9.9737120e+02   2.3579490e+01
   9.9785330e+02   2.3743970e+01
   9.9833540e+02   2.3987510e+01
   9.9881750e+02   2.4164630e+01
   9.9929960e+02   2.4221730e+01
   9.9978170e+02   2.4407380e+01
   1.0002640e+03   2.4862140e+01
   1.0007460e+03   2.5342830e+01
   1.0012280e+03   2.5351980e+01
   1.0017100e+03   2.5039500e+01
   1.0021920e+03   2.4700050e+01
   1.0026740e+03   2.4357780e+01
   1.0031570e+03   2.4223810e+01
   1.0036390e+03   2.4915780e+01
   1.0041210e+03   2.5436700e+01
   1.0046030e+03   2.4875450e+01
   1.0050850e+03   2.3018620e+01
   1.0055670e+03   2.1948660e+01
   1.0060490e+03   2.1711530e+01
   1.0065310e+03   2.1590270e+01
   1.0070130e+03   2.1182770e+01
   1.0074960e+03   2.0537590e+01
   1.0079780e+03   1.9579580e+01
   1.0084600e+03   1.8407640e+01
   1.0089420e+03   1.7355460e+01
   1.0094240e+03   1.6756910e+01
   1.0099060e+03   1.5951550e+01
   1.0103880e+03   1.4685260e+01
   1.0108700e+03   1.3313350e+01
   1.0113530e+03   1.2496700e+01
   1.0118350e+03   1.2148190e+01
   1.0123170e+03   1.1898190e+01
   1.0127990e+03   1.1703110e+01
   1.0132810e+03   1.1437440e+01
   1.0137630e+03   1.0986630e+01
   1.0142450e+03   1.0439360e+01
   1.0147270e+03   9.8647160e+00
   1.0152090e+03   9.2583500e+00
   1.0156920e+03   8.6702770e+00
   1.0161740e+03   8.1074330e+00
   1.0166560e+03   7.5275230e+00
   1.0171380e+03   6.7931820e+00
   1.0176200e+03   6.1202240e+00
   1.0181020e+03   6.1645360e+00
   1.0185840e+03   6.6461410e+00
   1.0190660e+03   6.8037260e+00
   1.0195490e+03   5.9676170e+00
   1.0200310e+03   5.2375640e+00
   1.0205130e+03   4.9100910e+00
   1.0209950e+03   4.7782710e+00
   1.0214770e+03   4.6699940e+00
   1.0219590e+03   4.5857700e+00
   1.0224410e+03   4.2464100e+00
   1.0229230e+03   3.6105120e+00
   1.0234050e+03   3.0557520e+00
   1.0238880e+03   2.9738350e+00
   1.0243700e+03   3.0663990e+00
   1.0248520e+03   3.1116520e+00
   1.0253340e+03   3.0851170e+00
   1.0258160e+03   2.9145160e+00
   1.0262980e+03   2.4988520e+00
   1.0267800e+03   2.1920780e+00
   1.0272620e+03   2.1561580e+00
   1.0277450e+03   2.2158360e+00
   1.0282270e+03   1.8850520e+00
   1.0287090e+03   1.3461270e+00
   1.0291910e+03   1.1314770e+00
   1.0296730e+03   1.5539440e+00
   1.0301550e+03   1.9344100e+00
   1.0306370e+03   1.9563980e+00
   1.0311190e+03   1.8185840e+00
   1.0316010e+03   1.6649860e+00
   1.0320840e+03   1.4852100e+00
   1.0325660e+03   1.3914030e+00
   1.0330480e+03   1.3850440e+00
   1.0335300e+03   1.4463730e+00
   1.0340120e+03   1.7425920e+00
   1.0344940e+03   1.9597660e+00
   1.0349760e+03   1.6151620e+00
   1.0354580e+03   8.9452400e-01
   1.0359410e+03   4.1772800e-01
   1.0364230e+03   4.1403600e-01
   1.0369050e+03   5.1916900e-01
   1.0373870e+03   7.5224300e-01
   1.0378690e+03   9.7522000e-01
   1.0383510e+03   9.3603900e-01
   1.0388330e+03   7.1834200e-01
   1.0393150e+03   5.9769800e-01
   1.0397970e+03   6.1434200e-01
   1.0402800e+03   6.9421000e-01
   1.0407620e+03   1.0051500e+00
   1.0412440e+03   1.1631770e+00
   1.0417260e+03   8.1757000e-01
   1.0422080e+03   6.5102004e-02
   1.0426900e+03   3.4057200e-01
   1.0431720e+03   3.8398700e-01
   1.0436540e+03   2.1326400e-01
   1.0441360e+03   2.3074700e-01
   1.0446190e+03   6.6562300e-01
   1.0451010e+03   6.8441400e-01
   1.0455830e+03   4.9220700e-01
   1.0460650e+03   4.3034000e-01
   1.0465470e+03   8.4857900e-01
   1.0470290e+03   8.2814400e-01
   1.0475110e+03   9.3277000e-02
   1.0479930e+03   6.3690900e-01
   1.0484760e+03   6.7767000e-01
   1.0489580e+03   2.3177700e-01
   1.0494400e+03   1.6682100e-01
   1.0499220e+03   4.2849000e-01
   1.0504040e+03   5.5105200e-01
   1.0508860e+03   5.0620999e-02
   1.0513680e+03   4.1105700e-01
   1.0518500e+03   4.8065900e-01
   1.0523330e+03   3.0850600e-01
   1.0528150e+03   1.6655300e-01
   1.0532970e+03   6.0726002e-02
   1.0537790e+03   1.2488900e-01
   1.0542610e+03   4.3914800e-01
   1.0547430e+03   6.6108700e-01
   1.0552250e+03   5.0553900e-01
   1.0557070e+03   1.6654600e-01
   1.0561890e+03   2.0586000e-01
   1.0566720e+03   6.0697600e-01
   1.0571540e+03   7.4762000e-01
   1.0576360e+03   5.1117700e-01
   1.0581180e+03   2.3095300e-01
   1.0586000e+03   2.3506001e-02
   1.0590820e+03   1.8035500e-01
   1.0595640e+03   7.0541002e-02
   1.0600460e+03   5.6895800e-01
   1.0605280e+03   8.4096900e-01
   1.0610110e+03   5.9308200e-01
   1.0614930e+03   3.5273000e-01
   1.0619750e+03   3.4619100e-01
   1.0624570e+03   4.2460600e-01
   1.0629390e+03   4.6763600e-01
   1.0634210e+03   4.6890300e-01
   1.0639030e+03   5.5994800e-01
   1.0643850e+03   7.4217200e-01
   1.0648680e+03   8.5164300e-01
   1.0653500e+03   7.2716100e-01
   1.0658320e+03   5.2906800e-01
   1.0663140e+03   3.4998700e-01
   1.0667960e+03   2.1244800e-01
   1.0672780e+03   1.7341600e-01
   1.0677600e+03   2.9139700e-01
   1.0682420e+03   3.3295800e-01
   1.0687240e+03   2.2356800e-01
   1.0692070e+03   1.6703400e-01
   1.0696890e+03   5.7999800e-01
   1.0701710e+03   1.1676140e+00
   1.0706530e+03   1.3007970e+00
   1.0711350e+03   9.1281900e-01
   1.0716170e+03   5.9987300e-01
   1.0720990e+03   6.1039700e-01
   1.0725810e+03   7.0883600e-01
   1.0730630e+03   8.4515800e-01
   1.0735460e+03   9.9059700e-01
   1.0740280e+03   1.0286290e+00
   1.0745100e+03   9.8193000e-01
   1.0749920e+03   1.0211450e+00
   1.0754740e+03   1.2390290e+00
   1.0759560e+03   1.4273680e+00
   1.0764380e+03   1.4008830e+00
   1.0769200e+03   1.2974210e+00
   1.0774030e+03   1.2373920e+00
   1.0778850e+03   1.2198720e+00
   1.0783670e+03   1.2994960e+00
   1.0788490e+03   1.4874150e+00
   1.0793310e+03   1.6801450e+00
   1.0798130e+03   1.8385660e+00
   1.0802950e+03   1.9461480e+00
   1.0807770e+03   1.9541440e+00
   1.0812600e+03   1.8987620e+00
   1.0817420e+03   1.8626940e+00
   1.0822240e+03   1.7162060e+00
   1.0827060e+03   1.8670690e+00
   1.0831880e+03   2.4684180e+00
   1.0836700e+03   3.1022380e+00
   1.0841520e+03   3.2835010e+00
   1.0846340e+03   3.1614690e+00
   1.0851160e+03   3.1953320e+00
   1.0855990e+03   3.3951760e+00
   1.0860810e+03   3.5761380e+00
   1.0865630e+03   3.5686420e+00
   1.0870450e+03   3.6226310e+00
   1.0875270e+03   3.8656540e+00
   1.0880090e+03   4.2080800e+00
   1.0884910e+03   4.4915810e+00
   1.0889730e+03   4.7134590e+00
   1.0894550e+03   4.7737620e+00
   1.0899380e+03   4.6332240e+00
   1.0904200e+03   4.4831770e+00
   1.0909020e+03   4.3849750e+00
   1.0913840e+03   4.4185300e+00
   1.0918660e+03   4.7528380e+00
   1.0923480e+03   5.3924450e+00
   1.0928300e+03   5.7033200e+00
   1.0933120e+03   5.6217460e+00
   1.0937940e+03   5.5204730e+00
   1.0942770e+03   5.5174100e+00
   1.0947590e+03   5.6173630e+00
   1.0952410e+03   5.9240680e+00
   1.0957230e+03   6.3012050e+00
   1.0962050e+03   6.5006680e+00
   1.0966870e+03   6.2698520e+00
   1.0971690e+03   6.4602620e+00
   1.0976510e+03   7.3758810e+00
   1.0981340e+03   8.1268160e+00
   1.0986160e+03   7.8869440e+00
   1.0990980e+03   7.0460930e+00
   1.0995800e+03   6.9541930e+00
   1.1000620e+03   7.4816170e+00
   1.1005440e+03   8.0717240e+00
   1.1010260e+03   8.5865670e+00
   1.1015080e+03   9.0516240e+00
   1.1019900e+03   9.5142750e+00
   1.1024730e+03   9.8422740e+00
   1.1029550e+03   9.7984850e+00
   1.1034370e+03   9.4235840e+00
   1.1039190e+03   9.5801510e+00
   1.1044010e+03   1.0295260e+01
   1.1048830e+03   1.0815800e+01
   1.1053650e+03   1.0322950e+01
   1.1058470e+03   9.6860850e+00
   1.1063290e+03   9.4766080e+00
   1.1068120e+03   9.6789970e+00
   1.1072940e+03   1.0058740e+01
   1.1077760e+03   1.0662060e+01
   1.1082580e+03   1.1013900e+01
   1.1087400e+03   1.1030870e+01
   1.1092220e+03   1.0938270e+01
   1.1097040e+03   1.0987470e+01
   1.1101860e+03   1.1095600e+01
   1.1106690e+03   1.1188360e+01
   1.1111510e+03   1.1255000e+01
   1.1116330e+03   1.1192850e+01
   1.1121150e+03   1.0939930e+01
   1.1125970e+03   1.0675010e+01
   1.1130790e+03   1.0456870e+01
   1.1135610e+03   1.0330010e+01
   1.1140430e+03   1.0374620e+01
   1.1145260e+03   1.0532760e+01
   1.1150080e+03   1.0690860e+01
   1.1154900e+03   1.0835540e+01
   1.1159720e+03   1.0953910e+01
   1.1164540e+03   1.1120190e+01
   1.1169360e+03   1.1142440e+01
   1.1174180e+03   1.0846290e+01
   1.1179000e+03   1.0331260e+01
   1.1183820e+03   1.0228050e+01
   1.1188650e+03   1.0428100e+01
   1.1193470e+03   1.0425450e+01
   1.1198290e+03   9.6751860e+00
   1.1203110e+03   9.0773120e+00
   1.1207930e+03   9.2231450e+00
   1.1212750e+03   9.5612180e+00
   1.1217570e+03   9.4888880e+00
   1.1222390e+03   8.9741210e+00
   1.1227210e+03   8.8885420e+00
   1.1232040e+03   9.2396740e+00
   1.1236860e+03   9.4245490e+00
   1.1241680e+03   8.7980800e+00
   1.1246500e+03   8.0709800e+00
   1.1251320e+03   7.7943460e+00
   1.1256140e+03   7.8098530e+00
   1.1260960e+03   7.6649590e+00
   1.1265780e+03   7.3391950e+00
   1.1270610e+03   6.8622280e+00
   1.1275430e+03   6.1898350e+00
   1.1280250e+03   5.6800350e+00
   1.1285070e+03   5.8498310e+00
   1.1289890e+03   6.2571980e+00
   1.1294710e+03   6.4767040e+00
   1.1299530e+03   6.4678610e+00
   1.1304350e+03   6.2281760e+00
   1.1309170e+03   5.6465910e+00
   1.1314000e+03   5.1604770e+00
   1.1318820e+03   4.8621030e+00
   1.1323640e+03   4.7063330e+00
   1.1328460e+03   4.7519450e+00
   1.1333280e+03   4.8459470e+00
   1.1338100e+03   4.6831250e+00
   1.1342920e+03   4.1857450e+00
   1.1347740e+03   3.8123660e+00
   1.1352560e+03   3.6950380e+00
   1.1357390e+03   3.6647830e+00
   1.1362210e+03   3.6863710e+00
   1.1367030e+03   3.7338520e+00
   1.1371850e+03   3.7685360e+00
   1.1376670e+03   3.7746930e+00
   1.1381490e+03   3.7210010e+00
   1.1386310e+03   3.6257930e+00
   1.1391130e+03   3.3823510e+00
   1.1395960e+03   2.7533150e+00
   1.1400780e+03   2.1578290e+00
   1.1405600e+03   1.7896610e+00
   1.1410420e+03   1.6559910e+00
   1.1415240e+03   1.9323430e+00
   1.1420060e+03   2.5149350e+00
   1.1424880e+03   2.8232960e+00
   1.1429700e+03   2.4716450e+00
   1.1434530e+03   1.9768910e+00
   1.1439350e+03   1.4353600e+00
   1.1444170e+03   1.0052530e+00
   1.1448990e+03   8.5936700e-01
   1.1453810e+03   1.0222660e+00
   1.1458630e+03   1.1622120e+00
   1.1463450e+03   1.2771640e+00
   1.1468270e+03   1.3049810e+00
   1.1473090e+03   1.0877270e+00
   1.1477920e+03   8.8580300e-01
   1.1482740e+03   1.0045700e+00
   1.1487560e+03   1.2228580e+00
   1.1492380e+03   1.0905610e+00
   1.1497200e+03   4.7983200e-01
   1.1502020e+03   2.1511100e-01
   1.1506840e+03   3.6643200e-01
   1.1511660e+03   5.7039600e-01
   1.1516480e+03   4.9078000e-01
   1.1521310e+03   3.4013400e-01
   1.1526130e+03   3.9061700e-01
   1.1530950e+03   5.5075800e-01
   1.1535770e+03   4.0619300e-01
   1.1540590e+03   2.1784600e-01
   1.1545410e+03   6.0446200e-01
   1.1550230e+03   6.4543200e-01
   1.1555050e+03   4.8151800e-01
   1.1559880e+03   1.0385900e-01
   1.1564700e+03   2.8293600e-01
   1.1569520e+03   4.0164900e-01
   1.1574340e+03   2.4439600e-01
   1.1579160e+03   2.3750000e-02
   1.1583980e+03   3.3292800e-01
   1.1588800e+03   4.8201800e-01
   1.1593620e+03   2.8020100e-01
   1.1598440e+03   2.8880001e-03
   1.1603270e+03   1.2896700e-01
   1.1608090e+03   4.1448200e-01
   1.1612910e+03   3.3706300e-01
   1.1617730e+03   2.2467800e-01
   1.1622550e+03   4.8692700e-01
   1.1627370e+03   6.9576003e-02
   1.1632190e+03   2.1913900e-01
   1.1637010e+03   6.3499004e-02
   1.1641830e+03   3.0444000e-01
   1.1646660e+03   4.2336700e-01
   1.1651480e+03   3.7032700e-01
   1.1656300e+03   3.2460000e-01
   1.1661120e+03   3.3647200e-01
   1.1665940e+03   3.1806900e-01
   1.1670760e+03   2.0347600e-01
   1.1675580e+03   1.1143100e-01
   1.1680400e+03   7.8087002e-02
   1.1685230e+03   1.1732100e-01
   1.1690050e+03   2.9645900e-01
   1.1694870e+03   5.8778000e-01
   1.1699690e+03   9.3917500e-01
   1.1704510e+03   1.5028000e+00
   1.1709330e+03   1.7181020e+00
   1.1714150e+03   8.8700100e-01
   1.1718970e+03   1.9333300e-01
   1.1723800e+03   5.1713200e-01
   1.1728620e+03   1.5940250e+00
   1.1733440e+03   1.8238750e+00
   1.1738260e+03   1.3662150e+00
   1.1743080e+03   9.9526200e-01
   1.1747900e+03   1.2224920e+00
   1.1752720e+03   1.3501050e+00
   1.1757540e+03   8.6233500e-01
   1.1762360e+03   3.5883300e-01
   1.1767190e+03   4.1732400e-01
   1.1772010e+03   1.0017360e+00
   1.1776830e+03   1.0945430e+00
   1.1781650e+03   7.5642800e-01
   1.1786470e+03   4.7554000e-01
   1.1791290e+03   5.4217500e-01
   1.1796110e+03   7.1870400e-01
   1.1800930e+03   1.0248990e+00
   1.1805750e+03   1.2943690e+00
   1.1810580e+03   1.2826730e+00
   1.1815400e+03   9.8974600e-01
   1.1820220e+03   9.9957700e-01
   1.1825040e+03   1.3129770e+00
   1.1829860e+03   1.5039330e+00
   1.1834680e+03   1.0206220e+00
   1.1839500e+03   6.2259700e-01
   1.1844320e+03   8.9766700e-01
   1.1849150e+03   1.4797940e+00
   1.1853970e+03   1.8248670e+00
   1.1858790e+03   1.9292110e+00
   1.1863610e+03   1.7586750e+00
   1.1868430e+03   1.3066370e+00
   1.1873250e+03   9.6024700e-01
   1.1878070e+03   1.0937650e+00
   1.1882890e+03   1.3451390e+00
   1.1887710e+03   1.5685650e+00
   1.1892540e+03   1.6910400e+00
   1.1897360e+03   1.4645730e+00
   1.1902180e+03   8.4847600e-01
   1.1907000e+03   7.0298000e-01
   1.1911820e+03   1.1638600e+00
   1.1916640e+03   1.7184180e+00
   1.1921460e+03   2.0949400e+00
   1.1926280e+03   2.2475400e+00
   1.1931100e+03   1.9213330e+00
   1.1935930e+03   1.3446430e+00
   1.1940750e+03   1.3590350e+00
   1.1945570e+03   2.0250550e+00
   1.1950390e+03   2.4838710e+00
   1.1955210e+03   2.5680810e+00
   1.1960030e+03   2.5087240e+00
   1.1964850e+03   2.5046460e+00
   1.1969670e+03   2.4515300e+00
   1.1974500e+03   2.1222800e+00
   1.1979320e+03   1.6296420e+00
   1.1984140e+03   1.6862950e+00
   1.1988960e+03   2.3478810e+00
   1.1993780e+03   2.9138600e+00
   1.1998600e+03   3.2212030e+00
   1.2003420e+03   3.3562620e+00
   1.2008240e+03   3.1605000e+00
   1.2013070e+03   3.0165140e+00
   1.2017890e+03   3.4907880e+00
   1.2022710e+03   4.4787710e+00
   1.2027530e+03   4.5258670e+00
   1.2032350e+03   3.5350460e+00
   1.2037170e+03   2.9520840e+00
   1.2041990e+03   3.2982980e+00
   1.2046810e+03   3.8331300e+00
   1.2051630e+03   3.9106220e+00
   1.2056460e+03   3.7611310e+00
   1.2061280e+03   3.5695270e+00
   1.2066100e+03   3.3553660e+00
   1.2070920e+03   3.2254220e+00
   1.2075740e+03   3.1747630e+00
   1.2080560e+03   3.2354090e+00
   1.2085380e+03   3.4660640e+00
   1.2090200e+03   3.7034260e+00
   1.2095020e+03   3.8463550e+00
   1.2099850e+03   3.8643570e+00
   1.2104670e+03   3.6444930e+00
   1.2109490e+03   3.1893580e+00
   1.2114310e+03   3.0112270e+00
   1.2119130e+03   3.1030460e+00
   1.2123950e+03   3.1589280e+00
   1.2128770e+03   3.0611420e+00
   1.2133590e+03   2.9535370e+00
   1.2138420e+03   3.0755730e+00
   1.2143240e+03   3.2003020e+00
   1.2148060e+03   2.9696390e+00
   1.2152880e+03   2.3352130e+00
   1.2157700e+03   2.1704860e+00
   1.2162520e+03   2.4761050e+00
   1.2167340e+03   2.8080860e+00
   1.2172160e+03   2.9936870e+00
   1.2176980e+03   3.1085620e+00
   1.2181810e+03   3.2652090e+00
   1.2186630e+03   3.3106650e+00
   1.2191450e+03   3.0180360e+00
   1.2196270e+03   2.3525390e+00
   1.2201090e+03   2.1924590e+00
   1.2205910e+03   2.5406420e+00
   1.2210730e+03   2.7941090e+00
   1.2215550e+03   2.5870630e+00
   1.2220370e+03   2.3342670e+00
   1.2225200e+03   2.3365100e+00
   1.2230020e+03   2.4746170e+00
   1.2234840e+03   2.6156200e+00
   1.2239660e+03   2.7625850e+00
   1.2244480e+03   2.7780610e+00
   1.2249300e+03   2.6638070e+00
   1.2254120e+03   2.7406770e+00
   1.2258940e+03   3.4420890e+00
   1.2263770e+03   4.0673560e+00
   1.2268590e+03   4.0659480e+00
   1.2273410e+03   3.7304760e+00
   1.2278230e+03   3.4058490e+00
   1.2283050e+03   3.0833970e+00
   1.2287870e+03   3.0331380e+00
   1.2292690e+03   3.2308350e+00
   1.2297510e+03   3.2033460e+00
   1.2302340e+03   2.3386340e+00
   1.2307160e+03   1.5777320e+00
   1.2311980e+03   1.6650280e+00
   1.2316800e+03   2.0478520e+00
   1.2321620e+03   2.0412060e+00
   1.2326440e+03   1.6181490e+00
   1.2331260e+03   1.4390950e+00
   1.2336080e+03   1.4876710e+00
   1.2340900e+03   1.5951460e+00
   1.2345730e+03   1.8416940e+00
   1.2350550e+03   1.9239430e+00
   1.2355370e+03   1.4379270e+00
   1.2360190e+03   8.7990200e-01
   1.2365010e+03   8.0379500e-01
   1.2369830e+03   1.1943820e+00
   1.2374650e+03   1.4702190e+00
   1.2379470e+03   1.6164860e+00
   1.2384290e+03   1.5522990e+00
   1.2389120e+03   9.3107200e-01
   1.2393940e+03   4.5449100e-01
   1.2398760e+03   5.3771600e-01
   1.2403580e+03   8.0878800e-01
   1.2408400e+03   9.4894000e-01
   1.2413220e+03   9.6675100e-01
   1.2418040e+03   8.8962900e-01
   1.2422860e+03   7.3751800e-01
   1.2427690e+03   6.6323900e-01
   1.2432510e+03   9.0013100e-01
   1.2437330e+03   1.0162010e+00
   1.2442150e+03   7.6768100e-01
   1.2446970e+03   4.9577000e-01
   1.2451790e+03   6.1147300e-01
   1.2456610e+03   9.9420500e-01
   1.2461430e+03   1.0463980e+00
   1.2466250e+03   8.3158900e-01
   1.2471080e+03   7.7990000e-01
   1.2475900e+03   1.4877200e+00
   1.2480720e+03   1.7512820e+00
   1.2485540e+03   1.0977970e+00
   1.2490360e+03   3.9047600e-01
   1.2495180e+03   6.9315300e-01
   1.2500000e+03   1.5877110e+00
   1.2504820e+03   1.8429990e+00
   1.2509640e+03   1.5391270e+00
   1.2514470e+03   1.1451570e+00
   1.2519290e+03   6.1456300e-01
   1.2524110e+03   3.7007100e-01
   1.2528930e+03   5.2202200e-01
   1.2533750e+03   7.9947700e-01
   1.2538570e+03   1.0226710e+00
   1.2543390e+03   1.1415710e+00
   1.2548210e+03   9.7941600e-01
   1.2553040e+03   6.2275300e-01
   1.2557860e+03   3.7928800e-01
   1.2562680e+03   3.9654200e-01
   1.2567500e+03   3.9929600e-01
   1.2572320e+03   3.3593800e-01
   1.2577140e+03   3.7826500e-01
   1.2581960e+03   9.2786000e-01
   1.2586780e+03   1.5079570e+00
   1.2591610e+03   1.2501530e+00
   1.2596430e+03   4.4749100e-01
   1.2601250e+03   1.0219600e-01
   1.2606070e+03   5.5087300e-01
   1.2610890e+03   7.2570000e-01
   1.2615710e+03   4.9975200e-01
   1.2620530e+03   3.8218300e-01
   1.2625350e+03   1.1263010e+00
   1.2630170e+03   1.9111600e+00
   1.2635000e+03   1.7269670e+00
   1.2639820e+03   9.4138000e-01
   1.2644640e+03   5.4101200e-01
   1.2649460e+03   6.6383000e-01
   1.2654280e+03   6.6124700e-01
   1.2659100e+03   4.9243500e-01
   1.2663920e+03   3.4163300e-01
   1.2668740e+03   3.2888400e-01
   1.2673560e+03   4.0872200e-01
   1.2678390e+03   6.3159200e-01
   1.2683210e+03   8.8810000e-01
   1.2688030e+03   9.9789400e-01
   1.2692850e+03   9.5931200e-01
   1.2697670e+03   7.5108300e-01
   1.2702490e+03   3.8276700e-01
   1.2707310e+03   1.2384800e-01
   1.2712130e+03   9.6744999e-02
   1.2716960e+03   2.8169600e-01
   1.2721780e+03   1.0471610e+00
   1.2726600e+03   1.7455830e+00
   1.2731420e+03   1.4786380e+00
   1.2736240e+03   3.8774900e-01
   1.2741060e+03   1.5140200e-01
   1.2745880e+03   1.3091700e-01
   1.2750700e+03   1.1453200e-01
   1.2755520e+03   7.2443800e-01
   1.2760350e+03   1.0979580e+00
   1.2765170e+03   1.0058020e+00
   1.2769990e+03   7.3332200e-01
   1.2774810e+03   4.5425400e-01
   1.2779630e+03   2.3952100e-01
   1.2784450e+03   4.8700300e-01
   1.2789270e+03   1.0655900e+00
   1.2794090e+03   1.3828200e+00
   1.2798910e+03   9.0394600e-01
   1.2803740e+03   5.9754200e-01
   1.2808560e+03   6.0945900e-01
   1.2813380e+03   7.2760400e-01
   1.2818200e+03   8.5161200e-01
   1.2823020e+03   9.0680700e-01
   1.2827840e+03   6.2910100e-01
   1.2832660e+03   1.6535600e-01
   1.2837480e+03   5.5842999e-02
   1.2842300e+03   2.8562500e-01
   1.2847130e+03   3.6658100e-01
   1.2851950e+03   8.0054998e-02
   1.2856770e+03   8.6062998e-02
   1.2861590e+03   4.6521800e-01
   1.2866410e+03   1.1516490e+00
   1.2871230e+03   1.2397580e+00
   1.2876050e+03   9.5127100e-01
   1.2880870e+03   7.6524000e-01
   1.2885700e+03   7.7361300e-01
   1.2890520e+03   6.0981400e-01
   1.2895340e+03   2.5640900e-01
   1.2900160e+03   5.5200001e-03
   1.2904980e+03   5.6561001e-02
   1.2909800e+03   2.2423900e-01
   1.2914620e+03   3.8523500e-01
   1.2919440e+03   5.3916200e-01
   1.2924270e+03   7.7014900e-01
   1.2929090e+03   1.0723460e+00
   1.2933910e+03   1.2070120e+00
   1.2938730e+03   1.1825640e+00
   1.2943550e+03   1.0853080e+00
   1.2948370e+03   9.4643000e-01
   1.2953190e+03   7.7632900e-01
   1.2958010e+03   5.4098900e-01
   1.2962830e+03   3.1099700e-01
   1.2967660e+03   1.2330200e-01
   1.2972480e+03   3.0670001e-03
   1.2977300e+03   0.0000000e+00
   1.5000000e+03   0.0000000e+00
