   1.0000000e+02   0.0000000e+00
   1.5774140e+02   0.0000000e+00
   1.5822350e+02   1.3738770e+01
   1.5870560e+02   1.4608890e+01
   1.5918770e+02   3.0321290e+01
   1.5966980e+02   8.0277830e+01
   1.6015190e+02   7.3730470e+01
   1.6063410e+02   3.5337400e+01
   1.6111620e+02   5.7944340e+00
   1.6159830e+02   4.1479490e+00
   1.6208040e+02   2.0898930e+01
   1.6256250e+02   3.9705080e+01
   1.6304460e+02   2.5269530e+01
   1.6352680e+02   3.3271480e+00
   1.6400890e+02   9.9350590e+00
   1.6449100e+02   1.3038570e+01
   1.6497310e+02   6.4044920e+01
   1.6545520e+02   1.4731450e+02
   1.6593730e+02   2.9482520e+02
   1.6641950e+02   4.3018900e+02
   1.6690160e+02   5.3324850e+02
   1.6738370e+02   6.0108690e+02
   1.6786580e+02   6.1687400e+02
   1.6834790e+02   5.2198880e+02
   1.6883000e+02   3.8853030e+02
   1.6931220e+02   2.9041650e+02
   1.6979430e+02   2.8214600e+02
   1.7027640e+02   2.9829150e+02
   1.7075850e+02   2.9174320e+02
   1.7124060e+02   2.5825680e+02
   1.7172270e+02   2.4377390e+02
   1.7220490e+02   3.0624320e+02
   1.7268700e+02   4.0832520e+02
   1.7316910e+02   4.7977780e+02
   1.7365120e+02   4.5542920e+02
   1.7413330e+02   4.0552780e+02
   1.7461540e+02   3.9215430e+02
   1.7509760e+02   4.3453610e+02
   1.7557970e+02   4.8166360e+02
   1.7606180e+02   4.8611570e+02
   1.7654390e+02   4.5454390e+02
   1.7702600e+02   4.1218360e+02
   1.7750810e+02   3.5845460e+02
   1.7799030e+02   3.0717290e+02
   1.7847240e+02   2.8149460e+02
   1.7895450e+02   3.0191550e+02
   1.7943660e+02   3.3619680e+02
   1.7991870e+02   3.4446040e+02
   1.8040080e+02   3.2746290e+02
   1.8088300e+02   3.0143460e+02
   1.8136510e+02   2.7928270e+02
   1.8184720e+02   2.5872170e+02
   1.8232930e+02   2.3403030e+02
   1.8281140e+02   2.0185890e+02
   1.8329350e+02   1.6422800e+02
   1.8377570e+02   1.1978420e+02
   1.8425780e+02   6.5767580e+01
   1.8473990e+02   2.0576170e+01
   1.8522200e+02   1.7715330e+01
   1.8570410e+02   4.9402830e+01
   1.8618620e+02   7.3255860e+01
   1.8666840e+02   5.3152340e+01
   1.8715050e+02   6.3344730e+00
   1.8763260e+02   1.3588870e+01
   1.8811470e+02   8.4438480e+00
   1.8859680e+02   4.4315430e+01
   1.8907900e+02   4.0893550e+01
   1.8956110e+02   9.2334000e-01
   1.9004320e+02   4.3628420e+01
   1.9052530e+02   5.9728520e+01
   1.9100740e+02   5.2031740e+01
   1.9148950e+02   3.5305180e+01
   1.9197170e+02   8.8447270e+00
   1.9245380e+02   2.2868160e+01
   1.9293590e+02   4.6784670e+01
   1.9341800e+02   6.1708010e+01
   1.9390010e+02   7.5798340e+01
   1.9438220e+02   9.8902340e+01
   1.9486440e+02   1.3045210e+02
   1.9534650e+02   1.6225590e+02
   1.9582860e+02   1.9148190e+02
   1.9631070e+02   2.1857030e+02
   1.9679280e+02   2.4417290e+02
   1.9727490e+02   2.6429050e+02
   1.9775710e+02   2.9255710e+02
   1.9823920e+02   3.5484280e+02
   1.9872130e+02   4.5278810e+02
   1.9920340e+02   5.5549800e+02
   1.9968550e+02   6.5031690e+02
   2.0016760e+02   7.3799270e+02
   2.0064980e+02   8.1285790e+02
   2.0113190e+02   8.6917190e+02
   2.0161400e+02   9.1715230e+02
   2.0209610e+02   9.8273730e+02
   2.0257820e+02   1.0681020e+03
   2.0306030e+02   1.1610040e+03
   2.0354250e+02   1.2551830e+03
   2.0402460e+02   1.3496570e+03
   2.0450670e+02   1.4482090e+03
   2.0498880e+02   1.5501510e+03
   2.0547090e+02   1.6563540e+03
   2.0595300e+02   1.7751190e+03
   2.0643520e+02   1.9117900e+03
   2.0691730e+02   2.0487620e+03
   2.0739940e+02   2.1680250e+03
   2.0788150e+02   2.2654480e+03
   2.0836360e+02   2.3658650e+03
   2.0884570e+02   2.4765300e+03
   2.0932790e+02   2.5976190e+03
   2.0981000e+02   2.7172640e+03
   2.1029210e+02   2.8342560e+03
   2.1077420e+02   2.9528020e+03
   2.1125630e+02   3.0797920e+03
   2.1173840e+02   3.2177570e+03
   2.1222060e+02   3.3592860e+03
   2.1270270e+02   3.5044480e+03
   2.1318480e+02   3.6567520e+03
   2.1366690e+02   3.7966470e+03
   2.1414900e+02   3.9211510e+03
   2.1463110e+02   4.0360210e+03
   2.1511330e+02   4.1548330e+03
   2.1559540e+02   4.2765540e+03
   2.1607750e+02   4.4021960e+03
   2.1655960e+02   4.5359620e+03
   2.1704170e+02   4.6846930e+03
   2.1752380e+02   4.8149700e+03
   2.1800600e+02   4.9266500e+03
   2.1848810e+02   5.0184180e+03
   2.1897020e+02   5.0774140e+03
   2.1945230e+02   5.0977640e+03
   2.1993440e+02   5.0977230e+03
   2.2041650e+02   5.0921440e+03
   2.2089870e+02   5.0904090e+03
   2.2138080e+02   5.0563910e+03
   2.2186290e+02   4.9777710e+03
   2.2234500e+02   4.8550460e+03
   2.2282710e+02   4.7355670e+03
   2.2330920e+02   4.6239860e+03
   2.2379140e+02   4.5109040e+03
   2.2427350e+02   4.3878040e+03
   2.2475560e+02   4.2510460e+03
   2.2523770e+02   4.1108150e+03
   2.2571980e+02   3.9667110e+03
   2.2620200e+02   3.8185760e+03
   2.2668410e+02   3.6763250e+03
   2.2716620e+02   3.5431280e+03
   2.2764830e+02   3.4161840e+03
   2.2813040e+02   3.2943950e+03
   2.2861250e+02   3.1752070e+03
   2.2909470e+02   3.0637250e+03
   2.2957680e+02   2.9632510e+03
   2.3005890e+02   2.8839090e+03
   2.3054100e+02   2.7870130e+03
   2.3102310e+02   2.6569950e+03
   2.3150520e+02   2.5146650e+03
   2.3198740e+02   2.4120460e+03
   2.3246950e+02   2.3732560e+03
   2.3295160e+02   2.3398680e+03
   2.3343370e+02   2.2820040e+03
   2.3391580e+02   2.1860670e+03
   2.3439790e+02   2.0956650e+03
   2.3488010e+02   2.0141550e+03
   2.3536220e+02   1.9404890e+03
   2.3584430e+02   1.8638820e+03
   2.3632640e+02   1.7852310e+03
   2.3680850e+02   1.7014460e+03
   2.3729060e+02   1.6080910e+03
   2.3777280e+02   1.4948490e+03
   2.3825490e+02   1.3926110e+03
   2.3873700e+02   1.3058460e+03
   2.3921910e+02   1.2349460e+03
   2.3970120e+02   1.1754160e+03
   2.4018330e+02   1.1413960e+03
   2.4066550e+02   1.1045950e+03
   2.4114760e+02   1.0348030e+03
   2.4162970e+02   9.0619820e+02
   2.4211180e+02   7.9150490e+02
   2.4259390e+02   7.0940620e+02
   2.4307600e+02   6.6467140e+02
   2.4355820e+02   6.0961280e+02
   2.4404030e+02   5.3435210e+02
   2.4452240e+02   4.5641600e+02
   2.4500450e+02   3.9994340e+02
   2.4548660e+02   3.7722460e+02
   2.4596880e+02   3.5538770e+02
   2.4645090e+02   3.2342040e+02
   2.4693300e+02   2.7564310e+02
   2.4741510e+02   2.3921880e+02
   2.4789720e+02   2.1701950e+02
   2.4837930e+02   2.0388330e+02
   2.4886150e+02   1.9052390e+02
   2.4934360e+02   1.7434960e+02
   2.4982570e+02   1.6226320e+02
   2.5030780e+02   1.5581590e+02
   2.5078990e+02   1.5268160e+02
   2.5127200e+02   1.6169340e+02
   2.5175420e+02   1.9039650e+02
   2.5223630e+02   2.2946340e+02
   2.5271840e+02   2.5140580e+02
   2.5320050e+02   2.4692240e+02
   2.5368260e+02   2.3880420e+02
   2.5416470e+02   2.3722610e+02
   2.5464690e+02   2.3966850e+02
   2.5512900e+02   2.5497900e+02
   2.5561110e+02   2.8663620e+02
   2.5609320e+02   3.3160210e+02
   2.5657530e+02   3.7333500e+02
   2.5705740e+02   4.0367580e+02
   2.5753960e+02   4.4226420e+02
   2.5802170e+02   5.0618990e+02
   2.5850380e+02   6.1173140e+02
   2.5898590e+02   7.0336620e+02
   2.5946800e+02   7.6406840e+02
   2.5995010e+02   7.9983010e+02
   2.6043230e+02   8.6761820e+02
   2.6091440e+02   9.8105810e+02
   2.6139650e+02   1.1071290e+03
   2.6187860e+02   1.2165440e+03
   2.6236070e+02   1.2995340e+03
   2.6284280e+02   1.3891990e+03
   2.6332500e+02   1.4934320e+03
   2.6380710e+02   1.6120680e+03
   2.6428920e+02   1.7236900e+03
   2.6477130e+02   1.8225280e+03
   2.6525340e+02   1.9235050e+03
   2.6573550e+02   2.0420210e+03
   2.6621770e+02   2.1832710e+03
   2.6669980e+02   2.3306670e+03
   2.6718190e+02   2.4842200e+03
   2.6766400e+02   2.6417300e+03
   2.6814610e+02   2.7908750e+03
   2.6862820e+02   2.9204460e+03
   2.6911040e+02   3.0525800e+03
   2.6959250e+02   3.2257600e+03
   2.7007460e+02   3.4547250e+03
   2.7055670e+02   3.6756320e+03
   2.7103880e+02   3.8618870e+03
   2.7152090e+02   4.0081220e+03
   2.7200310e+02   4.1685400e+03
   2.7248520e+02   4.3552800e+03
   2.7296730e+02   4.5418210e+03
   2.7344940e+02   4.6874630e+03
   2.7393150e+02   4.7864900e+03
   2.7441360e+02   4.8626510e+03
   2.7489580e+02   4.9367420e+03
   2.7537790e+02   5.0176890e+03
   2.7586000e+02   5.0109680e+03
   2.7634210e+02   4.8993640e+03
   2.7682420e+02   4.7228870e+03
   2.7730630e+02   4.5559940e+03
   2.7778850e+02   4.4024080e+03
   2.7827060e+02   4.2433390e+03
   2.7875270e+02   4.0680150e+03
   2.7923480e+02   3.8757820e+03
   2.7971690e+02   3.6598430e+03
   2.8019900e+02   3.4120610e+03
   2.8068120e+02   3.1534740e+03
   2.8116330e+02   2.9341650e+03
   2.8164540e+02   2.7557410e+03
   2.8212750e+02   2.5919240e+03
   2.8260960e+02   2.4252660e+03
   2.8309170e+02   2.2548060e+03
   2.8357390e+02   2.0991490e+03
   2.8405600e+02   1.9654580e+03
   2.8453810e+02   1.8479490e+03
   2.8502020e+02   1.7275830e+03
   2.8550230e+02   1.6018550e+03
   2.8598440e+02   1.4807420e+03
   2.8646660e+02   1.3703140e+03
   2.8694870e+02   1.2701370e+03
   2.8743080e+02   1.1834070e+03
   2.8791290e+02   1.1186680e+03
   2.8839500e+02   1.0650080e+03
   2.8887710e+02   9.8861770e+02
   2.8935930e+02   8.8707180e+02
   2.8984140e+02   7.8898730e+02
   2.9032350e+02   7.2084520e+02
   2.9080560e+02   6.8001460e+02
   2.9128770e+02   6.3722020e+02
   2.9176990e+02   5.8171000e+02
   2.9225200e+02   5.2418410e+02
   2.9273410e+02   4.9438770e+02
   2.9321620e+02   4.9509330e+02
   2.9369830e+02   5.0155710e+02
   2.9418050e+02   4.8516800e+02
   2.9466260e+02   4.4711910e+02
   2.9514470e+02   4.1301900e+02
   2.9562680e+02   3.8987110e+02
   2.9610890e+02   3.7485890e+02
   2.9659100e+02   3.6252250e+02
   2.9707320e+02   3.5290580e+02
   2.9755530e+02   3.4279590e+02
   2.9803740e+02   3.2721390e+02
   2.9851950e+02   3.0839110e+02
   2.9900160e+02   2.9421190e+02
   2.9948370e+02   2.9039700e+02
   2.9996590e+02   2.9070800e+02
   3.0044800e+02   2.8310550e+02
   3.0093010e+02   2.6770310e+02
   3.0141220e+02   2.5201610e+02
   3.0189430e+02   2.4108350e+02
   3.0237640e+02   2.3485110e+02
   3.0285860e+02   2.3353420e+02
   3.0334070e+02   2.4019730e+02
   3.0382280e+02   2.5092090e+02
   3.0430490e+02   2.6055620e+02
   3.0478700e+02   2.7177780e+02
   3.0526910e+02   2.7851460e+02
   3.0575130e+02   2.8472070e+02
   3.0623340e+02   2.8954350e+02
   3.0671550e+02   2.9363130e+02
   3.0719760e+02   2.8466940e+02
   3.0767970e+02   2.7414010e+02
   3.0816180e+02   2.6969140e+02
   3.0864400e+02   2.6738040e+02
   3.0912610e+02   2.7807710e+02
   3.0960820e+02   3.0551460e+02
   3.1009030e+02   3.4286820e+02
   3.1057240e+02   3.7259470e+02
   3.1105450e+02   3.9358590e+02
   3.1153670e+02   4.0369430e+02
   3.1201880e+02   3.9634180e+02
   3.1250090e+02   3.6710640e+02
   3.1298300e+02   3.3948140e+02
   3.1346510e+02   3.2917480e+02
   3.1394720e+02   3.2906880e+02
   3.1442940e+02   3.2902440e+02
   3.1491150e+02   3.2743650e+02
   3.1539360e+02   3.2322460e+02
   3.1587570e+02   3.1613040e+02
   3.1635780e+02   3.0656980e+02
   3.1683990e+02   2.9413280e+02
   3.1732210e+02   2.7872410e+02
   3.1780420e+02   2.6010250e+02
   3.1828630e+02   2.3798490e+02
   3.1876840e+02   2.0679100e+02
   3.1925050e+02   1.7690820e+02
   3.1973260e+02   1.5096580e+02
   3.2021480e+02   1.2959620e+02
   3.2069690e+02   1.2116650e+02
   3.2117900e+02   1.3888230e+02
   3.2166110e+02   1.6546830e+02
   3.2214320e+02   1.8047220e+02
   3.2262530e+02   1.7423930e+02
   3.2310750e+02   1.5891500e+02
   3.2358960e+02   1.3356980e+02
   3.2407170e+02   9.4136230e+01
   3.2455380e+02   6.8545900e+01
   3.2503590e+02   7.5737300e+01
   3.2551800e+02   9.5989750e+01
   3.2600020e+02   1.0534230e+02
   3.2648230e+02   9.3657230e+01
   3.2696440e+02   7.6750980e+01
   3.2744650e+02   5.6751950e+01
   3.2792860e+02   3.1241210e+01
   3.2841070e+02   1.4898930e+01
   3.2889290e+02   2.0104980e+01
   3.2937500e+02   3.1854490e+01
   3.2985710e+02   3.1630860e+01
   3.3033920e+02   8.1250000e+00
   3.3082130e+02   1.6478030e+01
   3.3130340e+02   4.1058590e+01
   3.3178560e+02   7.0314940e+01
   3.3226770e+02   7.9870610e+01
   3.3274980e+02   5.4058590e+01
   3.3323190e+02   1.6600100e+01
   3.3371400e+02   3.5595700e+00
   3.3419610e+02   4.4091800e+00
   3.3467830e+02   1.6040530e+01
   3.3516040e+02   2.8035640e+01
   3.3564250e+02   4.2442380e+01
   3.3612460e+02   4.5615720e+01
   3.3660670e+02   3.0525390e+01
   3.3708880e+02   1.0506350e+01
   3.3757100e+02   3.7685550e+00
   3.3805310e+02   1.8072750e+01
   3.3853520e+02   2.8910160e+01
   3.3901730e+02   2.9709470e+01
   3.3949940e+02   1.9873540e+01
   3.3998150e+02   5.6386720e+00
   3.4046370e+02   1.8963380e+01
   3.4094580e+02   3.9150880e+01
   3.4142790e+02   3.1866210e+01
   3.4191000e+02   1.1422850e+01
   3.4239210e+02   4.6173830e+01
   3.4287420e+02   5.9021970e+01
   3.4335640e+02   5.0638180e+01
   3.4383850e+02   3.4212400e+01
   3.4432060e+02   6.9658200e+00
   3.4480270e+02   2.0427250e+01
   3.4528480e+02   3.2767090e+01
   3.4576690e+02   2.9661620e+01
   3.4624910e+02   2.7946780e+01
   3.4673120e+02   3.4183110e+01
   3.4721330e+02   4.6414550e+01
   3.4769540e+02   5.5895510e+01
   3.4817750e+02   6.3058110e+01
   3.4865960e+02   6.5614750e+01
   3.4914180e+02   6.1494630e+01
   3.4962390e+02   5.0660640e+01
   3.5010600e+02   3.2520020e+01
   3.5058810e+02   8.7016600e+00
   3.5107020e+02   5.3182620e+01
   3.5155230e+02   4.3044430e+01
   3.5203450e+02   2.4455570e+01
   3.5251660e+02   9.7715330e+01
   3.5299870e+02   1.3131350e+02
   3.5348080e+02   1.3335790e+02
   3.5396290e+02   1.2454390e+02
   3.5444500e+02   1.0602490e+02
   3.5492720e+02   8.4273930e+01
   3.5540930e+02   6.6539550e+01
   3.5589140e+02   5.2954590e+01
   3.5637350e+02   4.4721190e+01
   3.5685560e+02   4.6980960e+01
   3.5733770e+02   5.4462890e+01
   3.5781990e+02   5.8858400e+01
   3.5830200e+02   5.1825680e+01
   3.5878410e+02   4.5512210e+01
   3.5926620e+02   5.6299320e+01
   3.5974830e+02   8.1985350e+01
   3.6023040e+02   9.7702150e+01
   3.6071260e+02   7.4905270e+01
   3.6119470e+02   4.0521000e+01
   3.6167680e+02   2.1388670e+01
   3.6215890e+02   3.2632320e+01
   3.6264100e+02   1.9196780e+01
   3.6312310e+02   4.7701660e+01
   3.6360530e+02   5.4142090e+01
   3.6408740e+02   2.7474120e+01
   3.6456950e+02   4.5185550e+00
   3.6505160e+02   9.0878910e+00
   3.6553370e+02   2.4612300e+01
   3.6601580e+02   2.3224120e+01
   3.6649800e+02   4.5841310e+01
   3.6698010e+02   8.8281300e-01
   3.6746220e+02   1.3115230e+00
   3.6794430e+02   2.2861330e+01
   3.6842640e+02   1.4584960e+00
   3.6890850e+02   1.1668950e+01
   3.6939070e+02   1.8897950e+01
   3.6987280e+02   3.7992680e+01
   3.7035490e+02   7.9473630e+01
   3.7083700e+02   9.6019040e+01
   3.7131910e+02   9.2683110e+01
   3.7180120e+02   8.7764650e+01
   3.7228340e+02   8.3155760e+01
   3.7276550e+02   7.6040040e+01
   3.7324760e+02   6.4776860e+01
   3.7372970e+02   4.2616700e+01
   3.7421190e+02   2.9602050e+01
   3.7469400e+02   3.0250980e+01
   3.7517610e+02   3.9688960e+01
   3.7565820e+02   4.5655760e+01
   3.7614030e+02   5.0201170e+01
   3.7662240e+02   4.8153810e+01
   3.7710460e+02   3.3791500e+01
   3.7758670e+02   6.7675800e-01
   3.7806880e+02   1.7873050e+01
   3.7855090e+02   1.3660160e+01
   3.7903300e+02   3.6337890e+00
   3.7951510e+02   1.9007810e+01
   3.7999730e+02   3.2688480e+01
   3.8047940e+02   4.2729490e+01
   3.8096150e+02   4.4583010e+01
   3.8144360e+02   3.7875000e+01
   3.8192570e+02   4.4239260e+01
   3.8240780e+02   6.7042480e+01
   3.8289000e+02   9.4141600e+01
   3.8337210e+02   1.0746000e+02
   3.8385420e+02   1.0719190e+02
   3.8433630e+02   1.0624270e+02
   3.8481840e+02   9.1518550e+01
   3.8530050e+02   1.3724270e+02
   3.8578270e+02   1.5965770e+02
   3.8626480e+02   1.5999410e+02
   3.8674690e+02   7.2291500e+01
   3.8722900e+02   9.8246090e+01
   3.8771110e+02   7.8623540e+01
   3.8819320e+02   5.7011230e+01
   3.8867540e+02   9.7297850e+01
   3.8915750e+02   1.9104490e+01
   3.8963960e+02   5.4864260e+01
   3.9012170e+02   4.3706050e+01
   3.9060380e+02   1.2475100e+01
   3.9108590e+02   2.4311520e+00
   3.9156810e+02   7.2329100e+00
   3.9205020e+02   9.3105470e+00
   3.9253230e+02   9.0380860e+00
   3.9301440e+02   8.3281250e+00
   3.9349650e+02   9.0732420e+00
   3.9397860e+02   1.0295900e+01
   3.9446080e+02   8.9497070e+00
   3.9494290e+02   3.3916020e+00
   3.9542500e+02   4.3798830e+00
   3.9590710e+02   1.1890140e+01
   3.9638920e+02   1.5582030e+01
   3.9687130e+02   2.2984860e+01
   3.9735350e+02   3.8737790e+01
   3.9783560e+02   6.1573730e+01
   3.9831770e+02   8.4499020e+01
   3.9879980e+02   1.0520750e+02
   3.9928190e+02   1.2353860e+02
   3.9976400e+02   1.3777340e+02
   4.0024620e+02   1.4982180e+02
   4.0072830e+02   1.5537990e+02
   4.0121040e+02   1.4705370e+02
   4.0169250e+02   1.3236130e+02
   4.0217460e+02   1.3553120e+02
   4.0265670e+02   1.8832620e+02
   4.0313890e+02   2.2672070e+02
   4.0362100e+02   2.2124020e+02
   4.0410310e+02   1.3561430e+02
   4.0458520e+02   8.6839840e+01
   4.0506730e+02   8.3814450e+01
   4.0554940e+02   1.1322660e+02
   4.0603160e+02   1.5092380e+02
   4.0651370e+02   2.0105180e+02
   4.0699580e+02   2.5103030e+02
   4.0747790e+02   2.9577150e+02
   4.0796000e+02   3.3446880e+02
   4.0844210e+02   3.7264840e+02
   4.0892430e+02   4.0888280e+02
   4.0940640e+02   4.4900590e+02
   4.0988850e+02   4.9881930e+02
   4.1037060e+02   5.5546680e+02
   4.1085270e+02   6.1636620e+02
   4.1133480e+02   6.7706250e+02
   4.1181700e+02   7.4068160e+02
   4.1229910e+02   8.2654490e+02
   4.1278120e+02   9.3472750e+02
   4.1326330e+02   1.0581580e+03
   4.1374540e+02   1.1880910e+03
   4.1422750e+02   1.3259640e+03
   4.1470970e+02   1.4764740e+03
   4.1519180e+02   1.6486640e+03
   4.1567390e+02   1.8291300e+03
   4.1615600e+02   2.0001790e+03
   4.1663810e+02   2.1612740e+03
   4.1712020e+02   2.3142460e+03
   4.1760240e+02   2.4409520e+03
   4.1808450e+02   2.5644440e+03
   4.1856660e+02   2.7203960e+03
   4.1904870e+02   2.9243500e+03
   4.1953080e+02   3.1535920e+03
   4.2001290e+02   3.3940400e+03
   4.2049510e+02   3.6496080e+03
   4.2097720e+02   3.9163670e+03
   4.2145930e+02   4.1807700e+03
   4.2194140e+02   4.4562040e+03
   4.2242350e+02   4.7573490e+03
   4.2290560e+02   5.0900250e+03
   4.2338780e+02   5.4356500e+03
   4.2386990e+02   5.8073430e+03
   4.2435200e+02   6.1844330e+03
   4.2483410e+02   6.5555450e+03
   4.2531620e+02   6.9436760e+03
   4.2579830e+02   7.3001040e+03
   4.2628050e+02   7.6173880e+03
   4.2676260e+02   7.9104260e+03
   4.2724470e+02   8.1114040e+03
   4.2772680e+02   8.2385550e+03
   4.2820890e+02   8.2690690e+03
   4.2869100e+02   8.1805720e+03
   4.2917320e+02   7.9581290e+03
   4.2965530e+02   7.6350900e+03
   4.3013740e+02   7.2004170e+03
   4.3061950e+02   6.6466460e+03
   4.3110160e+02   6.0948200e+03
   4.3158370e+02   5.5427540e+03
   4.3206590e+02   4.9954790e+03
   4.3254800e+02   4.4516470e+03
   4.3303010e+02   3.9046260e+03
   4.3351220e+02   3.3940630e+03
   4.3399430e+02   2.9205920e+03
   4.3447640e+02   2.4926870e+03
   4.3495860e+02   2.1354140e+03
   4.3544070e+02   1.8520560e+03
   4.3592280e+02   1.6178480e+03
   4.3640490e+02   1.4281350e+03
   4.3688700e+02   1.2784840e+03
   4.3736910e+02   1.1475470e+03
   4.3785130e+02   1.0348510e+03
   4.3833340e+02   9.3276950e+02
   4.3881550e+02   8.2889360e+02
   4.3929760e+02   7.2393950e+02
   4.3977970e+02   6.2980270e+02
   4.4026180e+02   5.4804100e+02
   4.4074400e+02   4.8172850e+02
   4.4122610e+02   4.4220210e+02
   4.4170820e+02   4.3577540e+02
   4.4219030e+02   4.2634960e+02
   4.4267240e+02   3.7295020e+02
   4.4315450e+02   2.9782230e+02
   4.4363670e+02   2.4065920e+02
   4.4411880e+02   2.3194340e+02
   4.4460090e+02   2.3491700e+02
   4.4508300e+02   2.3125490e+02
   4.4556510e+02   2.1998050e+02
   4.4604720e+02   2.0374510e+02
   4.4652940e+02   1.7584570e+02
   4.4701150e+02   1.4685450e+02
   4.4749360e+02   1.2659180e+02
   4.4797570e+02   1.2291890e+02
   4.4845780e+02   1.2126270e+02
   4.4893990e+02   1.2063570e+02
   4.4942210e+02   1.2063090e+02
   4.4990420e+02   1.1607810e+02
   4.5038630e+02   1.0697170e+02
   4.5086840e+02   9.3835940e+01
   4.5135050e+02   7.5067380e+01
   4.5183260e+02   3.8638670e+01
   4.5231480e+02   2.2963870e+01
   4.5279690e+02   4.1126950e+01
   4.5327900e+02   7.5008790e+01
   4.5376110e+02   7.8556640e+01
   4.5424320e+02   4.1780270e+01
   4.5472530e+02   4.7597660e+00
   4.5520750e+02   1.3654300e+01
   4.5568960e+02   1.2696290e+01
   4.5617170e+02   1.7447270e+01
   4.5665380e+02   2.9783200e+01
   4.5713600e+02   4.2326170e+01
   4.5761810e+02   4.4974610e+01
   4.5810020e+02   3.8385740e+01
   4.5858230e+02   2.9735350e+01
   4.5906440e+02   2.3420900e+01
   4.5954650e+02   1.6022460e+01
   4.6002870e+02   5.6074220e+00
   4.6051080e+02   4.0639650e+01
   4.6099290e+02   6.9579100e+01
   4.6147500e+02   6.7052730e+01
   4.6195710e+02   4.8942380e+01
   4.6243920e+02   4.2370120e+01
   4.6292140e+02   5.9011720e+01
   4.6340350e+02   8.2449220e+01
   4.6388560e+02   1.0054390e+02
   4.6436770e+02   1.1448630e+02
   4.6484980e+02   1.2714360e+02
   4.6533190e+02   1.4000290e+02
   4.6581410e+02   1.5211620e+02
   4.6629620e+02   1.6219240e+02
   4.6677830e+02   1.6846290e+02
   4.6726040e+02   1.7708400e+02
   4.6774250e+02   1.9949120e+02
   4.6822460e+02   2.2312790e+02
   4.6870680e+02   2.2854200e+02
   4.6918890e+02   1.7954200e+02
   4.6967100e+02   1.4530080e+02
   4.7015310e+02   1.4912890e+02
   4.7063520e+02   1.9654000e+02
   4.7111730e+02   2.3388670e+02
   4.7159950e+02   2.5565820e+02
   4.7208160e+02   2.7286230e+02
   4.7256370e+02   2.9701070e+02
   4.7304580e+02   3.3468460e+02
   4.7352790e+02   3.6117290e+02
   4.7401000e+02   3.6816800e+02
   4.7449220e+02   3.6261910e+02
   4.7497430e+02   3.7299120e+02
   4.7545640e+02   4.0190430e+02
   4.7593850e+02   4.3450290e+02
   4.7642060e+02   4.6260060e+02
   4.7690270e+02   4.8612790e+02
   4.7738490e+02   5.0300100e+02
   4.7786700e+02   5.0978610e+02
   4.7834910e+02   5.1814840e+02
   4.7883120e+02   5.4585160e+02
   4.7931330e+02   5.9062990e+02
   4.7979540e+02   6.4089060e+02
   4.8027760e+02   6.9131540e+02
   4.8075970e+02   7.4421290e+02
   4.8124180e+02   8.0958590e+02
   4.8172390e+02   8.8824410e+02
   4.8220600e+02   9.5293750e+02
   4.8268810e+02   9.5925290e+02
   4.8317030e+02   9.4758890e+02
   4.8365240e+02   9.6917580e+02
   4.8413450e+02   1.0683540e+03
   4.8461660e+02   1.1770150e+03
   4.8509870e+02   1.2664490e+03
   4.8558080e+02   1.3400340e+03
   4.8606300e+02   1.4140780e+03
   4.8654510e+02   1.4952640e+03
   4.8702720e+02   1.5759280e+03
   4.8750930e+02   1.6508810e+03
   4.8799140e+02   1.7062440e+03
   4.8847350e+02   1.7777860e+03
   4.8895570e+02   1.8738480e+03
   4.8943780e+02   1.9842100e+03
   4.8991990e+02   2.0923540e+03
   4.9040200e+02   2.1950510e+03
   4.9088410e+02   2.2984890e+03
   4.9136620e+02   2.4016050e+03
   4.9184840e+02   2.5021040e+03
   4.9233050e+02   2.6258690e+03
   4.9281260e+02   2.7795870e+03
   4.9329470e+02   2.9424620e+03
   4.9377680e+02   3.0951880e+03
   4.9425890e+02   3.2382560e+03
   4.9474110e+02   3.3872280e+03
   4.9522320e+02   3.5491240e+03
   4.9570530e+02   3.7166680e+03
   4.9618740e+02   3.8820840e+03
   4.9666950e+02   4.0444960e+03
   4.9715160e+02   4.2087190e+03
   4.9763380e+02   4.3803110e+03
   4.9811590e+02   4.5544210e+03
   4.9859800e+02   4.7245510e+03
   4.9908010e+02   4.8875080e+03
   4.9956220e+02   5.0537840e+03
   5.0004430e+02   5.2519180e+03
   5.0052650e+02   5.4590300e+03
   5.0100860e+02   5.6394800e+03
   5.0149070e+02   5.7668710e+03
   5.0197280e+02   5.8704980e+03
   5.0245490e+02   5.9711430e+03
   5.0293700e+02   6.0692650e+03
   5.0341920e+02   6.1279850e+03
   5.0390130e+02   6.1134030e+03
   5.0438340e+02   6.0689290e+03
   5.0486550e+02   6.0251850e+03
   5.0534760e+02   6.0113050e+03
   5.0582970e+02   5.9666520e+03
   5.0631190e+02   5.8903030e+03
   5.0679400e+02   5.7839950e+03
   5.0727610e+02   5.6472100e+03
   5.0775820e+02   5.4715600e+03
   5.0824030e+02   5.2699630e+03
   5.0872240e+02   5.0431270e+03
   5.0920460e+02   4.7916150e+03
   5.0968670e+02   4.5483830e+03
   5.1016880e+02   4.3098640e+03
   5.1065090e+02   4.0830360e+03
   5.1113300e+02   3.8808860e+03
   5.1161510e+02   3.7018060e+03
   5.1209730e+02   3.5265490e+03
   5.1257940e+02   3.3499520e+03
   5.1306150e+02   3.1759710e+03
   5.1354360e+02   2.9999900e+03
   5.1402580e+02   2.8240560e+03
   5.1450790e+02   2.6695640e+03
   5.1499000e+02   2.5619790e+03
   5.1547210e+02   2.4822550e+03
   5.1595420e+02   2.4026660e+03
   5.1643630e+02   2.3193780e+03
   5.1691850e+02   2.2329690e+03
   5.1740060e+02   2.1381890e+03
   5.1788270e+02   2.0407680e+03
   5.1836480e+02   1.9517360e+03
   5.1884690e+02   1.8814600e+03
   5.1932900e+02   1.8165250e+03
   5.1981120e+02   1.7485260e+03
   5.2029330e+02   1.6762820e+03
   5.2077540e+02   1.6134410e+03
   5.2125750e+02   1.5724180e+03
   5.2173960e+02   1.5379240e+03
   5.2222170e+02   1.4989380e+03
   5.2270390e+02   1.4474530e+03
   5.2318600e+02   1.4101410e+03
   5.2366810e+02   1.3871090e+03
   5.2415020e+02   1.3730920e+03
   5.2463230e+02   1.3614960e+03
   5.2511440e+02   1.3546550e+03
   5.2559660e+02   1.3525840e+03
   5.2607870e+02   1.3611280e+03
   5.2656080e+02   1.3800870e+03
   5.2704290e+02   1.3706120e+03
   5.2752500e+02   1.3237080e+03
   5.2800710e+02   1.2678920e+03
   5.2848930e+02   1.2450820e+03
   5.2897140e+02   1.2467470e+03
   5.2945350e+02   1.2382950e+03
   5.2993560e+02   1.2006790e+03
   5.3041770e+02   1.1566960e+03
   5.3089980e+02   1.1493980e+03
   5.3138200e+02   1.1687550e+03
   5.3186410e+02   1.1653760e+03
   5.3234620e+02   1.0762910e+03
   5.3282830e+02   9.7130960e+02
   5.3331040e+02   9.1525100e+02
   5.3379250e+02   9.3348630e+02
   5.3427470e+02   9.5164450e+02
   5.3475680e+02   9.4221680e+02
   5.3523890e+02   9.1523240e+02
   5.3572100e+02   8.8444140e+02
   5.3620310e+02   8.4518460e+02
   5.3668520e+02   8.0975680e+02
   5.3716740e+02   7.8512210e+02
   5.3764950e+02   7.7023730e+02
   5.3813160e+02   7.3836430e+02
   5.3861370e+02   6.7071190e+02
   5.3909580e+02   6.0997850e+02
   5.3957790e+02   5.9081740e+02
   5.4006010e+02   6.2957520e+02
   5.4054220e+02   6.2809960e+02
   5.4102430e+02   5.6754200e+02
   5.4150640e+02   4.8407810e+02
   5.4198850e+02   4.4385550e+02
   5.4247060e+02   4.4666890e+02
   5.4295280e+02   4.4887300e+02
   5.4343490e+02   4.3406050e+02
   5.4391700e+02   4.0576370e+02
   5.4439910e+02   3.6780470e+02
   5.4488120e+02   3.2041800e+02
   5.4536330e+02   2.7690330e+02
   5.4584550e+02   2.4784470e+02
   5.4632760e+02   2.2941700e+02
   5.4680970e+02   2.1650780e+02
   5.4729180e+02   2.0848440e+02
   5.4777390e+02   2.0488570e+02
   5.4825600e+02   2.0699710e+02
   5.4873820e+02   2.1315140e+02
   5.4922030e+02   2.1973540e+02
   5.4970240e+02   2.2790530e+02
   5.5018450e+02   2.3364840e+02
   5.5066660e+02   2.3320900e+02
   5.5114870e+02   2.2414360e+02
   5.5163090e+02   2.2073440e+02
   5.5211300e+02   2.2743260e+02
   5.5259510e+02   2.3554200e+02
   5.5307720e+02   2.3934770e+02
   5.5355930e+02   2.4089450e+02
   5.5404140e+02   2.3052540e+02
   5.5452360e+02   2.0157320e+02
   5.5500570e+02   1.6428420e+02
   5.5548780e+02   1.4588870e+02
   5.5596990e+02   1.4827150e+02
   5.5645200e+02   1.5118260e+02
   5.5693410e+02   1.4629980e+02
   5.5741630e+02   1.3424220e+02
   5.5789840e+02   1.1564360e+02
   5.5838050e+02   9.0375980e+01
   5.5886260e+02   6.2590820e+01
   5.5934470e+02   2.8822270e+01
   5.5982680e+02   3.7128910e+00
   5.6030900e+02   2.1353520e+01
   5.6079110e+02   1.4514650e+01
   5.6127320e+02   5.0781000e-02
   5.6175530e+02   1.8622070e+01
   5.6223740e+02   3.7053710e+01
   5.6271950e+02   4.2989260e+01
   5.6320170e+02   2.6752930e+01
   5.6368380e+02   1.4648440e+00
   5.6416590e+02   3.4859380e+01
   5.6464800e+02   9.3588870e+01
   5.6513010e+02   1.1413380e+02
   5.6561220e+02   6.5833980e+01
   5.6609440e+02   1.7548830e+00
   5.6657650e+02   4.6403320e+01
   5.6705860e+02   6.9205080e+01
   5.6754070e+02   6.4006840e+01
   5.6802280e+02   1.5242190e+01
   5.6850490e+02   5.4716800e+01
   5.6898710e+02   7.5727540e+01
   5.6946920e+02   4.3475590e+01
   5.6995130e+02   1.9033200e+00
   5.7043340e+02   4.9332030e+01
   5.7091550e+02   9.2992190e+01
   5.7139760e+02   1.0404980e+02
   5.7187980e+02   7.9373050e+01
   5.7236190e+02   4.7234380e+01
   5.7284400e+02   3.5485350e+01
   5.7332610e+02   3.4881840e+01
   5.7380820e+02   2.8968750e+01
   5.7429030e+02   7.2744140e+00
   5.7477250e+02   1.3352540e+01
   5.7525460e+02   2.0067380e+01
   5.7573670e+02   1.6656250e+01
   5.7621880e+02   1.4344730e+01
   5.7670090e+02   2.0138670e+01
   5.7718300e+02   2.4665040e+01
   5.7766520e+02   2.1916990e+01
   5.7814730e+02   8.1240230e+00
   5.7862940e+02   8.5644500e-01
   5.7911150e+02   2.1474610e+00
   5.7959360e+02   3.0429690e+00
   5.8007570e+02   2.5425780e+01
   5.8055790e+02   8.1844730e+01
   5.8104000e+02   1.0319340e+02
   5.8152210e+02   7.0649410e+01
   5.8200420e+02   7.1464840e+00
   5.8248630e+02   3.0919920e+01
   5.8296840e+02   4.3327150e+01
   5.8345060e+02   4.1370120e+01
   5.8393270e+02   1.2841800e+01
   5.8441480e+02   2.4531250e+01
   5.8489690e+02   1.2221680e+01
   5.8537900e+02   5.1972660e+01
   5.8586110e+02   1.1473440e+02
   5.8634330e+02   1.3445510e+02
   5.8682540e+02   1.2617680e+02
   5.8730750e+02   1.0866700e+02
   5.8778960e+02   7.6856450e+01
   5.8827170e+02   5.3389650e+01
   5.8875380e+02   5.5870120e+01
   5.8923600e+02   7.4554690e+01
   5.8971810e+02   8.8701170e+01
   5.9020020e+02   8.4505860e+01
   5.9068230e+02   8.3019530e+01
   5.9116440e+02   9.3729490e+01
   5.9164650e+02   1.1776760e+02
   5.9212870e+02   1.3389650e+02
   5.9261080e+02   1.4068260e+02
   5.9309290e+02   1.4191210e+02
   5.9357500e+02   1.3862400e+02
   5.9405710e+02   1.2956250e+02
   5.9453920e+02   1.2723240e+02
   5.9502140e+02   1.3584180e+02
   5.9550350e+02   1.4625100e+02
   5.9598560e+02   1.3839160e+02
   5.9646770e+02   1.1518360e+02
   5.9694980e+02   9.9706050e+01
   5.9743190e+02   9.9566410e+01
   5.9791410e+02   1.1431930e+02
   5.9839620e+02   1.5072270e+02
   5.9887830e+02   2.0586720e+02
   5.9936040e+02   2.5542580e+02
   5.9984250e+02   2.8921580e+02
   6.0032460e+02   3.0710740e+02
   6.0080680e+02   3.0392090e+02
   6.0128890e+02   2.6505760e+02
   6.0177100e+02   2.4090620e+02
   6.0225310e+02   2.4842770e+02
   6.0273520e+02   2.7805080e+02
   6.0321730e+02   3.1748240e+02
   6.0369950e+02   3.8102340e+02
   6.0418160e+02   4.3334280e+02
   6.0466370e+02   4.6361430e+02
   6.0514580e+02   4.7717970e+02
   6.0562790e+02   5.0469040e+02
   6.0611000e+02   5.5189550e+02
   6.0659220e+02   5.9495510e+02
   6.0707430e+02   6.1509670e+02
   6.0755640e+02   6.1533980e+02
   6.0803850e+02   6.2362700e+02
   6.0852060e+02   6.3878420e+02
   6.0900270e+02   6.7377730e+02
   6.0948490e+02   7.5500490e+02
   6.0996700e+02   8.6604200e+02
   6.1044910e+02   9.6570510e+02
   6.1093120e+02   1.0335150e+03
   6.1141330e+02   1.0995470e+03
   6.1189540e+02   1.1872320e+03
   6.1237760e+02   1.2924390e+03
   6.1285970e+02   1.4069300e+03
   6.1334180e+02   1.5194520e+03
   6.1382390e+02   1.6451000e+03
   6.1430600e+02   1.7878480e+03
   6.1478810e+02   1.9466340e+03
   6.1527030e+02   2.1289660e+03
   6.1575240e+02   2.3346500e+03
   6.1623450e+02   2.5604270e+03
   6.1671660e+02   2.8096490e+03
   6.1719870e+02   3.0837440e+03
   6.1768080e+02   3.3621990e+03
   6.1816300e+02   3.6461150e+03
   6.1864510e+02   3.9346150e+03
   6.1912720e+02   4.2146600e+03
   6.1960930e+02   4.4897650e+03
   6.2009140e+02   4.8017160e+03
   6.2057350e+02   5.1899370e+03
   6.2105570e+02   5.6101360e+03
   6.2153780e+02   5.9944520e+03
   6.2201990e+02   6.3436670e+03
   6.2250200e+02   6.6901550e+03
   6.2298410e+02   7.0704130e+03
   6.2346620e+02   7.4582770e+03
   6.2394840e+02   7.8345210e+03
   6.2443050e+02   8.2090890e+03
   6.2491260e+02   8.5230910e+03
   6.2539470e+02   8.7508620e+03
   6.2587680e+02   8.9131690e+03
   6.2635890e+02   9.0294230e+03
   6.2684110e+02   9.1192420e+03
   6.2732320e+02   9.1492170e+03
   6.2780530e+02   9.1086730e+03
   6.2828740e+02   9.0056840e+03
   6.2876950e+02   8.8705850e+03
   6.2925160e+02   8.7044480e+03
   6.2973380e+02   8.5089400e+03
   6.3021590e+02   8.2919890e+03
   6.3069800e+02   8.0492280e+03
   6.3118010e+02   7.7452290e+03
   6.3166220e+02   7.3785950e+03
   6.3214430e+02   6.9750610e+03
   6.3262650e+02   6.5597680e+03
   6.3310860e+02   6.1271990e+03
   6.3359070e+02   5.6623990e+03
   6.3407280e+02   5.1434400e+03
   6.3455490e+02   4.6364380e+03
   6.3503700e+02   4.1737180e+03
   6.3551920e+02   3.7506400e+03
   6.3600130e+02   3.3595280e+03
   6.3648340e+02   2.9773040e+03
   6.3696550e+02   2.6450410e+03
   6.3744760e+02   2.3929640e+03
   6.3792970e+02   2.2096560e+03
   6.3841190e+02   2.0144900e+03
   6.3889400e+02   1.7910520e+03
   6.3937610e+02   1.5884760e+03
   6.3985820e+02   1.4310760e+03
   6.4034030e+02   1.3197960e+03
   6.4082240e+02   1.2170750e+03
   6.4130460e+02   1.1220640e+03
   6.4178670e+02   1.0383350e+03
   6.4226880e+02   9.7081050e+02
   6.4275090e+02   9.2104590e+02
   6.4323300e+02   8.8503810e+02
   6.4371510e+02   8.6670120e+02
   6.4419730e+02   8.4543550e+02
   6.4467940e+02   7.9391500e+02
   6.4516150e+02   7.2207520e+02
   6.4564360e+02   6.5352340e+02
   6.4612570e+02   5.9117380e+02
   6.4660780e+02   5.4248540e+02
   6.4709000e+02   5.1209380e+02
   6.4757210e+02   5.0023730e+02
   6.4805420e+02   5.0323630e+02
   6.4853630e+02   5.4176370e+02
   6.4901840e+02   5.7818160e+02
   6.4950050e+02   5.9287600e+02
   6.4998270e+02   5.7473830e+02
   6.5046480e+02   5.7282230e+02
   6.5094690e+02   5.9030080e+02
   6.5142900e+02   6.1515040e+02
   6.5191110e+02   6.3525000e+02
   6.5239320e+02   6.5129880e+02
   6.5287540e+02   6.6871000e+02
   6.5335750e+02   6.8570210e+02
   6.5383960e+02   7.0828710e+02
   6.5432170e+02   7.5022070e+02
   6.5480380e+02   8.0655760e+02
   6.5528590e+02   8.6095510e+02
   6.5576810e+02   9.1058500e+02
   6.5625020e+02   9.5066600e+02
   6.5673230e+02   9.6957810e+02
   6.5721440e+02   9.6801270e+02
   6.5769650e+02   9.8362990e+02
   6.5817860e+02   1.0411780e+03
   6.5866080e+02   1.1096580e+03
   6.5914290e+02   1.1708290e+03
   6.5962500e+02   1.2251830e+03
   6.6010710e+02   1.2721490e+03
   6.6058920e+02   1.3108370e+03
   6.6107140e+02   1.3444070e+03
   6.6155350e+02   1.3754000e+03
   6.6203560e+02   1.4036550e+03
   6.6251780e+02   1.4357310e+03
   6.6299990e+02   1.4755600e+03
   6.6348200e+02   1.5179400e+03
   6.6396410e+02   1.5552240e+03
   6.6444620e+02   1.5869720e+03
   6.6492830e+02   1.6117700e+03
   6.6541050e+02   1.6249790e+03
   6.6589260e+02   1.6336620e+03
   6.6637470e+02   1.6405580e+03
   6.6685680e+02   1.6470830e+03
   6.6733890e+02   1.6645820e+03
   6.6782100e+02   1.7204950e+03
   6.6830320e+02   1.7704400e+03
   6.6878530e+02   1.7862370e+03
   6.6926740e+02   1.7511790e+03
   6.6974950e+02   1.7082710e+03
   6.7023160e+02   1.6531960e+03
   6.7071370e+02   1.5931350e+03
   6.7119590e+02   1.5377650e+03
   6.7167800e+02   1.4898770e+03
   6.7216010e+02   1.4311230e+03
   6.7264220e+02   1.3526920e+03
   6.7312430e+02   1.2660250e+03
   6.7360640e+02   1.2041790e+03
   6.7408860e+02   1.1644140e+03
   6.7457070e+02   1.1173610e+03
   6.7505280e+02   1.0366360e+03
   6.7553490e+02   9.4021480e+02
   6.7601700e+02   8.4576170e+02
   6.7649910e+02   7.5492770e+02
   6.7698130e+02   6.7729880e+02
   6.7746340e+02   6.2824710e+02
   6.7794550e+02   5.8711330e+02
   6.7842760e+02   5.4017870e+02
   6.7890970e+02   4.8108690e+02
   6.7939180e+02   4.3161430e+02
   6.7987400e+02   4.0147460e+02
   6.8035610e+02   3.7319630e+02
   6.8083820e+02   3.2529490e+02
   6.8132030e+02   2.4894430e+02
   6.8180240e+02   1.9589260e+02
   6.8228450e+02   1.7635160e+02
   6.8276670e+02   1.7735250e+02
   6.8324880e+02   1.8338770e+02
   6.8373090e+02   1.9183400e+02
   6.8421300e+02   1.8555470e+02
   6.8469510e+02   1.4289060e+02
   6.8517720e+02   9.2535160e+01
   6.8565940e+02   7.0086910e+01
   6.8614150e+02   7.1251950e+01
   6.8662360e+02   7.6140620e+01
   6.8710570e+02   7.1764650e+01
   6.8758780e+02   7.0145510e+01
   6.8806990e+02   8.2739260e+01
   6.8855210e+02   1.1683890e+02
   6.8903420e+02   1.2937990e+02
   6.8951630e+02   1.0332620e+02
   6.8999840e+02   6.8968750e+01
   6.9048050e+02   4.6455080e+01
   6.9096260e+02   3.5874020e+01
   6.9144480e+02   3.7823240e+01
   6.9192690e+02   5.6294920e+01
   6.9240900e+02   7.8467770e+01
   6.9289110e+02   8.3866210e+01
   6.9337320e+02   7.5260740e+01
   6.9385530e+02   6.6623050e+01
   6.9433750e+02   6.2350590e+01
   6.9481960e+02   6.0436520e+01
   6.9530170e+02   5.9773440e+01
   6.9578380e+02   5.9816410e+01
   6.9626590e+02   5.8791020e+01
   6.9674800e+02   4.2451170e+01
   6.9723020e+02   3.6818360e+01
   6.9771230e+02   6.7757810e+01
   6.9819440e+02   1.3785060e+02
   6.9867650e+02   1.6457520e+02
   6.9915860e+02   1.1488960e+02
   6.9964070e+02   5.9596680e+01
   7.0012290e+02   3.6884770e+01
   7.0060500e+02   5.4782230e+01
   7.0108710e+02   5.1817380e+01
   7.0156920e+02   2.1786130e+01
   7.0205130e+02   8.2421880e+00
   7.0253340e+02   1.3574220e+00
   7.0301560e+02   3.7649410e+01
   7.0349770e+02   5.2177730e+01
   7.0397980e+02   2.8672850e+01
   7.0446190e+02   2.3164060e+00
   7.0494400e+02   1.1297850e+01
   7.0542610e+02   7.5488280e+00
   7.0590830e+02   7.8398440e+00
   7.0639040e+02   2.4301760e+01
   7.0687250e+02   3.9347660e+01
   7.0735460e+02   5.0575200e+01
   7.0783670e+02   5.6144530e+01
   7.0831880e+02   4.8569340e+01
   7.0880100e+02   1.8715820e+01
   7.0928310e+02   9.8125000e+00
   7.0976520e+02   2.9631840e+01
   7.1024730e+02   4.0728520e+01
   7.1072940e+02   4.2062500e+01
   7.1121150e+02   3.2373050e+01
   7.1169370e+02   2.3752930e+01
   7.1217580e+02   2.8875980e+01
   7.1265790e+02   4.1582030e+01
   7.1314000e+02   4.6587890e+01
   7.1362210e+02   4.0919920e+01
   7.1410420e+02   3.6847660e+01
   7.1458640e+02   4.2895510e+01
   7.1506850e+02   5.5244140e+01
   7.1555060e+02   6.9754880e+01
   7.1603270e+02   9.0797850e+01
   7.1651480e+02   1.0586130e+02
   7.1699690e+02   1.0941500e+02
   7.1747910e+02   1.0591210e+02
   7.1796120e+02   1.0113870e+02
   7.1844330e+02   9.2867190e+01
   7.1892540e+02   8.9306640e+01
   7.1940750e+02   9.5027340e+01
   7.1988960e+02   1.0497950e+02
   7.2037180e+02   1.0293260e+02
   7.2085390e+02   8.9636720e+01
   7.2133600e+02   7.4631840e+01
   7.2181810e+02   6.4956050e+01
   7.2230020e+02   5.6373050e+01
   7.2278230e+02   4.1769530e+01
   7.2326450e+02   2.2116210e+01
   7.2374660e+02   4.0859380e+00
   7.2422870e+02   1.1944340e+01
   7.2471080e+02   2.2121090e+01
   7.2519290e+02   2.2029300e+01
   7.2567500e+02   7.0371090e+00
   7.2615720e+02   3.5400390e+00
   7.2663930e+02   4.8789060e+00
   7.2712140e+02   5.3476560e+00
   7.2760350e+02   1.4737300e+01
   7.2808560e+02   3.6845700e+01
   7.2856770e+02   4.0345700e+01
   7.2904990e+02   1.7186520e+01
   7.2953200e+02   1.2551760e+01
   7.3001410e+02   1.3378910e+01
   7.3049620e+02   4.6884770e+00
   7.3097830e+02   6.4335940e+00
   7.3146040e+02   3.7751950e+01
   7.3194260e+02   7.6812500e+01
   7.3242470e+02   5.4319340e+01
   7.3290680e+02   7.0859380e+00
   7.3338890e+02   5.1933590e+01
   7.3387100e+02   5.3545900e+01
   7.3435310e+02   4.4564450e+01
   7.3483530e+02   3.1713870e+01
   7.3531740e+02   1.5542970e+01
   7.3579950e+02   5.3916020e+00
   7.3628160e+02   2.5625000e+00
   7.3676370e+02   5.5146480e+00
   7.3724580e+02   1.6155270e+01
   7.3772800e+02   3.3184570e+01
   7.3821010e+02   4.4732420e+01
   7.3869220e+02   5.0941410e+01
   7.3917430e+02   5.2437500e+01
   7.3965640e+02   4.3823240e+01
   7.4013850e+02   3.3279300e+01
   7.4062070e+02   3.3673830e+01
   7.4110280e+02   4.8305660e+01
   7.4158490e+02   6.6166990e+01
   7.4206700e+02   8.4458010e+01
   7.4254910e+02   1.0183690e+02
   7.4303130e+02   1.1674510e+02
   7.4351340e+02   1.3781740e+02
   7.4399550e+02   1.4210740e+02
   7.4447760e+02   1.1720510e+02
   7.4495970e+02   8.4715820e+01
   7.4544180e+02   8.1840820e+01
   7.4592400e+02   1.1247460e+02
   7.4640610e+02   1.3307810e+02
   7.4688820e+02   1.3206050e+02
   7.4737030e+02   1.1633400e+02
   7.4785240e+02   8.9922850e+01
   7.4833450e+02   5.7361330e+01
   7.4881670e+02   3.7198240e+01
   7.4929880e+02   4.0177730e+01
   7.4978090e+02   5.4727540e+01
   7.5026300e+02   8.3693360e+01
   7.5074510e+02   1.2332710e+02
   7.5122720e+02   1.4620800e+02
   7.5170940e+02   1.3594140e+02
   7.5219150e+02   1.1390820e+02
   7.5267360e+02   8.5209960e+01
   7.5315570e+02   4.9190430e+01
   7.5363780e+02   3.3594730e+01
   7.5411990e+02   4.2666990e+01
   7.5460210e+02   5.7727540e+01
   7.5508420e+02   7.1545900e+01
   7.5556630e+02   8.1275390e+01
   7.5604840e+02   6.7189450e+01
   7.5653050e+02   2.5773440e+01
   7.5701260e+02   7.9257810e+00
   7.5749480e+02   1.8652300e-01
   7.5797690e+02   3.0482420e+01
   7.5845900e+02   6.2909180e+01
   7.5894110e+02   1.0016500e+02
   7.5942320e+02   1.2234470e+02
   7.5990530e+02   1.1672360e+02
   7.6038750e+02   9.5836910e+01
   7.6086960e+02   7.1971680e+01
   7.6135170e+02   3.5662110e+01
   7.6183380e+02   1.8739260e+01
   7.6231590e+02   3.2024410e+01
   7.6279800e+02   5.8914060e+01
   7.6328020e+02   6.6230470e+01
   7.6376230e+02   5.6346680e+01
   7.6424440e+02   5.5319340e+01
   7.6472650e+02   7.9290040e+01
   7.6520860e+02   1.0681840e+02
   7.6569070e+02   1.1504590e+02
   7.6617290e+02   1.0954490e+02
   7.6665500e+02   1.0493070e+02
   7.6713710e+02   1.1266890e+02
   7.6761920e+02   1.1513480e+02
   7.6810130e+02   9.8038090e+01
   7.6858340e+02   6.1633790e+01
   7.6906560e+02   4.8328120e+01
   7.6954770e+02   6.8558590e+01
   7.7002980e+02   9.4850590e+01
   7.7051190e+02   1.2226460e+02
   7.7099400e+02   1.4712700e+02
   7.7147610e+02   1.3941020e+02
   7.7195830e+02   9.8371090e+01
   7.7244040e+02   6.2458010e+01
   7.7292250e+02   7.2157230e+01
   7.7340460e+02   1.0131150e+02
   7.7388670e+02   1.1007230e+02
   7.7436880e+02   9.2266600e+01
   7.7485100e+02   7.5577150e+01
   7.7533310e+02   7.2994140e+01
   7.7581520e+02   7.7735350e+01
   7.7629730e+02   8.5311520e+01
   7.7677940e+02   1.0058790e+02
   7.7726150e+02   1.0613570e+02
   7.7774370e+02   9.7490230e+01
   7.7822580e+02   8.4940430e+01
   7.7870790e+02   7.9525390e+01
   7.7919000e+02   8.1325200e+01
   7.7967210e+02   8.6431640e+01
   7.8015420e+02   9.3733400e+01
   7.8063640e+02   1.0565040e+02
   7.8111850e+02   1.3612400e+02
   7.8160060e+02   1.7207230e+02
   7.8208270e+02   1.8607710e+02
   7.8256480e+02   1.4649800e+02
   7.8304690e+02   1.1040230e+02
   7.8352910e+02   1.1316500e+02
   7.8401120e+02   1.3742970e+02
   7.8449330e+02   1.4369240e+02
   7.8497540e+02   1.1822850e+02
   7.8545750e+02   9.3461910e+01
   7.8593960e+02   7.4360350e+01
   7.8642180e+02   6.1174800e+01
   7.8690390e+02   5.7625000e+01
   7.8738600e+02   6.3358400e+01
   7.8786810e+02   6.6546880e+01
   7.8835020e+02   5.8411130e+01
   7.8883230e+02   4.7062500e+01
   7.8931450e+02   4.8798830e+01
   7.8979660e+02   5.9841800e+01
   7.9027870e+02   6.4174800e+01
   7.9076080e+02   4.6855470e+01
   7.9124290e+02   2.4724610e+01
   7.9172500e+02   3.8671880e+00
   7.9220720e+02   1.5763670e+01
   7.9268930e+02   1.2391600e+01
   7.9317140e+02   3.1749020e+01
   7.9365350e+02   7.1250000e+01
   7.9413560e+02   7.7724610e+01
   7.9461770e+02   5.1521480e+01
   7.9509990e+02   4.4038090e+01
   7.9558200e+02   5.6088870e+01
   7.9606410e+02   7.1746090e+01
   7.9654620e+02   7.7791020e+01
   7.9702830e+02   7.7941410e+01
   7.9751040e+02   7.4586910e+01
   7.9799260e+02   6.6101560e+01
   7.9847470e+02   6.8710940e+01
   7.9895680e+02   1.1706740e+02
   7.9943890e+02   1.6335940e+02
   7.9992100e+02   1.6443950e+02
   8.0040310e+02   8.6824220e+01
   8.0088530e+02   3.2067380e+01
   8.0136740e+02   4.3349610e+00
   8.0184950e+02   6.3837890e+00
   8.0233160e+02   7.4726560e+00
   8.0281370e+02   6.7968800e-01
   8.0329580e+02   6.3339840e+00
   8.0377800e+02   7.6347660e+00
   8.0426010e+02   7.5468750e+00
   8.0474220e+02   1.2554690e+01
   8.0522430e+02   1.7836910e+01
   8.0570640e+02   1.4401370e+01
   8.0618850e+02   1.4216800e+01
   8.0667070e+02   3.3162110e+01
   8.0715280e+02   2.1378910e+01
   8.0763490e+02   4.4335940e+00
   8.0811700e+02   1.2409180e+01
   8.0859910e+02   1.4510740e+01
   8.0908120e+02   1.9795900e+01
   8.0956340e+02   1.4161130e+01
   8.1004550e+02   6.5801760e+01
   8.1052760e+02   8.6296880e+01
   8.1100970e+02   7.8970700e+01
   8.1149180e+02   6.7635740e+01
   8.1197390e+02   6.1939450e+01
   8.1245610e+02   5.6607420e+01
   8.1293820e+02   4.1661130e+01
   8.1342030e+02   2.2429690e+01
   8.1390240e+02   1.3953120e+01
   8.1438450e+02   3.3831050e+01
   8.1486660e+02   5.1240230e+01
   8.1534880e+02   5.7007810e+01
   8.1583090e+02   5.3994140e+01
   8.1631300e+02   5.5928710e+01
   8.1679510e+02   6.7336910e+01
   8.1727720e+02   6.7120120e+01
   8.1775930e+02   3.6521480e+01
   8.1824150e+02   8.6250000e+00
   8.1872360e+02   1.5229490e+01
   8.1920570e+02   1.2001950e+01
   8.1968780e+02   3.9021480e+01
   8.2016990e+02   4.8363280e+01
   8.2065200e+02   4.6498050e+01
   8.2113420e+02   2.7766600e+01
   8.2161630e+02   5.9550780e+00
   8.2209840e+02   1.2285160e+01
   8.2258050e+02   5.8548830e+01
   8.2306260e+02   1.1616990e+02
   8.2354470e+02   1.2207910e+02
   8.2402690e+02   7.5234380e+01
   8.2450900e+02   3.3510740e+01
   8.2499110e+02   5.5097660e+00
   8.2547320e+02   2.6160160e+01
   8.2595530e+02   2.8574220e+00
   8.2643750e+02   5.3046880e+01
   8.2691960e+02   5.8067380e+01
   8.2740170e+02   1.4360350e+01
   8.2788390e+02   2.2763670e+01
   8.2836600e+02   1.7148440e+01
   8.2884810e+02   6.9199220e+00
   8.2933020e+02   3.3462890e+01
   8.2981230e+02   6.3626950e+01
   8.3029440e+02   8.7196290e+01
   8.3077660e+02   1.0272460e+02
   8.3125870e+02   1.1425980e+02
   8.3174080e+02   1.2926370e+02
   8.3222290e+02   1.4691500e+02
   8.3270500e+02   1.3466500e+02
   8.3318710e+02   8.6436520e+01
   8.3366930e+02   4.6076170e+01
   8.3415140e+02   6.4251950e+01
   8.3463350e+02   1.1161620e+02
   8.3511560e+02   1.5019730e+02
   8.3559770e+02   1.7441310e+02
   8.3607980e+02   1.8530470e+02
   8.3656200e+02   1.7182620e+02
   8.3704410e+02   1.5218950e+02
   8.3752620e+02   1.4316990e+02
   8.3800830e+02   1.5010550e+02
   8.3849040e+02   1.5178320e+02
   8.3897250e+02   1.4577340e+02
   8.3945470e+02   1.3885640e+02
   8.3993680e+02   1.4090530e+02
   8.4041890e+02   1.4947660e+02
   8.4090100e+02   1.5469820e+02
   8.4138310e+02   1.5484470e+02
   8.4186520e+02   1.5179000e+02
   8.4234740e+02   1.4421970e+02
   8.4282950e+02   1.3557810e+02
   8.4331160e+02   1.2994730e+02
   8.4379370e+02   1.3131840e+02
   8.4427580e+02   1.3105960e+02
   8.4475790e+02   1.2487210e+02
   8.4524010e+02   1.1995800e+02
   8.4572220e+02   1.3060940e+02
   8.4620430e+02   1.5919920e+02
   8.4668640e+02   1.6321190e+02
   8.4716850e+02   1.2635060e+02
   8.4765060e+02   9.1283200e+01
   8.4813280e+02   1.2546780e+02
   8.4861490e+02   2.0118460e+02
   8.4909700e+02   2.6599020e+02
   8.4957910e+02   3.1122270e+02
   8.5006120e+02   3.2879200e+02
   8.5054330e+02   2.8891800e+02
   8.5102550e+02   2.2992970e+02
   8.5150760e+02   2.1476760e+02
   8.5198970e+02   2.7447270e+02
   8.5247180e+02   3.0440920e+02
   8.5295390e+02   2.8086720e+02
   8.5343600e+02   2.3723440e+02
   8.5391820e+02   2.3646480e+02
   8.5440030e+02   2.6984570e+02
   8.5488240e+02   2.9184960e+02
   8.5536450e+02   2.8392090e+02
   8.5584660e+02   2.6791990e+02
   8.5632870e+02   2.6204200e+02
   8.5681090e+02   2.6156250e+02
   8.5729300e+02   2.5822170e+02
   8.5777510e+02   2.4698830e+02
   8.5825720e+02   2.3648340e+02
   8.5873930e+02   2.2690040e+02
   8.5922140e+02   2.1928910e+02
   8.5970360e+02   2.1652930e+02
   8.6018570e+02   2.1947560e+02
   8.6066780e+02   2.2214260e+02
   8.6114990e+02   2.2319630e+02
   8.6163200e+02   2.2240620e+02
   8.6211410e+02   2.1742290e+02
   8.6259630e+02   2.1058790e+02
   8.6307840e+02   2.0704390e+02
   8.6356050e+02   2.1341310e+02
   8.6404260e+02   2.1765720e+02
   8.6452470e+02   2.1860250e+02
   8.6500680e+02   2.1552150e+02
   8.6548900e+02   2.0182910e+02
   8.6597110e+02   1.6600290e+02
   8.6645320e+02   1.4360350e+02
   8.6693530e+02   1.4418360e+02
   8.6741740e+02   1.6165230e+02
   8.6789950e+02   1.8387700e+02
   8.6838170e+02   2.0887700e+02
   8.6886380e+02   2.2820120e+02
   8.6934590e+02   2.3981150e+02
   8.6982800e+02   2.4291500e+02
   8.7031010e+02   2.2318070e+02
   8.7079220e+02   1.9557620e+02
   8.7127440e+02   1.9190530e+02
   8.7175650e+02   2.4899710e+02
   8.7223860e+02   2.9146090e+02
   8.7272070e+02   3.0250780e+02
   8.7320280e+02   2.9653710e+02
   8.7368490e+02   3.1150680e+02
   8.7416710e+02   3.4732710e+02
   8.7464920e+02   3.6549410e+02
   8.7513130e+02   3.4509180e+02
   8.7561340e+02   3.1531540e+02
   8.7609550e+02   3.1648140e+02
   8.7657760e+02   3.3703910e+02
   8.7705980e+02   3.5257030e+02
   8.7754190e+02   3.5598830e+02
   8.7802400e+02   3.4925490e+02
   8.7850610e+02   3.2191210e+02
   8.7898820e+02   2.8691110e+02
   8.7947030e+02   2.7119820e+02
   8.7995250e+02   2.8085160e+02
   8.8043460e+02   2.8874800e+02
   8.8091670e+02   2.8510840e+02
   8.8139880e+02   2.7976760e+02
   8.8188090e+02   2.9226170e+02
   8.8236300e+02   3.1701860e+02
   8.8284520e+02   3.3869040e+02
   8.8332730e+02   3.4830960e+02
   8.8380940e+02   3.5906150e+02
   8.8429150e+02   3.7403520e+02
   8.8477360e+02   3.9184080e+02
   8.8525570e+02   4.1179300e+02
   8.8573790e+02   4.4097360e+02
   8.8622000e+02   4.5219820e+02
   8.8670210e+02   4.3395120e+02
   8.8718420e+02   4.0493460e+02
   8.8766630e+02   4.0122750e+02
   8.8814840e+02   4.2024610e+02
   8.8863060e+02   4.5150000e+02
   8.8911270e+02   5.0184180e+02
   8.8959480e+02   5.4606930e+02
   8.9007690e+02   5.5787300e+02
   8.9055900e+02   5.4927830e+02
   8.9104110e+02   5.4314060e+02
   8.9152330e+02   5.4418950e+02
   8.9200540e+02   5.5441500e+02
   8.9248750e+02   5.7628320e+02
   8.9296960e+02   6.0027340e+02
   8.9345170e+02   6.1268750e+02
   8.9393380e+02   6.1582620e+02
   8.9441600e+02   6.2684080e+02
   8.9489810e+02   6.4997850e+02
   8.9538020e+02   6.7000680e+02
   8.9586230e+02   6.6943160e+02
   8.9634440e+02   6.5932810e+02
   8.9682650e+02   6.5708980e+02
   8.9730870e+02   6.7063870e+02
   8.9779080e+02   6.8929490e+02
   8.9827290e+02   7.2229100e+02
   8.9875500e+02   7.5312110e+02
   8.9923710e+02   7.5426860e+02
   8.9971920e+02   7.1596880e+02
   9.0020140e+02   7.0184960e+02
   9.0068350e+02   7.2529490e+02
   9.0116560e+02   7.5916500e+02
   9.0164770e+02   7.6759960e+02
   9.0212980e+02   7.6051760e+02
   9.0261190e+02   7.5804100e+02
   9.0309410e+02   7.7016890e+02
   9.0357620e+02   7.7524900e+02
   9.0405830e+02   7.6100490e+02
   9.0454040e+02   7.3610550e+02
   9.0502250e+02   7.0917870e+02
   9.0550460e+02   6.7682130e+02
   9.0598680e+02   6.6105180e+02
   9.0646890e+02   6.6419240e+02
   9.0695100e+02   6.7690920e+02
   9.0743310e+02   6.9521090e+02
   9.0791520e+02   7.1626270e+02
   9.0839730e+02   7.2599020e+02
   9.0887950e+02   7.1787500e+02
   9.0936160e+02   7.0182810e+02
   9.0984370e+02   6.8465820e+02
   9.1032580e+02   6.6859770e+02
   9.1080790e+02   6.5270310e+02
   9.1129000e+02   6.3415040e+02
   9.1177220e+02   6.2032710e+02
   9.1225430e+02   6.1363570e+02
   9.1273640e+02   6.0900200e+02
   9.1321850e+02   6.0163180e+02
   9.1370060e+02   5.9036720e+02
   9.1418270e+02   5.7539360e+02
   9.1466490e+02   5.5687110e+02
   9.1514700e+02   5.3513480e+02
   9.1562910e+02   4.9241020e+02
   9.1611120e+02   4.5971680e+02
   9.1659330e+02   4.7203420e+02
   9.1707540e+02   5.5140140e+02
   9.1755760e+02   5.8313090e+02
   9.1803970e+02   5.4246290e+02
   9.1852180e+02   4.8782420e+02
   9.1900390e+02   4.5298540e+02
   9.1948600e+02   4.3712790e+02
   9.1996810e+02   4.2986820e+02
   9.2045030e+02   4.3000590e+02
   9.2093240e+02   4.2415620e+02
   9.2141450e+02   3.8890720e+02
   9.2189660e+02   3.5337990e+02
   9.2237870e+02   3.4897270e+02
   9.2286080e+02   3.7769140e+02
   9.2334300e+02   3.9156250e+02
   9.2382510e+02   3.8491310e+02
   9.2430720e+02   3.5987700e+02
   9.2478930e+02   3.0392580e+02
   9.2527140e+02   2.2813670e+02
   9.2575350e+02   2.1372660e+02
   9.2623570e+02   2.5788570e+02
   9.2671780e+02   2.9832420e+02
   9.2719990e+02   2.9248340e+02
   9.2768200e+02   2.6861130e+02
   9.2816410e+02   2.5278030e+02
   9.2864620e+02   2.4317870e+02
   9.2912840e+02   2.2904880e+02
   9.2961050e+02   1.9358110e+02
   9.3009260e+02   1.7097360e+02
   9.3057470e+02   1.7449610e+02
   9.3105680e+02   1.9500980e+02
   9.3153890e+02   2.0336520e+02
   9.3202110e+02   1.9982130e+02
   9.3250320e+02   1.8508890e+02
   9.3298530e+02   1.5344630e+02
   9.3346740e+02   1.1866700e+02
   9.3394950e+02   9.4398440e+01
   9.3443160e+02   7.8817380e+01
   9.3491380e+02   6.7869140e+01
   9.3539590e+02   5.3070310e+01
   9.3587800e+02   5.3676760e+01
   9.3636010e+02   8.1006840e+01
   9.3684220e+02   1.1903220e+02
   9.3732430e+02   1.3958980e+02
   9.3780650e+02   1.4235740e+02
   9.3828860e+02   1.3474510e+02
   9.3877070e+02   1.1459770e+02
   9.3925280e+02   9.4520510e+01
   9.3973490e+02   9.4252930e+01
   9.4021700e+02   1.0194530e+02
   9.4069920e+02   9.9291020e+01
   9.4118130e+02   7.2478520e+01
   9.4166340e+02   4.9053710e+01
   9.4214550e+02   3.3460940e+01
   9.4262760e+02   2.2604490e+01
   9.4310970e+02   1.3681640e+01
   9.4359190e+02   6.7363280e+00
   9.4407400e+02   2.0839840e+00
   9.4455610e+02   4.1992001e-02
   9.4503820e+02   6.6992200e-01
   9.4552030e+02   4.0527300e-01
   9.4600240e+02   1.8662110e+00
   9.4648460e+02   3.9648400e-01
   9.4696670e+02   6.4746090e+00
   9.4744880e+02   5.9023440e+00
   9.4793090e+02   1.9177730e+01
   9.4841300e+02   3.8887700e+01
   9.4889510e+02   3.0435550e+01
   9.4937730e+02   8.3808590e+00
   9.4985940e+02   1.6668950e+01
   9.5034150e+02   7.5283200e+00
   9.5082360e+02   2.8866210e+01
   9.5130570e+02   6.3212890e+00
   9.5178780e+02   2.5313480e+01
   9.5227000e+02   1.8172850e+01
   9.5275210e+02   2.7456050e+01
   9.5323420e+02   5.9117190e+01
   9.5371630e+02   5.1228520e+01
   9.5419840e+02   3.7290040e+01
   9.5468050e+02   2.7629880e+01
   9.5516270e+02   2.1503910e+01
   9.5564480e+02   1.0825200e+01
   9.5612690e+02   4.3427730e+00
   9.5660900e+02   7.2773440e+00
   9.5709110e+02   2.1703120e+01
   9.5757320e+02   5.7831050e+01
   9.5805540e+02   7.7723630e+01
   9.5853750e+02   8.2698240e+01
   9.5901960e+02   7.6647460e+01
   9.5950170e+02   4.4610350e+01
   9.5998380e+02   2.2166990e+01
   9.6046590e+02   1.8908200e+01
   9.6094810e+02   2.6413090e+01
   9.6143020e+02   3.0832030e+01
   9.6191230e+02   3.1627930e+01
   9.6239440e+02   1.7668950e+01
   9.6287650e+02   1.8752930e+01
   9.6335860e+02   5.8173830e+01
   9.6384080e+02   8.0000980e+01
   9.6432290e+02   9.1586910e+01
   9.6480500e+02   1.0375490e+02
   9.6528710e+02   1.3692090e+02
   9.6576920e+02   1.3850980e+02
   9.6625130e+02   8.6841800e+01
   9.6673350e+02   2.8000980e+01
   9.6721560e+02   1.4541990e+01
   9.6769770e+02   4.2093750e+01
   9.6817980e+02   5.8482420e+01
   9.6866190e+02   5.8197270e+01
   9.6914400e+02   5.6556640e+01
   9.6962620e+02   7.1268550e+01
   9.7010830e+02   8.7819340e+01
   9.7059040e+02   9.0984380e+01
   9.7107250e+02   7.5594730e+01
   9.7155460e+02   6.4201170e+01
   9.7203670e+02   5.7338870e+01
   9.7251890e+02   5.5313480e+01
   9.7300100e+02   6.0549800e+01
   9.7348310e+02   7.0902340e+01
   9.7396520e+02   7.7614260e+01
   9.7444730e+02   7.9894530e+01
   9.7492940e+02   7.0714840e+01
   9.7541160e+02   2.5330080e+01
   9.7589370e+02   1.5516600e+01
   9.7637580e+02   1.2632810e+01
   9.7685790e+02   2.5250980e+01
   9.7734000e+02   3.8350590e+01
   9.7782210e+02   1.3159180e+01
   9.7830430e+02   1.0551760e+01
   9.7878640e+02   2.3211910e+01
   9.7926850e+02   2.5886720e+01
   9.7975060e+02   9.5927730e+00
   9.8023270e+02   1.6096680e+01
   9.8071480e+02   1.5276370e+01
   9.8119700e+02   5.0746090e+01
   9.8167910e+02   1.0920310e+02
   9.8216120e+02   1.1002440e+02
   9.8264330e+02   8.3720700e+01
   9.8312540e+02   7.7584960e+01
   9.8360750e+02   9.9963870e+01
   9.8408970e+02   1.2351070e+02
   9.8457180e+02   1.4891500e+02
   9.8505390e+02   1.6796680e+02
   9.8553600e+02   1.6323830e+02
   9.8601810e+02   1.4662790e+02
   9.8650020e+02   1.4466600e+02
   9.8698240e+02   1.6394530e+02
   9.8746450e+02   1.8273340e+02
   9.8794660e+02   1.8927440e+02
   9.8842870e+02   1.9349510e+02
   9.8891080e+02   2.0158690e+02
   9.8939290e+02   2.1358110e+02
   9.8987510e+02   2.2546580e+02
   9.9035720e+02   2.3604590e+02
   9.9083930e+02   2.5403030e+02
   9.9132150e+02   2.9580760e+02
   9.9180360e+02   3.4148050e+02
   9.9228570e+02   3.5242480e+02
   9.9276780e+02   3.3644240e+02
   9.9324990e+02   3.4029880e+02
   9.9373210e+02   3.9515430e+02
   9.9421420e+02   4.5987890e+02
   9.9469630e+02   5.2985350e+02
   9.9517840e+02   5.9569240e+02
   9.9566050e+02   6.2265330e+02
   9.9614260e+02   6.1211520e+02
   9.9662480e+02   6.1802830e+02
   9.9710690e+02   6.6114550e+02
   9.9758900e+02   7.2284960e+02
   9.9807110e+02   8.0236720e+02
   9.9855320e+02   8.8255570e+02
   9.9903530e+02   9.3348050e+02
   9.9951750e+02   9.1035060e+02
   9.9999960e+02   9.1514260e+02
   1.0004820e+03   9.5421680e+02
   1.0009640e+03   1.0185160e+03
   1.0014460e+03   1.1018320e+03
   1.0019280e+03   1.2035920e+03
   1.0024100e+03   1.3249410e+03
   1.0028920e+03   1.4681640e+03
   1.0033740e+03   1.5929820e+03
   1.0038570e+03   1.6444200e+03
   1.0043390e+03   1.6846950e+03
   1.0048210e+03   1.7629410e+03
   1.0053030e+03   1.8883770e+03
   1.0057850e+03   2.0177090e+03
   1.0062670e+03   2.1447310e+03
   1.0067490e+03   2.2937660e+03
   1.0072310e+03   2.4918870e+03
   1.0077130e+03   2.7167560e+03
   1.0081960e+03   2.9052950e+03
   1.0086780e+03   3.0689530e+03
   1.0091600e+03   3.2577410e+03
   1.0096420e+03   3.5091330e+03
   1.0101240e+03   3.7806390e+03
   1.0106060e+03   4.0529370e+03
   1.0110880e+03   4.3393240e+03
   1.0115700e+03   4.6696540e+03
   1.0120520e+03   5.0471480e+03
   1.0125350e+03   5.4657690e+03
   1.0130170e+03   5.9255740e+03
   1.0134990e+03   6.4225370e+03
   1.0139810e+03   6.9363420e+03
   1.0144630e+03   7.4875110e+03
   1.0149450e+03   8.1214530e+03
   1.0154270e+03   8.8697650e+03
   1.0159090e+03   9.6244100e+03
   1.0163920e+03   1.0329330e+04
   1.0168740e+03   1.1076770e+04
   1.0173560e+03   1.1934410e+04
   1.0178380e+03   1.2892500e+04
   1.0183200e+03   1.3887350e+04
   1.0188020e+03   1.4918370e+04
   1.0192840e+03   1.5978810e+04
   1.0197660e+03   1.7064640e+04
   1.0202480e+03   1.8192830e+04
   1.0207310e+03   1.9396410e+04
   1.0212130e+03   2.0660310e+04
   1.0216950e+03   2.1931250e+04
   1.0221770e+03   2.3227860e+04
   1.0226590e+03   2.4480130e+04
   1.0231410e+03   2.5661680e+04
   1.0236230e+03   2.6793960e+04
   1.0241050e+03   2.7937230e+04
   1.0245880e+03   2.9075040e+04
   1.0250700e+03   3.0130690e+04
   1.0255520e+03   3.1063940e+04
   1.0260340e+03   3.1945410e+04
   1.0265160e+03   3.2876250e+04
   1.0269980e+03   3.3724520e+04
   1.0274800e+03   3.4341880e+04
   1.0279620e+03   3.4703340e+04
   1.0284440e+03   3.4985770e+04
   1.0289270e+03   3.5212260e+04
   1.0294090e+03   3.5269380e+04
   1.0298910e+03   3.5016510e+04
   1.0303730e+03   3.4547450e+04
   1.0308550e+03   3.3986420e+04
   1.0313370e+03   3.3350400e+04
   1.0318190e+03   3.2539680e+04
   1.0323010e+03   3.1450480e+04
   1.0327830e+03   3.0274150e+04
   1.0332660e+03   2.9077440e+04
   1.0337480e+03   2.7844320e+04
   1.0342300e+03   2.6516520e+04
   1.0347120e+03   2.5097280e+04
   1.0351940e+03   2.3666630e+04
   1.0356760e+03   2.2237190e+04
   1.0361580e+03   2.0812720e+04
   1.0366400e+03   1.9366240e+04
   1.0371230e+03   1.7932890e+04
   1.0376050e+03   1.6582750e+04
   1.0380870e+03   1.5343110e+04
   1.0385690e+03   1.4138420e+04
   1.0390510e+03   1.2969360e+04
   1.0395330e+03   1.1840190e+04
   1.0400150e+03   1.0776670e+04
   1.0404970e+03   9.7771170e+03
   1.0409790e+03   8.8796640e+03
   1.0414620e+03   8.0854490e+03
   1.0419440e+03   7.3395630e+03
   1.0424260e+03   6.5937460e+03
   1.0429080e+03   5.9126990e+03
   1.0433900e+03   5.3245550e+03
   1.0438720e+03   4.8310860e+03
   1.0443540e+03   4.3487960e+03
   1.0448360e+03   3.8805200e+03
   1.0453180e+03   3.4647480e+03
   1.0458010e+03   3.1361130e+03
   1.0462830e+03   2.8514470e+03
   1.0467650e+03   2.5622490e+03
   1.0472470e+03   2.2846840e+03
   1.0477290e+03   2.0522540e+03
   1.0482110e+03   1.8902580e+03
   1.0486930e+03   1.7240830e+03
   1.0491750e+03   1.5397710e+03
   1.0496580e+03   1.3615330e+03
   1.0501400e+03   1.2254100e+03
   1.0506220e+03   1.1195080e+03
   1.0511040e+03   1.0048200e+03
   1.0515860e+03   8.7020410e+02
   1.0520680e+03   7.6575100e+02
   1.0525500e+03   7.4362010e+02
   1.0530320e+03   7.3619040e+02
   1.0535150e+03   7.0220210e+02
   1.0539970e+03   6.4213570e+02
   1.0544790e+03   5.6410060e+02
   1.0549610e+03   4.6677830e+02
   1.0554430e+03   3.9902830e+02
   1.0559250e+03   4.0490140e+02
   1.0564070e+03   4.3985550e+02
   1.0568890e+03   4.5725200e+02
   1.0573710e+03   4.6367680e+02
   1.0578540e+03   4.7587990e+02
   1.0583360e+03   4.9973540e+02
   1.0588180e+03   5.2571190e+02
   1.0593000e+03   5.5179490e+02
   1.0597820e+03   5.8100200e+02
   1.0602640e+03   6.1828520e+02
   1.0607460e+03   6.6212400e+02
   1.0612280e+03   7.0756540e+02
   1.0617100e+03   7.5317190e+02
   1.0621930e+03   8.0361230e+02
   1.0626750e+03   8.5154790e+02
   1.0631570e+03   9.1508890e+02
   1.0636390e+03   1.0028090e+03
   1.0641210e+03   1.1146210e+03
   1.0646030e+03   1.2787800e+03
   1.0650850e+03   1.5040130e+03
   1.0655670e+03   1.6820000e+03
   1.0660500e+03   1.7198380e+03
   1.0665320e+03   1.7151380e+03
   1.0670140e+03   1.7671180e+03
   1.0674960e+03   1.8656130e+03
   1.0679780e+03   1.9877720e+03
   1.0684600e+03   2.1375830e+03
   1.0689420e+03   2.2991520e+03
   1.0694240e+03   2.4730910e+03
   1.0699060e+03   2.6516670e+03
   1.0703890e+03   2.8274920e+03
   1.0708710e+03   3.0001230e+03
   1.0713530e+03   3.1762030e+03
   1.0718350e+03   3.3576690e+03
   1.0723170e+03   3.5311740e+03
   1.0727990e+03   3.6915440e+03
   1.0732810e+03   3.8416430e+03
   1.0737630e+03   3.9831890e+03
   1.0742460e+03   4.1174410e+03
   1.0747280e+03   4.2715290e+03
   1.0752100e+03   4.4460330e+03
   1.0756920e+03   4.6078910e+03
   1.0761740e+03   4.7373810e+03
   1.0766560e+03   4.8538140e+03
   1.0771380e+03   4.9818570e+03
   1.0776200e+03   5.1124730e+03
   1.0781030e+03   5.2251680e+03
   1.0785850e+03   5.3083050e+03
   1.0790670e+03   5.3805880e+03
   1.0795490e+03   5.4421740e+03
   1.0800310e+03   5.4959750e+03
   1.0805130e+03   5.5527970e+03
   1.0809950e+03   5.6026150e+03
   1.0814770e+03   5.6109930e+03
   1.0819590e+03   5.5757680e+03
   1.0824420e+03   5.5466470e+03
   1.0829240e+03   5.5731990e+03
   1.0834060e+03   5.5851180e+03
   1.0838880e+03   5.5474410e+03
   1.0843700e+03   5.4734010e+03
   1.0848520e+03   5.4115420e+03
   1.0853340e+03   5.3605000e+03
   1.0858160e+03   5.3136190e+03
   1.0862980e+03   5.2751520e+03
   1.0867810e+03   5.2390000e+03
   1.0872630e+03   5.2034840e+03
   1.0877450e+03   5.1639680e+03
   1.0882270e+03   5.1134790e+03
   1.0887090e+03   5.0396930e+03
   1.0891910e+03   4.9791860e+03
   1.0896730e+03   4.9329640e+03
   1.0901550e+03   4.8913790e+03
   1.0906380e+03   4.8572030e+03
   1.0911200e+03   4.8174820e+03
   1.0916020e+03   4.7418970e+03
   1.0920840e+03   4.6339630e+03
   1.0925660e+03   4.5295060e+03
   1.0930480e+03   4.4255830e+03
   1.0935300e+03   4.3445450e+03
   1.0940120e+03   4.3043120e+03
   1.0944950e+03   4.2833580e+03
   1.0949770e+03   4.2205820e+03
   1.0954590e+03   4.1229220e+03
   1.0959410e+03   4.0505540e+03
   1.0964230e+03   4.0304020e+03
   1.0969050e+03   4.0015740e+03
   1.0973870e+03   3.9057490e+03
   1.0978690e+03   3.7932230e+03
   1.0983510e+03   3.7073750e+03
   1.0988330e+03   3.6482290e+03
   1.0993160e+03   3.5917130e+03
   1.0997980e+03   3.5405590e+03
   1.1002800e+03   3.4918240e+03
   1.1007620e+03   3.4488980e+03
   1.1012440e+03   3.4023320e+03
   1.1017260e+03   3.3396740e+03
   1.1022080e+03   3.2640660e+03
   1.1026900e+03   3.1845130e+03
   1.1031730e+03   3.0807380e+03
   1.1036550e+03   3.0108690e+03
   1.1041370e+03   2.9967460e+03
   1.1046190e+03   2.9926470e+03
   1.1051010e+03   2.9405470e+03
   1.1055830e+03   2.8488530e+03
   1.1060650e+03   2.7292360e+03
   1.1065470e+03   2.5809790e+03
   1.1070300e+03   2.4632860e+03
   1.1075120e+03   2.4351950e+03
   1.1079940e+03   2.4110230e+03
   1.1084760e+03   2.3534820e+03
   1.1089580e+03   2.2635850e+03
   1.1094400e+03   2.1435850e+03
   1.1099220e+03   1.9977940e+03
   1.1104040e+03   1.8699230e+03
   1.1108860e+03   1.7851490e+03
   1.1113690e+03   1.7135090e+03
   1.1118510e+03   1.6393530e+03
   1.1123330e+03   1.5634090e+03
   1.1128150e+03   1.4894470e+03
   1.1132970e+03   1.4228350e+03
   1.1137790e+03   1.3285780e+03
   1.1142610e+03   1.1985700e+03
   1.1147430e+03   1.0901970e+03
   1.1152250e+03   1.0856030e+03
   1.1157080e+03   1.1126040e+03
   1.1161900e+03   1.0722490e+03
   1.1166720e+03   9.7015040e+02
   1.1171540e+03   8.8049610e+02
   1.1176360e+03   8.2920610e+02
   1.1181180e+03   7.6970020e+02
   1.1186000e+03   6.8703710e+02
   1.1190820e+03   6.0056640e+02
   1.1195650e+03   5.5216890e+02
   1.1200470e+03   5.2903320e+02
   1.1205290e+03   4.9563770e+02
   1.1210110e+03   4.3964360e+02
   1.1214930e+03   3.9350000e+02
   1.1219750e+03   3.7643550e+02
   1.1224570e+03   3.6869140e+02
   1.1229390e+03   3.6348540e+02
   1.1234220e+03   3.5909770e+02
   1.1239040e+03   3.3414750e+02
   1.1243860e+03   2.9052540e+02
   1.1248680e+03   2.4922170e+02
   1.1253500e+03   2.1592190e+02
   1.1258320e+03   1.9352050e+02
   1.1263140e+03   2.0285350e+02
   1.1267960e+03   2.1710160e+02
   1.1272780e+03   1.8587400e+02
   1.1277600e+03   9.2211910e+01
   1.1282430e+03   3.7283200e+01
   1.1287250e+03   3.2158200e+01
   1.1292070e+03   3.8616210e+01
   1.1296890e+03   1.9425780e+01
   1.1301710e+03   5.7314450e+00
   1.1306530e+03   1.4708010e+01
   1.1311350e+03   6.9980470e+00
   1.1316170e+03   6.6113300e-01
   1.1321000e+03   1.1559570e+01
   1.1325820e+03   8.7578130e+00
   1.1330640e+03   1.8683590e+01
   1.1335460e+03   5.0890620e+01
   1.1340280e+03   4.7106450e+01
   1.1345100e+03   2.4589840e+01
   1.1349920e+03   2.0785160e+01
   1.1354740e+03   5.6538090e+01
   1.1359570e+03   7.2254880e+01
   1.1364390e+03   3.9869140e+01
   1.1369210e+03   6.2187500e+00
   1.1374030e+03   2.5683600e-01
   1.1378850e+03   1.6291990e+01
   1.1383670e+03   2.7432620e+01
   1.1388490e+03   3.4061520e+01
   1.1393310e+03   3.8537110e+01
   1.1398130e+03   4.2149410e+01
   1.1402960e+03   4.3542970e+01
   1.1407780e+03   3.7739260e+01
   1.1412600e+03   3.1927730e+01
   1.1417420e+03   4.0125000e+01
   1.1422240e+03   6.2829100e+01
   1.1427060e+03   5.2549800e+01
   1.1431880e+03   3.1044920e+00
   1.1436700e+03   3.0769530e+01
   1.1441520e+03   1.1416990e+01
   1.1446350e+03   6.9990230e+01
   1.1451170e+03   1.0232230e+02
   1.1455990e+03   1.0866990e+02
   1.1460810e+03   1.1087010e+02
   1.1465630e+03   1.0919340e+02
   1.1470450e+03   1.0049120e+02
   1.1475270e+03   8.1649410e+01
   1.1480090e+03   6.2290040e+01
   1.1484920e+03   5.2423830e+01
   1.1489740e+03   5.0016600e+01
   1.1494560e+03   5.5208010e+01
   1.1499380e+03   7.5261720e+01
   1.1504200e+03   7.2609380e+01
   1.1509020e+03   3.7970700e+01
   1.1513840e+03   6.7294920e+00
   1.1518660e+03   4.7392580e+00
   1.1523490e+03   1.5541020e+01
   1.1528310e+03   1.7773400e-01
   1.1533130e+03   2.9872070e+01
   1.1537950e+03   4.3275390e+01
   1.1542770e+03   1.4384770e+01
   1.1547590e+03   1.2551760e+01
   1.1552410e+03   4.0698240e+01
   1.1557230e+03   5.1833010e+01
   1.1562050e+03   1.3318360e+01
   1.1566880e+03   5.7560550e+01
   1.1571700e+03   1.0513670e+02
   1.1576520e+03   1.2658200e+02
   1.1581340e+03   1.3306840e+02
   1.1586160e+03   1.2319040e+02
   1.1590980e+03   1.0505470e+02
   1.1595800e+03   7.1178710e+01
   1.1600620e+03   3.8437500e+01
   1.1605440e+03   6.0581050e+01
   1.1610270e+03   1.2607620e+02
   1.1615090e+03   1.4739940e+02
   1.1619910e+03   9.7020510e+01
   1.1624730e+03   5.2000000e+01
   1.1629550e+03   7.0192380e+01
   1.1634370e+03   1.0715720e+02
   1.1639190e+03   1.3678710e+02
   1.1644010e+03   1.5776660e+02
   1.1648840e+03   1.4081450e+02
   1.1653660e+03   8.7100590e+01
   1.1658480e+03   6.1476560e+01
   1.1663300e+03   1.1479590e+02
   1.1668120e+03   1.7258110e+02
   1.1672940e+03   1.6660250e+02
   1.1677760e+03   1.3130080e+02
   1.1682580e+03   1.1483590e+02
   1.1687400e+03   1.2370410e+02
   1.1692230e+03   1.3406450e+02
   1.1697050e+03   1.4563280e+02
   1.1701870e+03   1.6089550e+02
   1.1706690e+03   1.8421390e+02
   1.1711510e+03   2.1016890e+02
   1.1716330e+03   2.3654880e+02
   1.1721150e+03   2.6061430e+02
   1.1725970e+03   2.7097460e+02
   1.1730790e+03   2.5096970e+02
   1.1735620e+03   2.6688960e+02
   1.1740440e+03   3.3704390e+02
   1.1745260e+03   4.1045510e+02
   1.1750080e+03   4.1745210e+02
   1.1754900e+03   3.9645510e+02
   1.1759720e+03   4.0583300e+02
   1.1764540e+03   4.5171390e+02
   1.1769360e+03   4.8171000e+02
   1.1774190e+03   4.7668750e+02
   1.1779010e+03   4.8614940e+02
   1.1783830e+03   5.3384380e+02
   1.1788650e+03   5.9015330e+02
   1.1793470e+03   5.8360350e+02
   1.1798290e+03   5.4957520e+02
   1.1803110e+03   5.6436040e+02
   1.1807930e+03   6.6672850e+02
   1.1812760e+03   7.4727640e+02
   1.1817580e+03   7.7261720e+02
   1.1822400e+03   7.9593950e+02
   1.1827220e+03   8.5508110e+02
   1.1832040e+03   9.3173630e+02
   1.1836860e+03   9.5305470e+02
   1.1841680e+03   9.3602250e+02
   1.1846500e+03   9.3593360e+02
   1.1851320e+03   9.6996480e+02
   1.1856150e+03   1.0344580e+03
   1.1860970e+03   1.1470110e+03
   1.1865790e+03   1.2652440e+03
   1.1870610e+03   1.3428590e+03
   1.1875430e+03   1.3893520e+03
   1.1880250e+03   1.4610500e+03
   1.1885070e+03   1.5578470e+03
   1.1889890e+03   1.6573080e+03
   1.1894710e+03   1.7491200e+03
   1.1899540e+03   1.8386720e+03
   1.1904360e+03   1.9177480e+03
   1.1909180e+03   2.0028820e+03
   1.1914000e+03   2.1295120e+03
   1.1918820e+03   2.2928360e+03
   1.1923640e+03   2.4394320e+03
   1.1928460e+03   2.5605810e+03
   1.1933280e+03   2.6738550e+03
   1.1938110e+03   2.7919300e+03
   1.1942930e+03   2.9089970e+03
   1.1947750e+03   3.0193370e+03
   1.1952570e+03   3.1243450e+03
   1.1957390e+03   3.2264310e+03
   1.1962210e+03   3.3264470e+03
   1.1967030e+03   3.4453420e+03
   1.1971850e+03   3.6001160e+03
   1.1976670e+03   3.7393680e+03
   1.1981500e+03   3.8233640e+03
   1.1986320e+03   3.8758430e+03
   1.1991140e+03   3.9229650e+03
   1.1995960e+03   3.9651810e+03
   1.2000780e+03   3.9613100e+03
   1.2005600e+03   3.9135780e+03
   1.2010420e+03   3.8579420e+03
   1.2015240e+03   3.8079850e+03
   1.2020060e+03   3.7530460e+03
   1.2024890e+03   3.6998250e+03
   1.2029710e+03   3.6276770e+03
   1.2034530e+03   3.5046770e+03
   1.2039350e+03   3.3157140e+03
   1.2044170e+03   3.1613370e+03
   1.2048990e+03   3.0457480e+03
   1.2053810e+03   2.9256990e+03
   1.2058630e+03   2.7532640e+03
   1.2063460e+03   2.5758660e+03
   1.2068280e+03   2.4478160e+03
   1.2073100e+03   2.3438810e+03
   1.2077920e+03   2.1932540e+03
   1.2082740e+03   1.9772300e+03
   1.2087560e+03   1.8123130e+03
   1.2092380e+03   1.7139590e+03
   1.2097200e+03   1.6401330e+03
   1.2102030e+03   1.5688270e+03
   1.2106850e+03   1.4921210e+03
   1.2111670e+03   1.3899910e+03
   1.2116490e+03   1.2687140e+03
   1.2121310e+03   1.1936970e+03
   1.2126130e+03   1.1770660e+03
   1.2130950e+03   1.1453500e+03
   1.2135770e+03   1.0826900e+03
   1.2140590e+03   1.0075550e+03
   1.2145420e+03   9.2834380e+02
   1.2150240e+03   8.5012400e+02
   1.2155060e+03   7.7905270e+02
   1.2159880e+03   7.1726660e+02
   1.2164700e+03   6.6534080e+02
   1.2169520e+03   6.2198730e+02
   1.2174340e+03   5.8813570e+02
   1.2179160e+03   5.6563090e+02
   1.2183980e+03   5.4975100e+02
   1.2188810e+03   5.3440720e+02
   1.2193630e+03   5.1880960e+02
   1.2198450e+03   5.0027930e+02
   1.2203270e+03   4.7149900e+02
   1.2208090e+03   4.7079590e+02
   1.2212910e+03   5.0607320e+02
   1.2217730e+03   5.3290330e+02
   1.2222550e+03   5.1832710e+02
   1.2227380e+03   4.8071190e+02
   1.2232200e+03   4.3134960e+02
   1.2237020e+03   3.7659470e+02
   1.2241840e+03   3.3181540e+02
   1.2246660e+03   2.9138870e+02
   1.2251480e+03   2.7584960e+02
   1.2256300e+03   2.8866110e+02
   1.2261120e+03   3.1287210e+02
   1.2265940e+03   3.5747850e+02
   1.2270770e+03   3.9043070e+02
   1.2275590e+03   3.5381150e+02
   1.2280410e+03   2.6883010e+02
   1.2285230e+03   2.1017680e+02
   1.2290050e+03   1.8644040e+02
   1.2294870e+03   1.8658200e+02
   1.2299690e+03   2.1359470e+02
   1.2304510e+03   2.4666800e+02
   1.2309330e+03   2.7232620e+02
   1.2314160e+03   2.8566020e+02
   1.2318980e+03   2.7602440e+02
   1.2323800e+03   2.4619340e+02
   1.2328620e+03   2.1763670e+02
   1.2333440e+03   1.8633400e+02
   1.2338260e+03   1.7647460e+02
   1.2343080e+03   1.9728120e+02
   1.2347900e+03   2.2577250e+02
   1.2352730e+03   2.4288570e+02
   1.2357550e+03   2.4518070e+02
   1.2362370e+03   2.1893850e+02
   1.2367190e+03   1.6212500e+02
   1.2372010e+03   1.4227930e+02
   1.2376830e+03   1.7522270e+02
   1.2381650e+03   1.8885450e+02
   1.2386470e+03   1.5298050e+02
   1.2391300e+03   1.0785450e+02
   1.2396120e+03   1.1443070e+02
   1.2400940e+03   1.4028710e+02
   1.2405760e+03   1.4093750e+02
   1.2410580e+03   1.0120020e+02
   1.2415400e+03   8.6800780e+01
   1.2420220e+03   1.0326170e+02
   1.2425040e+03   1.1922270e+02
   1.2429860e+03   1.1832420e+02
   1.2434690e+03   1.1366110e+02
   1.2439510e+03   1.3192970e+02
   1.2444330e+03   1.5311820e+02
   1.2449150e+03   1.4217380e+02
   1.2453970e+03   7.8021480e+01
   1.2458790e+03   4.9821290e+01
   1.2463610e+03   6.2568360e+01
   1.2468430e+03   7.7429690e+01
   1.2473260e+03   6.8750980e+01
   1.2478080e+03   5.1362300e+01
   1.2482900e+03   3.7351560e+01
   1.2487720e+03   2.7797850e+01
   1.2492540e+03   2.7337890e+01
   1.2497360e+03   4.3136720e+01
   1.2502180e+03   3.7256840e+01
   1.2507000e+03   5.4443360e+00
   1.2511820e+03   1.8394530e+01
   1.2516650e+03   2.5166020e+00
   1.2521470e+03   2.8092770e+01
   1.2526290e+03   5.4026370e+01
   1.2531110e+03   7.4912110e+01
   1.2535930e+03   9.4600590e+01
   1.2540750e+03   1.1743360e+02
   1.2545570e+03   1.0984380e+02
   1.2550390e+03   6.5451170e+01
   1.2555210e+03   2.6627930e+01
   1.2560040e+03   3.4521480e+01
   1.2564860e+03   5.8991210e+01
   1.2569680e+03   8.2615230e+01
   1.2574500e+03   1.0105960e+02
   1.2579320e+03   1.0372850e+02
   1.2584140e+03   8.8761720e+01
   1.2588960e+03   7.9526370e+01
   1.2593780e+03   8.0218750e+01
   1.2598610e+03   8.1301760e+01
   1.2603430e+03   6.4381840e+01
   1.2608250e+03   5.3692380e+01
   1.2613070e+03   8.2060550e+01
   1.2617890e+03   1.3241310e+02
   1.2622710e+03   1.3994630e+02
   1.2627530e+03   1.0494730e+02
   1.2632350e+03   7.0472660e+01
   1.2637180e+03   4.2913090e+01
   1.2642000e+03   3.7152340e+01
   1.2646820e+03   1.0008010e+02
   1.2651640e+03   1.5554980e+02
   1.2656460e+03   1.3313670e+02
   1.2661280e+03   5.7215820e+01
   1.2666100e+03   5.5958980e+01
   1.2670920e+03   1.2085640e+02
   1.2675740e+03   1.6965430e+02
   1.2680570e+03   1.7830570e+02
   1.2685390e+03   1.6915920e+02
   1.2690210e+03   1.4137300e+02
   1.2695030e+03   1.1371190e+02
   1.2699850e+03   9.7525390e+01
   1.2704670e+03   9.1492190e+01
   1.2709490e+03   9.4772460e+01
   1.2714310e+03   1.0357420e+02
   1.2719130e+03   9.7941410e+01
   1.2723960e+03   6.4023440e+01
   1.2728780e+03   3.1630860e+01
   1.2733600e+03   2.4218800e-01
   1.2738420e+03   9.5419920e+00
   1.2743240e+03   3.0920900e+01
   1.2748060e+03   9.7764650e+01
   1.2752880e+03   1.0892870e+02
   1.2757700e+03   7.2674800e+01
   1.2762530e+03   4.1031250e+01
   1.2767350e+03   3.7112300e+01
   1.2772170e+03   3.8136720e+01
   1.2776990e+03   4.6202150e+01
   1.2781810e+03   4.7457030e+01
   1.2786630e+03   1.3249020e+01
   1.2791450e+03   3.2287110e+01
   1.2796270e+03   1.3848630e+01
   1.2801090e+03   1.2102830e+02
   1.2805920e+03   1.8616210e+02
   1.2810740e+03   1.3055860e+02
   1.2815560e+03   8.9565430e+01
   1.2820380e+03   7.8351560e+01
   1.2825200e+03   7.7393550e+01
   1.2830020e+03   7.2752930e+01
   1.2834840e+03   6.4480470e+01
   1.2839660e+03   4.5890620e+01
   1.2844480e+03   2.3032230e+01
   1.2849310e+03   1.9095700e+01
   1.2854130e+03   5.5119140e+01
   1.2858950e+03   7.4064450e+01
   1.2863770e+03   8.4871090e+01
   1.2868590e+03   8.8783200e+01
   1.2873410e+03   9.5122070e+01
   1.2878230e+03   9.6646480e+01
   1.2883050e+03   7.6823240e+01
   1.2887880e+03   2.7224610e+01
   1.2892700e+03   3.7529300e+00
   1.2897520e+03   8.5458980e+00
   1.2902340e+03   3.7207030e+00
   1.2907160e+03   2.1417970e+01
   1.2911980e+03   4.8358400e+01
   1.2916800e+03   6.3227540e+01
   1.2921620e+03   7.2585940e+01
   1.2926450e+03   7.7136720e+01
   1.2931270e+03   7.7289060e+01
   1.2936090e+03   7.3520510e+01
   1.2940910e+03   4.8250980e+01
   1.2945730e+03   4.5961910e+01
   1.2950550e+03   5.2057620e+01
   1.2955370e+03   5.5662110e+01
   1.2960190e+03   5.4312500e+01
   1.2965010e+03   4.7390620e+01
   1.2969840e+03   2.6208980e+01
   1.2974660e+03   0.0000000e+00
   1.5000000e+03   0.0000000e+00
