   9.0595700e+01   0.0000000e+00
   9.1077820e+01   3.7261230e+01
   9.1559940e+01   8.5654300e+01
   9.2042050e+01   1.3814600e+02
   9.2524170e+01   1.8964550e+02
   9.3006290e+01   2.3318970e+02
   9.3488400e+01   2.4465940e+02
   9.3970520e+01   2.1069970e+02
   9.4452640e+01   1.4691700e+02
   9.4934750e+01   1.0801510e+02
   9.5416870e+01   8.2351070e+01
   9.5898980e+01   7.7969240e+01
   9.6381100e+01   8.1600340e+01
   9.6863210e+01   8.3437740e+01
   9.7345330e+01   7.7691890e+01
   9.7827450e+01   6.1146240e+01
   9.8309560e+01   5.3721680e+01
   9.8791680e+01   5.7036870e+01
   9.9273800e+01   6.0632320e+01
   9.9755910e+01   6.3260740e+01
   1.0023800e+02   6.6815670e+01
   1.0072010e+02   7.0376460e+01
   1.0120230e+02   7.4453120e+01
   1.0168440e+02   7.7975590e+01
   1.0216650e+02   8.1464360e+01
   1.0264860e+02   8.3362790e+01
   1.0313070e+02   9.6881350e+01
   1.0361280e+02   1.3162770e+02
   1.0409500e+02   1.7409520e+02
   1.0457710e+02   2.2118380e+02
   1.0505920e+02   2.7726680e+02
   1.0554130e+02   3.2897880e+02
   1.0602340e+02   3.6197020e+02
   1.0650550e+02   3.7410420e+02
   1.0698770e+02   3.7479880e+02
   1.0746980e+02   3.9106570e+02
   1.0795190e+02   4.3833960e+02
   1.0843400e+02   4.8766500e+02
   1.0891610e+02   5.3627640e+02
   1.0939820e+02   5.7965060e+02
   1.0988040e+02   6.0898440e+02
   1.1036250e+02   6.1497090e+02
   1.1084460e+02   5.9417970e+02
   1.1132670e+02   5.6657420e+02
   1.1180880e+02   5.3814700e+02
   1.1229090e+02   4.9897510e+02
   1.1277310e+02   4.3924680e+02
   1.1325520e+02   3.6029570e+02
   1.1373730e+02   2.7307400e+02
   1.1421940e+02   1.9341970e+02
   1.1470150e+02   1.1759790e+02
   1.1518360e+02   5.8290040e+01
   1.1566580e+02   1.8617190e+01
   1.1614790e+02   7.3684080e+00
   1.1663000e+02   2.3811280e+01
   1.1711210e+02   3.1980220e+01
   1.1759420e+02   3.4280520e+01
   1.1807630e+02   3.5748050e+01
   1.1855840e+02   3.7873290e+01
   1.1904060e+02   3.6911870e+01
   1.1952270e+02   3.2490230e+01
   1.2000480e+02   2.4048340e+01
   1.2048690e+02   1.0347170e+01
   1.2096900e+02   9.7551270e+00
   1.2145110e+02   3.5703860e+01
   1.2193330e+02   6.4035640e+01
   1.2241540e+02   9.4585940e+01
   1.2289750e+02   1.3020000e+02
   1.2337960e+02   1.7250070e+02
   1.2386170e+02   2.2189060e+02
   1.2434380e+02   2.7403000e+02
   1.2482600e+02   3.2654520e+02
   1.2530810e+02   3.8059770e+02
   1.2579020e+02   4.3709670e+02
   1.2627230e+02   4.9482540e+02
   1.2675440e+02   5.5456980e+02
   1.2723650e+02   6.2022190e+02
   1.2771870e+02   6.9610940e+02
   1.2820080e+02   7.7296680e+02
   1.2868290e+02   8.4488180e+02
   1.2916500e+02   9.1619020e+02
   1.2964710e+02   9.9319650e+02
   1.3012920e+02   1.0803420e+03
   1.3061140e+02   1.1767820e+03
   1.3109350e+02   1.2708840e+03
   1.3157560e+02   1.3671680e+03
   1.3205770e+02   1.4570210e+03
   1.3253980e+02   1.5454040e+03
   1.3302190e+02   1.6263270e+03
   1.3350410e+02   1.6882970e+03
   1.3398620e+02   1.7225520e+03
   1.3446830e+02   1.7282290e+03
   1.3495040e+02   1.7014110e+03
   1.3543250e+02   1.6311090e+03
   1.3591460e+02   1.5444460e+03
   1.3639680e+02   1.4496330e+03
   1.3687890e+02   1.3503580e+03
   1.3736100e+02   1.2552770e+03
   1.3784310e+02   1.1738840e+03
   1.3832520e+02   1.1063410e+03
   1.3880730e+02   1.0602560e+03
   1.3928950e+02   1.0398690e+03
   1.3977160e+02   1.0394970e+03
   1.4025370e+02   1.0541850e+03
   1.4073580e+02   1.0840770e+03
   1.4121790e+02   1.1260370e+03
   1.4170000e+02   1.1772890e+03
   1.4218210e+02   1.2363130e+03
   1.4266430e+02   1.3033020e+03
   1.4314640e+02   1.3826070e+03
   1.4362850e+02   1.4707980e+03
   1.4411060e+02   1.5581560e+03
   1.4459270e+02   1.6509380e+03
   1.4507480e+02   1.7306190e+03
   1.4555700e+02   1.7886100e+03
   1.4603910e+02   1.8244060e+03
   1.4652120e+02   1.8351830e+03
   1.4700330e+02   1.8182530e+03
   1.4748540e+02   1.7731870e+03
   1.4796750e+02   1.7034200e+03
   1.4844970e+02   1.6002100e+03
   1.4893180e+02   1.4806590e+03
   1.4941390e+02   1.3521460e+03
   1.4989600e+02   1.2177470e+03
   1.5037810e+02   1.0817900e+03
   1.5086020e+02   9.5066650e+02
   1.5134240e+02   8.1840760e+02
   1.5182450e+02   7.0337980e+02
   1.5230660e+02   6.0754080e+02
   1.5278870e+02   5.2473630e+02
   1.5327080e+02   4.5022230e+02
   1.5375290e+02   3.8258920e+02
   1.5423510e+02   3.2173560e+02
   1.5471720e+02   2.6769730e+02
   1.5519930e+02   2.2299520e+02
   1.5568140e+02   1.8367660e+02
   1.5616350e+02   1.5042430e+02
   1.5664560e+02   1.2211450e+02
   1.5712780e+02   9.8197510e+01
   1.5760990e+02   7.8479250e+01
   1.5809200e+02   6.2295650e+01
   1.5857410e+02   4.7043820e+01
   1.5905620e+02   3.0977050e+01
   1.5953830e+02   1.7506100e+01
   1.6002050e+02   7.8022460e+00
   1.6050260e+02   1.3493650e+00
   1.6098470e+02   2.8438720e+00
   1.6146680e+02   5.0477290e+00
   1.6194890e+02   5.4095460e+00
   1.6243100e+02   4.9615480e+00
   1.6291310e+02   3.2509770e+00
   1.6339530e+02   1.0368650e+00
   1.6387740e+02   1.2932130e+00
   1.6435950e+02   3.7431640e+00
   1.6484160e+02   6.5224610e+00
   1.6532370e+02   9.4328610e+00
   1.6580580e+02   1.3228520e+01
   1.6628800e+02   1.9003780e+01
   1.6677010e+02   2.7726680e+01
   1.6725220e+02   3.7655760e+01
   1.6773430e+02   4.6483760e+01
   1.6821640e+02   5.3733150e+01
   1.6869850e+02   6.2178710e+01
   1.6918070e+02   7.3655520e+01
   1.6966280e+02   8.7190920e+01
   1.7014490e+02   1.0198410e+02
   1.7062700e+02   1.1767520e+02
   1.7110910e+02   1.3407710e+02
   1.7159120e+02   1.5132350e+02
   1.7207340e+02   1.6919170e+02
   1.7255550e+02   1.8810130e+02
   1.7303760e+02   2.0814250e+02
   1.7351970e+02   2.2879820e+02
   1.7400180e+02   2.4920250e+02
   1.7448390e+02   2.6885990e+02
   1.7496610e+02   2.8879590e+02
   1.7544820e+02   3.1245190e+02
   1.7593030e+02   3.4287950e+02
   1.7641240e+02   3.7419230e+02
   1.7689450e+02   4.0310990e+02
   1.7737660e+02   4.3219960e+02
   1.7785880e+02   4.6590760e+02
   1.7834090e+02   5.0841110e+02
   1.7882300e+02   5.6017500e+02
   1.7930510e+02   6.0925780e+02
   1.7978720e+02   6.5664880e+02
   1.8026930e+02   6.9991160e+02
   1.8075150e+02   7.3947680e+02
   1.8123360e+02   7.7430200e+02
   1.8171570e+02   8.0227660e+02
   1.8219780e+02   8.2213010e+02
   1.8267990e+02   8.3423560e+02
   1.8316200e+02   8.3103260e+02
   1.8364410e+02   8.1057400e+02
   1.8412630e+02   7.8048660e+02
   1.8460840e+02   7.4232240e+02
   1.8509050e+02   6.9732710e+02
   1.8557260e+02   6.4804850e+02
   1.8605470e+02   5.9653940e+02
   1.8653680e+02   5.4238930e+02
   1.8701900e+02   4.8963270e+02
   1.8750110e+02   4.3607240e+02
   1.8798320e+02   3.8578270e+02
   1.8846530e+02   3.4213270e+02
   1.8894740e+02   3.0559840e+02
   1.8942960e+02   2.7337670e+02
   1.8991170e+02   2.4294130e+02
   1.9039380e+02   2.1465720e+02
   1.9087590e+02   1.9073890e+02
   1.9135800e+02   1.7224910e+02
   1.9184010e+02   1.5804770e+02
   1.9232230e+02   1.4737280e+02
   1.9280440e+02   1.4044870e+02
   1.9328650e+02   1.3535790e+02
   1.9376860e+02   1.3003750e+02
   1.9425070e+02   1.2487810e+02
   1.9473280e+02   1.2200830e+02
   1.9521500e+02   1.2244310e+02
   1.9569710e+02   1.2553650e+02
   1.9617920e+02   1.3034950e+02
   1.9666130e+02   1.3749630e+02
   1.9714340e+02   1.4480530e+02
   1.9762550e+02   1.4953930e+02
   1.9810770e+02   1.5295360e+02
   1.9858980e+02   1.5846720e+02
   1.9907190e+02   1.6915940e+02
   1.9955400e+02   1.8379710e+02
   2.0003610e+02   1.9635830e+02
   2.0051820e+02   2.0368350e+02
   2.0100040e+02   2.1329480e+02
   2.0148250e+02   2.2937390e+02
   2.0196460e+02   2.5054130e+02
   2.0244670e+02   2.7316420e+02
   2.0292880e+02   2.9417160e+02
   2.0341090e+02   3.1389750e+02
   2.0389300e+02   3.3750120e+02
   2.0437520e+02   3.6692640e+02
   2.0485730e+02   3.9867600e+02
   2.0533940e+02   4.3129830e+02
   2.0582150e+02   4.6488850e+02
   2.0630360e+02   5.0015820e+02
   2.0678570e+02   5.3759240e+02
   2.0726790e+02   5.7721880e+02
   2.0775000e+02   6.1862270e+02
   2.0823210e+02   6.6301150e+02
   2.0871420e+02   7.0826620e+02
   2.0919630e+02   7.5517150e+02
   2.0967840e+02   8.0254590e+02
   2.1016060e+02   8.4814360e+02
   2.1064270e+02   8.9044710e+02
   2.1112480e+02   9.2959390e+02
   2.1160690e+02   9.6162990e+02
   2.1208900e+02   9.9009230e+02
   2.1257110e+02   1.0087790e+03
   2.1305330e+02   1.0145940e+03
   2.1353540e+02   1.0081180e+03
   2.1401750e+02   9.9192190e+02
   2.1449960e+02   9.6813390e+02
   2.1498170e+02   9.3644200e+02
   2.1546380e+02   8.9706020e+02
   2.1594600e+02   8.4639610e+02
   2.1642810e+02   7.9307080e+02
   2.1691020e+02   7.3977250e+02
   2.1739230e+02   6.8740090e+02
   2.1787440e+02   6.3569580e+02
   2.1835650e+02   5.8424330e+02
   2.1883870e+02   5.3269270e+02
   2.1932080e+02   4.8710110e+02
   2.1980290e+02   4.4988730e+02
   2.2028500e+02   4.1588310e+02
   2.2076710e+02   3.8219480e+02
   2.2124920e+02   3.4869490e+02
   2.2173140e+02   3.1655180e+02
   2.2221350e+02   2.8652770e+02
   2.2269560e+02   2.5896060e+02
   2.2317770e+02   2.3391960e+02
   2.2365980e+02   2.1144650e+02
   2.2414190e+02   1.9134920e+02
   2.2462400e+02   1.7390870e+02
   2.2510620e+02   1.5903630e+02
   2.2558830e+02   1.4601540e+02
   2.2607040e+02   1.3489050e+02
   2.2655250e+02   1.2539770e+02
   2.2703460e+02   1.1504830e+02
   2.2751670e+02   1.0223390e+02
   2.2799890e+02   8.9481200e+01
   2.2848100e+02   7.9230960e+01
   2.2896310e+02   7.1642090e+01
   2.2944520e+02   6.5390990e+01
   2.2992730e+02   6.0414310e+01
   2.3040940e+02   5.6117550e+01
   2.3089160e+02   5.0789430e+01
   2.3137370e+02   4.2387700e+01
   2.3185580e+02   3.3873900e+01
   2.3233790e+02   2.9070560e+01
   2.3282000e+02   2.8448730e+01
   2.3330210e+02   2.8296630e+01
   2.3378430e+02   2.5946530e+01
   2.3426640e+02   2.2427120e+01
   2.3474850e+02   1.9377810e+01
   2.3523060e+02   1.7205200e+01
   2.3571270e+02   1.5675540e+01
   2.3619480e+02   1.4743650e+01
   2.3667700e+02   1.4674800e+01
   2.3715910e+02   1.4007320e+01
   2.3764120e+02   1.0874150e+01
   2.3812330e+02   7.0072020e+00
   2.3860540e+02   4.3020630e+00
   2.3908750e+02   3.3353270e+00
   2.3956970e+02   3.7717290e+00
   2.4005180e+02   5.7684330e+00
   2.4053390e+02   1.0374450e+01
   2.4101600e+02   1.3101620e+01
   2.4149810e+02   1.0040770e+01
   2.4198020e+02   5.2438960e+00
   2.4246240e+02   2.7556150e+00
   2.4294450e+02   4.3034060e+00
   2.4342660e+02   7.6171880e+00
   2.4390870e+02   8.7071530e+00
   2.4439080e+02   6.7410890e+00
   2.4487290e+02   4.7789310e+00
   2.4535500e+02   3.1156010e+00
   2.4583720e+02   2.0837400e+00
   2.4631930e+02   2.3070070e+00
   2.4680140e+02   4.0616460e+00
   2.4728350e+02   6.3134770e+00
   2.4776560e+02   7.0653690e+00
   2.4824770e+02   5.5517580e+00
   2.4872990e+02   4.2506710e+00
   2.4921200e+02   3.8557740e+00
   2.4969410e+02   3.7062990e+00
   2.5017620e+02   3.3271480e+00
   2.5065830e+02   2.5792850e+00
   2.5114040e+02   1.6352540e+00
   2.5162260e+02   7.4987800e-01
   2.5210470e+02   8.5399998e-04
   2.5258680e+02   8.1878700e-01
   2.5306890e+02   2.1700440e+00
   2.5355100e+02   3.2715450e+00
   2.5403310e+02   3.3499760e+00
   2.5451530e+02   2.2843020e+00
   2.5499740e+02   8.4234600e-01
   2.5547950e+02   1.5087900e-01
   2.5596160e+02   2.2723400e-01
   2.5644370e+02   1.1362920e+00
   2.5692580e+02   4.0458370e+00
   2.5740800e+02   6.7302860e+00
   2.5789010e+02   7.7111210e+00
   2.5837220e+02   6.7689820e+00
   2.5885430e+02   4.7042240e+00
   2.5933640e+02   2.3848270e+00
   2.5981850e+02   7.9956100e-01
   2.6030070e+02   2.2946170e+00
   2.6078280e+02   1.1613770e+00
   2.6126490e+02   5.6250000e-01
   2.6174700e+02   1.9761350e+00
   2.6222910e+02   2.8021850e+00
   2.6271120e+02   2.8742680e+00
   2.6319340e+02   1.8934940e+00
   2.6367550e+02   6.2109400e-01
   2.6415760e+02   2.4258420e+00
   2.6463970e+02   3.3255620e+00
   2.6512180e+02   3.8284910e+00
   2.6560390e+02   4.2288210e+00
   2.6608610e+02   4.5226440e+00
   2.6656820e+02   4.4233400e+00
   2.6705030e+02   3.4809570e+00
   2.6753240e+02   1.3248290e+00
   2.6801450e+02   9.3438700e-01
   2.6849660e+02   4.5723270e+00
   2.6897880e+02   7.5649410e+00
   2.6946090e+02   6.8206790e+00
   2.6994300e+02   3.0731200e+00
   2.7042510e+02   4.4812000e-01
   2.7090720e+02   9.5715300e-01
   2.7138930e+02   1.7103880e+00
   2.7187150e+02   2.8182370e+00
   2.7235360e+02   1.2727050e+00
   2.7283570e+02   3.9856000e-01
   2.7331780e+02   1.1843260e+00
   2.7379990e+02   1.2067870e+00
   2.7428200e+02   1.0420530e+00
   2.7476420e+02   1.1213380e+00
   2.7524630e+02   1.3707890e+00
   2.7572840e+02   7.8887900e-01
   2.7621050e+02   9.2144800e-01
   2.7669260e+02   2.9105830e+00
   2.7717470e+02   5.4302980e+00
   2.7765680e+02   8.0302730e+00
   2.7813890e+02   9.7847290e+00
   2.7862110e+02   1.0189640e+01
   2.7910320e+02   9.3815310e+00
   2.7958530e+02   7.7985230e+00
   2.8006740e+02   4.1648560e+00
   2.8054950e+02   1.3962400e+00
   2.8103160e+02   8.4393300e-01
   2.8151380e+02   1.5697020e+00
   2.8199590e+02   1.7869870e+00
   2.8247800e+02   6.3122600e-01
   2.8296010e+02   1.1530760e+00
   2.8344220e+02   1.5435790e+00
   2.8392430e+02   1.2652600e-01
   2.8440650e+02   1.5689090e+00
   2.8488860e+02   3.2450560e+00
   2.8537070e+02   5.0194090e+00
   2.8585280e+02   7.0708010e+00
   2.8633490e+02   9.4705810e+00
   2.8681700e+02   1.2206670e+01
   2.8729920e+02   1.5526860e+01
   2.8778130e+02   2.0028810e+01
   2.8826340e+02   2.3102420e+01
   2.8874550e+02   2.3753110e+01
   2.8922760e+02   2.2954280e+01
   2.8970970e+02   2.1459170e+01
   2.9019190e+02   1.9429570e+01
   2.9067400e+02   1.7775330e+01
   2.9115610e+02   1.7851380e+01
   2.9163820e+02   1.9899480e+01
   2.9212030e+02   2.1891110e+01
   2.9260240e+02   2.4030090e+01
   2.9308460e+02   2.5720520e+01
   2.9356670e+02   2.5557070e+01
   2.9404880e+02   2.3411190e+01
   2.9453090e+02   2.2283200e+01
   2.9501300e+02   2.5662960e+01
   2.9549510e+02   3.3652040e+01
   2.9597730e+02   3.9210940e+01
   2.9645940e+02   4.0458560e+01
   2.9694150e+02   4.0607910e+01
   2.9742360e+02   4.1762940e+01
   2.9790570e+02   4.3925290e+01
   2.9838780e+02   4.6645080e+01
   2.9887000e+02   4.9890990e+01
   2.9935210e+02   5.3521850e+01
   2.9983420e+02   5.6457090e+01
   3.0031630e+02   5.7624450e+01
   3.0079840e+02   5.9319150e+01
   3.0128050e+02   6.3159240e+01
   3.0176270e+02   6.8570310e+01
   3.0224480e+02   7.3715390e+01
   3.0272690e+02   7.7932010e+01
   3.0320900e+02   8.1480220e+01
   3.0369110e+02   8.4774780e+01
   3.0417320e+02   8.6760130e+01
   3.0465540e+02   8.9321040e+01
   3.0513750e+02   9.3859070e+01
   3.0561960e+02   9.9755800e+01
   3.0610170e+02   1.0529830e+02
   3.0658380e+02   1.0973450e+02
   3.0706590e+02   1.1398240e+02
   3.0754810e+02   1.1979120e+02
   3.0803020e+02   1.2728900e+02
   3.0851230e+02   1.3503820e+02
   3.0899440e+02   1.4328420e+02
   3.0947650e+02   1.5144830e+02
   3.0995860e+02   1.5794510e+02
   3.1044080e+02   1.6192660e+02
   3.1092290e+02   1.6511380e+02
   3.1140500e+02   1.7038940e+02
   3.1188710e+02   1.7802040e+02
   3.1236920e+02   1.8477330e+02
   3.1285130e+02   1.8948250e+02
   3.1333350e+02   1.9303110e+02
   3.1381560e+02   1.9713960e+02
   3.1429770e+02   2.0214260e+02
   3.1477980e+02   2.0570890e+02
   3.1526190e+02   2.0508840e+02
   3.1574400e+02   2.0053090e+02
   3.1622620e+02   1.9672520e+02
   3.1670830e+02   1.9479900e+02
   3.1719040e+02   1.9329530e+02
   3.1767250e+02   1.9143470e+02
   3.1815460e+02   1.8900060e+02
   3.1863670e+02   1.8508470e+02
   3.1911880e+02   1.7850790e+02
   3.1960100e+02   1.6992800e+02
   3.2008310e+02   1.6272740e+02
   3.2056520e+02   1.5827970e+02
   3.2104730e+02   1.5382200e+02
   3.2152940e+02   1.4780570e+02
   3.2201150e+02   1.4049980e+02
   3.2249370e+02   1.3242530e+02
   3.2297580e+02   1.2314830e+02
   3.2345790e+02   1.1415800e+02
   3.2394000e+02   1.1001780e+02
   3.2442210e+02   1.1389840e+02
   3.2490420e+02   1.1497930e+02
   3.2538640e+02   1.0701410e+02
   3.2586850e+02   9.3999820e+01
   3.2635060e+02   8.3346740e+01
   3.2683270e+02   7.7415040e+01
   3.2731480e+02   7.4242680e+01
   3.2779690e+02   7.1262020e+01
   3.2827910e+02   6.8614870e+01
   3.2876120e+02   6.5399230e+01
   3.2924330e+02   6.0472410e+01
   3.2972540e+02   5.5380740e+01
   3.3020750e+02   5.2317080e+01
   3.3068960e+02   5.1655760e+01
   3.3117180e+02   5.1332280e+01
   3.3165390e+02   4.9201230e+01
   3.3213600e+02   4.5088560e+01
   3.3261810e+02   4.1539610e+01
   3.3310020e+02   3.8558040e+01
   3.3358230e+02   3.6248470e+01
   3.3406450e+02   3.4960450e+01
   3.3454660e+02   3.4562130e+01
   3.3502870e+02   3.4279660e+01
   3.3551080e+02   3.3728700e+01
   3.3599290e+02   3.2797850e+01
   3.3647500e+02   3.1008610e+01
   3.3695720e+02   2.7315250e+01
   3.3743930e+02   2.3917240e+01
   3.3792140e+02   2.1908200e+01
   3.3840350e+02   2.0891660e+01
   3.3888560e+02   1.9735470e+01
   3.3936770e+02   1.7734620e+01
   3.3984990e+02   1.5690490e+01
   3.4033200e+02   1.6175420e+01
   3.4081410e+02   2.1723570e+01
   3.4129620e+02   2.4828000e+01
   3.4177830e+02   2.2056150e+01
   3.4226040e+02   1.6811040e+01
   3.4274260e+02   1.3669250e+01
   3.4322470e+02   1.3951840e+01
   3.4370680e+02   1.5577150e+01
   3.4418890e+02   1.5735660e+01
   3.4467100e+02   1.3900090e+01
   3.4515310e+02   1.1845580e+01
   3.4563530e+02   8.7207030e+00
   3.4611740e+02   5.9966430e+00
   3.4659950e+02   5.4072880e+00
   3.4708160e+02   6.7581180e+00
   3.4756370e+02   7.8143920e+00
   3.4804580e+02   6.4375000e+00
   3.4852800e+02   2.4559330e+00
   3.4901010e+02   4.2883300e-01
   3.4949220e+02   2.0207520e+00
   3.4997430e+02   2.9161380e+00
   3.5045640e+02   3.2383420e+00
   3.5093850e+02   3.0478520e+00
   3.5142070e+02   2.3004760e+00
   3.5190280e+02   8.8806200e-01
   3.5238490e+02   9.1137700e-01
   3.5286700e+02   1.8860470e+00
   3.5334910e+02   2.2197270e+00
   3.5383120e+02   1.5192260e+00
   3.5431340e+02   1.7600710e+00
   3.5479550e+02   5.5108640e+00
   3.5527760e+02   6.9956670e+00
   3.5575970e+02   5.3077390e+00
   3.5624180e+02   2.1192630e+00
   3.5672390e+02   1.9024700e-01
   3.5720610e+02   2.0123300e-01
   3.5768820e+02   3.2153300e-01
   3.5817030e+02   3.3153690e+00
   3.5865240e+02   5.9926760e+00
   3.5913450e+02   5.4631960e+00
   3.5961660e+02   2.1441650e+00
   3.6009870e+02   4.1095000e-01
   3.6058080e+02   1.7171020e+00
   3.6106300e+02   9.4012450e+00
   3.6154510e+02   1.3272030e+01
   3.6202720e+02   1.0636840e+01
   3.6250930e+02   7.2730100e+00
   3.6299140e+02   4.3276980e+00
   3.6347350e+02   2.1123660e+00
   3.6395570e+02   9.9981700e-01
   3.6443780e+02   1.2919920e+00
   3.6491990e+02   2.5981450e+00
   3.6540200e+02   3.2381590e+00
   3.6588410e+02   2.5511470e+00
   3.6636620e+02   2.0675660e+00
   3.6684840e+02   2.9321290e+00
   3.6733050e+02   3.5958860e+00
   3.6781260e+02   1.8427120e+00
   3.6829470e+02   2.8242190e+00
   3.6877680e+02   7.9353640e+00
   3.6925890e+02   9.1997070e+00
   3.6974110e+02   4.4553830e+00
   3.7022320e+02   1.7579960e+00
   3.7070530e+02   2.8427730e+00
   3.7118740e+02   4.6577760e+00
   3.7166950e+02   5.8074340e+00
   3.7215160e+02   6.1761470e+00
   3.7263380e+02   6.2993770e+00
   3.7311590e+02   6.6495970e+00
   3.7359800e+02   7.2106320e+00
   3.7408010e+02   7.4478150e+00
   3.7456220e+02   6.3897710e+00
   3.7504430e+02   6.2717290e+00
   3.7552650e+02   8.5745240e+00
   3.7600860e+02   1.2066410e+01
   3.7649070e+02   1.4867800e+01
   3.7697280e+02   1.6069820e+01
   3.7745490e+02   1.6103700e+01
   3.7793700e+02   1.5637630e+01
   3.7841920e+02   1.4097290e+01
   3.7890130e+02   1.3720460e+01
   3.7938340e+02   1.5947390e+01
   3.7986550e+02   1.9060420e+01
   3.8034760e+02   2.2043400e+01
   3.8082970e+02   2.4676940e+01
   3.8131190e+02   2.6667110e+01
   3.8179400e+02   2.7203190e+01
   3.8227610e+02   2.6338070e+01
   3.8275820e+02   2.6644410e+01
   3.8324030e+02   2.9079280e+01
   3.8372240e+02   3.2080750e+01
   3.8420460e+02   3.4499760e+01
   3.8468670e+02   3.6504880e+01
   3.8516880e+02   3.8819030e+01
   3.8565090e+02   4.2274230e+01
   3.8613300e+02   4.6213440e+01
   3.8661510e+02   4.8912780e+01
   3.8709730e+02   4.9978030e+01
   3.8757940e+02   5.1184690e+01
   3.8806150e+02   5.3221190e+01
   3.8854360e+02   5.6145080e+01
   3.8902570e+02   6.0365840e+01
   3.8950780e+02   6.6650570e+01
   3.8999000e+02   7.2975100e+01
   3.9047210e+02   7.7266110e+01
   3.9095420e+02   7.9801090e+01
   3.9143630e+02   8.2582820e+01
   3.9191840e+02   8.6119630e+01
   3.9240050e+02   9.0389890e+01
   3.9288270e+02   9.5028870e+01
   3.9336480e+02   9.9873110e+01
   3.9384690e+02   1.0633090e+02
   3.9432900e+02   1.1604880e+02
   3.9481110e+02   1.2736900e+02
   3.9529320e+02   1.3714450e+02
   3.9577540e+02   1.4482530e+02
   3.9625750e+02   1.5303150e+02
   3.9673960e+02   1.6442780e+02
   3.9722170e+02   1.7881450e+02
   3.9770380e+02   1.9274030e+02
   3.9818590e+02   2.0417830e+02
   3.9866810e+02   2.1696440e+02
   3.9915010e+02   2.3462840e+02
   3.9963230e+02   2.5603120e+02
   4.0011440e+02   2.7689320e+02
   4.0059650e+02   2.9493590e+02
   4.0107860e+02   3.1131590e+02
   4.0156070e+02   3.2905350e+02
   4.0204280e+02   3.4812990e+02
   4.0252500e+02   3.6829550e+02
   4.0300710e+02   3.8841860e+02
   4.0348920e+02   4.1011630e+02
   4.0397130e+02   4.3494870e+02
   4.0445340e+02   4.6322510e+02
   4.0493550e+02   4.9488870e+02
   4.0541770e+02   5.2970830e+02
   4.0589980e+02   5.6727900e+02
   4.0638190e+02   6.0986820e+02
   4.0686400e+02   6.5550490e+02
   4.0734610e+02   7.0702200e+02
   4.0782820e+02   7.6532410e+02
   4.0831040e+02   8.3085740e+02
   4.0879250e+02   9.0386240e+02
   4.0927460e+02   9.8512430e+02
   4.0975670e+02   1.0748120e+03
   4.1023880e+02   1.1747620e+03
   4.1072090e+02   1.2851920e+03
   4.1120310e+02   1.4067830e+03
   4.1168520e+02   1.5416830e+03
   4.1216730e+02   1.6860820e+03
   4.1264940e+02   1.8411670e+03
   4.1313150e+02   2.0055130e+03
   4.1361360e+02   2.1690170e+03
   4.1409580e+02   2.3224290e+03
   4.1457790e+02   2.4733350e+03
   4.1506000e+02   2.5852100e+03
   4.1554210e+02   2.6669390e+03
   4.1602420e+02   2.6985180e+03
   4.1650630e+02   2.6662810e+03
   4.1698850e+02   2.5758390e+03
   4.1747060e+02   2.4388200e+03
   4.1795270e+02   2.2546690e+03
   4.1843480e+02   2.0356170e+03
   4.1891690e+02   1.8176580e+03
   4.1939900e+02   1.5952030e+03
   4.1988120e+02   1.3905390e+03
   4.2036330e+02   1.2117470e+03
   4.2084540e+02   1.0528460e+03
   4.2132750e+02   9.1084360e+02
   4.2180960e+02   7.8513740e+02
   4.2229170e+02   6.7509310e+02
   4.2277390e+02   5.8190830e+02
   4.2325600e+02   5.0548680e+02
   4.2373810e+02   4.3913100e+02
   4.2422020e+02   3.8327340e+02
   4.2470230e+02   3.3616760e+02
   4.2518440e+02   2.9663960e+02
   4.2566660e+02   2.6392150e+02
   4.2614870e+02   2.3483800e+02
   4.2663080e+02   2.0846690e+02
   4.2711290e+02   1.8443150e+02
   4.2759500e+02   1.6228380e+02
   4.2807710e+02   1.4184840e+02
   4.2855930e+02   1.2428960e+02
   4.2904140e+02   1.1101290e+02
   4.2952350e+02   1.0081720e+02
   4.3000560e+02   9.0542540e+01
   4.3048770e+02   7.9795040e+01
   4.3096980e+02   6.9829350e+01
   4.3145200e+02   6.1060730e+01
   4.3193410e+02   5.3585020e+01
   4.3241620e+02   4.7771610e+01
   4.3289830e+02   4.3876770e+01
   4.3338040e+02   4.0943600e+01
   4.3386250e+02   3.7999630e+01
   4.3434470e+02   3.5074770e+01
   4.3482680e+02   3.1588810e+01
   4.3530890e+02   2.6224000e+01
   4.3579100e+02   2.1390380e+01
   4.3627310e+02   1.9355160e+01
   4.3675520e+02   1.9401670e+01
   4.3723740e+02   1.8902530e+01
   4.3771950e+02   1.6278750e+01
   4.3820160e+02   1.2075930e+01
   4.3868370e+02   8.4104610e+00
   4.3916580e+02   4.8422850e+00
   4.3964790e+02   2.4039310e+00
   4.4013010e+02   1.6367800e+00
   4.4061220e+02   1.7752080e+00
   4.4109430e+02   2.5337520e+00
   4.4157640e+02   3.6428220e+00
   4.4205850e+02   4.2660520e+00
   4.4254060e+02   3.2207640e+00
   4.4302270e+02   8.2396999e-02
   4.4350490e+02   1.5997310e+00
   4.4398700e+02   5.7482900e-01
   4.4446910e+02   6.4440900e-01
   4.4495120e+02   1.5502320e+00
   4.4543330e+02   2.0853270e+00
   4.4591540e+02   2.0729370e+00
   4.4639760e+02   1.3062130e+00
   4.4687970e+02   5.2008100e-01
   4.4736180e+02   1.6621090e+00
   4.4784390e+02   5.7153320e+00
   4.4832600e+02   8.7506100e+00
   4.4880810e+02   9.0723270e+00
   4.4929030e+02   8.8612060e+00
   4.4977240e+02   9.5070800e+00
   4.5025450e+02   1.1050660e+01
   4.5073660e+02   1.2583010e+01
   4.5121870e+02   1.3169800e+01
   4.5170080e+02   1.3118530e+01
   4.5218300e+02   1.3749940e+01
   4.5266510e+02   1.5190730e+01
   4.5314720e+02   1.7040160e+01
   4.5362930e+02   1.8846440e+01
   4.5411140e+02   2.0966920e+01
   4.5459350e+02   2.4192750e+01
   4.5507570e+02   2.9301880e+01
   4.5555780e+02   3.4318970e+01
   4.5603990e+02   3.7201720e+01
   4.5652200e+02   3.8469420e+01
   4.5700410e+02   4.0702270e+01
   4.5748620e+02   4.5104550e+01
   4.5796840e+02   4.9694150e+01
   4.5845050e+02   5.1060420e+01
   4.5893260e+02   4.9166500e+01
   4.5941470e+02   4.9467160e+01
   4.5989680e+02   5.5007140e+01
   4.6037890e+02   6.1644960e+01
   4.6086110e+02   6.5409000e+01
   4.6134320e+02   6.6617430e+01
   4.6182530e+02   6.8372740e+01
   4.6230740e+02   7.2770140e+01
   4.6278950e+02   7.8996520e+01
   4.6327160e+02   8.3743710e+01
   4.6375380e+02   8.4455020e+01
   4.6423590e+02   8.7131840e+01
   4.6471800e+02   9.3709900e+01
   4.6520010e+02   1.0192470e+02
   4.6568220e+02   1.0923110e+02
   4.6616430e+02   1.1528050e+02
   4.6664650e+02   1.2170780e+02
   4.6712860e+02   1.3044180e+02
   4.6761070e+02   1.4187120e+02
   4.6809280e+02   1.5248270e+02
   4.6857490e+02   1.6026010e+02
   4.6905700e+02   1.6938900e+02
   4.6953920e+02   1.8146310e+02
   4.7002130e+02   1.9546480e+02
   4.7050340e+02   2.0967610e+02
   4.7098550e+02   2.2332960e+02
   4.7146760e+02   2.3719840e+02
   4.7194970e+02   2.5257820e+02
   4.7243190e+02   2.6948650e+02
   4.7291400e+02   2.8767590e+02
   4.7339610e+02   3.0557480e+02
   4.7387820e+02   3.2624580e+02
   4.7436030e+02   3.5215770e+02
   4.7484240e+02   3.8253940e+02
   4.7532460e+02   4.1470280e+02
   4.7580670e+02   4.4606470e+02
   4.7628880e+02   4.7820470e+02
   4.7677090e+02   5.1524490e+02
   4.7725300e+02   5.5743560e+02
   4.7773510e+02   6.0227020e+02
   4.7821730e+02   6.4827410e+02
   4.7869940e+02   6.9656920e+02
   4.7918150e+02   7.4835060e+02
   4.7966360e+02   8.0390060e+02
   4.8014570e+02   8.6160110e+02
   4.8062780e+02   9.2014780e+02
   4.8111000e+02   9.8060160e+02
   4.8159200e+02   1.0442860e+03
   4.8207420e+02   1.1113030e+03
   4.8255630e+02   1.1836690e+03
   4.8303840e+02   1.2630650e+03
   4.8352050e+02   1.3498860e+03
   4.8400260e+02   1.4454090e+03
   4.8448470e+02   1.5485890e+03
   4.8496690e+02   1.6608930e+03
   4.8544900e+02   1.7823750e+03
   4.8593110e+02   1.9141270e+03
   4.8641320e+02   2.0564900e+03
   4.8689530e+02   2.2100060e+03
   4.8737740e+02   2.3769790e+03
   4.8785960e+02   2.5596430e+03
   4.8834170e+02   2.7594500e+03
   4.8882380e+02   2.9766000e+03
   4.8930590e+02   3.2091330e+03
   4.8978800e+02   3.4571980e+03
   4.9027010e+02   3.7254200e+03
   4.9075230e+02   4.0082850e+03
   4.9123440e+02   4.2961540e+03
   4.9171650e+02   4.5839360e+03
   4.9219860e+02   4.8677720e+03
   4.9268070e+02   5.1437530e+03
   4.9316280e+02   5.4282020e+03
   4.9364500e+02   5.6576330e+03
   4.9412710e+02   5.8234880e+03
   4.9460920e+02   5.9234510e+03
   4.9509130e+02   5.9526360e+03
   4.9557340e+02   5.9107460e+03
   4.9605550e+02   5.7989340e+03
   4.9653770e+02   5.6076560e+03
   4.9701980e+02   5.3484090e+03
   4.9750190e+02   5.0443200e+03
   4.9798400e+02   4.6877060e+03
   4.9846610e+02   4.3222220e+03
   4.9894820e+02   3.9572190e+03
   4.9943040e+02   3.6006720e+03
   4.9991250e+02   3.2665300e+03
   5.0039460e+02   2.9527760e+03
   5.0087670e+02   2.6653830e+03
   5.0135880e+02   2.4056060e+03
   5.0184090e+02   2.1726340e+03
   5.0232310e+02   1.9629700e+03
   5.0280520e+02   1.7766110e+03
   5.0328730e+02   1.6091820e+03
   5.0376940e+02   1.4575520e+03
   5.0425150e+02   1.3213050e+03
   5.0473360e+02   1.2006110e+03
   5.0521580e+02   1.0982790e+03
   5.0569790e+02   1.0063880e+03
   5.0618000e+02   9.2364130e+02
   5.0666210e+02   8.4893090e+02
   5.0714420e+02   7.8250070e+02
   5.0762630e+02   7.2417210e+02
   5.0810850e+02   6.7121740e+02
   5.0859060e+02   6.1945340e+02
   5.0907270e+02   5.6721840e+02
   5.0955480e+02   5.2203920e+02
   5.1003690e+02   4.8725260e+02
   5.1051900e+02   4.5634580e+02
   5.1100120e+02   4.2824990e+02
   5.1148330e+02   4.0196660e+02
   5.1196540e+02   3.7585020e+02
   5.1244750e+02   3.4870040e+02
   5.1292960e+02   3.2244830e+02
   5.1341170e+02   3.0100380e+02
   5.1389390e+02   2.8484810e+02
   5.1437600e+02   2.6922800e+02
   5.1485810e+02   2.5333580e+02
   5.1534020e+02   2.3736910e+02
   5.1582230e+02   2.2106100e+02
   5.1630440e+02   2.0465560e+02
   5.1678660e+02   1.8970480e+02
   5.1726870e+02   1.7763260e+02
   5.1775080e+02   1.6685390e+02
   5.1823290e+02   1.5498390e+02
   5.1871500e+02   1.4215230e+02
   5.1919710e+02   1.3049330e+02
   5.1967930e+02   1.2111380e+02
   5.2016140e+02   1.1337730e+02
   5.2064350e+02   1.0625430e+02
   5.2112560e+02   9.9980710e+01
   5.2160770e+02   9.3404420e+01
   5.2208980e+02   8.5828860e+01
   5.2257200e+02   7.8252080e+01
   5.2305410e+02   7.1576840e+01
   5.2353620e+02   6.5853270e+01
   5.2401830e+02   6.0570370e+01
   5.2450040e+02   5.5354680e+01
   5.2498250e+02   5.0368770e+01
   5.2546470e+02   4.6386840e+01
   5.2594680e+02   4.4769960e+01
   5.2642890e+02   4.2261110e+01
   5.2691100e+02   3.7663450e+01
   5.2739310e+02   3.2732180e+01
   5.2787520e+02   2.9083860e+01
   5.2835740e+02   2.6772830e+01
   5.2883950e+02   2.4550290e+01
   5.2932160e+02   2.1229740e+01
   5.2980370e+02   1.7037900e+01
   5.3028580e+02   1.3287230e+01
   5.3076790e+02   1.0063540e+01
   5.3125010e+02   7.1160890e+00
   5.3173220e+02   4.1228030e+00
   5.3221430e+02   1.4664920e+00
   5.3269640e+02   2.1575900e-01
   5.3317850e+02   6.5179400e-01
   5.3366060e+02   1.3610840e+00
   5.3414280e+02   4.0270390e+00
   5.3462490e+02   7.5515140e+00
   5.3510700e+02   9.6376950e+00
   5.3558910e+02   9.9736940e+00
   5.3607120e+02   9.0479130e+00
   5.3655330e+02   6.6172490e+00
   5.3703550e+02   3.1833500e+00
   5.3751760e+02   1.7756960e+00
   5.3799970e+02   2.9490970e+00
   5.3848180e+02   5.2498780e+00
   5.3896390e+02   1.0244570e+01
   5.3944600e+02   1.5250610e+01
   5.3992820e+02   1.6246090e+01
   5.4041030e+02   1.2747990e+01
   5.4089240e+02   8.2355960e+00
   5.4137450e+02   6.3451540e+00
   5.4185660e+02   7.1515500e+00
   5.4233870e+02   7.9443970e+00
   5.4282090e+02   9.1053470e+00
   5.4330290e+02   9.7606810e+00
   5.4378500e+02   1.0148190e+01
   5.4426720e+02   9.7395020e+00
   5.4474930e+02   7.5423580e+00
   5.4523140e+02   3.3985600e+00
   5.4571350e+02   9.9908400e-01
   5.4619560e+02   3.8739620e+00
   5.4667770e+02   5.3059080e+00
   5.4715990e+02   5.9469600e+00
   5.4764200e+02   5.3613890e+00
   5.4812410e+02   4.9897460e+00
   5.4860620e+02   5.3726200e+00
   5.4908830e+02   6.6471560e+00
   5.4957040e+02   9.4464720e+00
   5.5005260e+02   1.4777160e+01
   5.5053470e+02   1.9698850e+01
   5.5101680e+02   2.2031130e+01
   5.5149890e+02   2.2698550e+01
   5.5198100e+02   2.3248900e+01
   5.5246310e+02   2.3971800e+01
   5.5294530e+02   2.5877500e+01
   5.5342740e+02   3.0409300e+01
   5.5390950e+02   3.7589840e+01
   5.5439160e+02   4.1969540e+01
   5.5487370e+02   4.0243650e+01
   5.5535580e+02   4.0096130e+01
   5.5583800e+02   4.5336430e+01
   5.5632010e+02   5.2554440e+01
   5.5680220e+02   5.7002750e+01
   5.5728430e+02   5.7717100e+01
   5.5776640e+02   5.7991880e+01
   5.5824850e+02   6.2123960e+01
   5.5873070e+02   7.0325930e+01
   5.5921280e+02   7.5671200e+01
   5.5969490e+02   7.5913880e+01
   5.6017700e+02   7.6405460e+01
   5.6065910e+02   7.9038390e+01
   5.6114120e+02   8.2855100e+01
   5.6162340e+02   8.6705200e+01
   5.6210550e+02   9.0273930e+01
   5.6258760e+02   9.4101070e+01
   5.6306970e+02   9.9016780e+01
   5.6355180e+02   1.0459550e+02
   5.6403390e+02   1.0910680e+02
   5.6451610e+02   1.1207400e+02
   5.6499820e+02   1.1551860e+02
   5.6548030e+02   1.2111520e+02
   5.6596240e+02   1.2842570e+02
   5.6644450e+02   1.3518430e+02
   5.6692660e+02   1.4022300e+02
   5.6740880e+02   1.4635720e+02
   5.6789090e+02   1.5632390e+02
   5.6837300e+02   1.6706710e+02
   5.6885510e+02   1.7417760e+02
   5.6933720e+02   1.7720640e+02
   5.6981930e+02   1.7973960e+02
   5.7030150e+02   1.8507450e+02
   5.7078360e+02   1.9307830e+02
   5.7126570e+02   2.0084860e+02
   5.7174780e+02   2.0795670e+02
   5.7222990e+02   2.1544930e+02
   5.7271200e+02   2.2436970e+02
   5.7319420e+02   2.3320870e+02
   5.7367630e+02   2.4010530e+02
   5.7415840e+02   2.4504050e+02
   5.7464050e+02   2.5019320e+02
   5.7512260e+02   2.5765860e+02
   5.7560470e+02   2.6694670e+02
   5.7608690e+02   2.7638900e+02
   5.7656900e+02   2.8635510e+02
   5.7705110e+02   2.9475760e+02
   5.7753320e+02   2.9904360e+02
   5.7801530e+02   3.0199620e+02
   5.7849740e+02   3.0836330e+02
   5.7897960e+02   3.1907280e+02
   5.7946170e+02   3.2932180e+02
   5.7994380e+02   3.3675310e+02
   5.8042590e+02   3.4310000e+02
   5.8090800e+02   3.5051820e+02
   5.8139010e+02   3.5898670e+02
   5.8187230e+02   3.6716880e+02
   5.8235440e+02   3.7418320e+02
   5.8283650e+02   3.8036210e+02
   5.8331860e+02   3.8684120e+02
   5.8380070e+02   3.9366260e+02
   5.8428280e+02   4.0080350e+02
   5.8476500e+02   4.0860450e+02
   5.8524710e+02   4.1645590e+02
   5.8572920e+02   4.2423070e+02
   5.8621130e+02   4.3172360e+02
   5.8669340e+02   4.3844790e+02
   5.8717550e+02   4.4390440e+02
   5.8765770e+02   4.4875610e+02
   5.8813980e+02   4.5427700e+02
   5.8862190e+02   4.6040530e+02
   5.8910400e+02   4.6780490e+02
   5.8958610e+02   4.7756290e+02
   5.9006820e+02   4.8767090e+02
   5.9055040e+02   4.9641220e+02
   5.9103250e+02   5.0387970e+02
   5.9151460e+02   5.1015220e+02
   5.9199670e+02   5.1406030e+02
   5.9247880e+02   5.1752470e+02
   5.9296090e+02   5.2179160e+02
   5.9344310e+02   5.2709610e+02
   5.9392520e+02   5.3414430e+02
   5.9440730e+02   5.4334640e+02
   5.9488940e+02   5.5373610e+02
   5.9537150e+02   5.6364890e+02
   5.9585360e+02   5.7264500e+02
   5.9633580e+02   5.8192900e+02
   5.9681790e+02   5.9232540e+02
   5.9730000e+02   6.0172760e+02
   5.9778210e+02   6.0924980e+02
   5.9826420e+02   6.1615550e+02
   5.9874630e+02   6.2331100e+02
   5.9922850e+02   6.3095580e+02
   5.9971060e+02   6.4035360e+02
   6.0019270e+02   6.5367730e+02
   6.0067480e+02   6.7090210e+02
   6.0115690e+02   6.8923660e+02
   6.0163900e+02   7.0919590e+02
   6.0212120e+02   7.2885530e+02
   6.0260330e+02   7.4656100e+02
   6.0308540e+02   7.6354250e+02
   6.0356750e+02   7.8085960e+02
   6.0404960e+02   7.9788330e+02
   6.0453170e+02   8.1702450e+02
   6.0501390e+02   8.4089070e+02
   6.0549600e+02   8.6714760e+02
   6.0597810e+02   8.9174640e+02
   6.0646020e+02   9.1444860e+02
   6.0694230e+02   9.3844520e+02
   6.0742440e+02   9.6591580e+02
   6.0790660e+02   9.9670180e+02
   6.0838870e+02   1.0301970e+03
   6.0887080e+02   1.0688290e+03
   6.0935290e+02   1.1061830e+03
   6.0983500e+02   1.1399580e+03
   6.1031710e+02   1.1743470e+03
   6.1079930e+02   1.2121600e+03
   6.1128140e+02   1.2533300e+03
   6.1176350e+02   1.2961450e+03
   6.1224560e+02   1.3390740e+03
   6.1272770e+02   1.3837870e+03
   6.1320980e+02   1.4351050e+03
   6.1369200e+02   1.4939040e+03
   6.1417410e+02   1.5522930e+03
   6.1465620e+02   1.6084750e+03
   6.1513830e+02   1.6638430e+03
   6.1562040e+02   1.7195630e+03
   6.1610250e+02   1.7758520e+03
   6.1658470e+02   1.8339710e+03
   6.1706680e+02   1.8982270e+03
   6.1754890e+02   1.9602960e+03
   6.1803100e+02   2.0156760e+03
   6.1851310e+02   2.0647910e+03
   6.1899520e+02   2.1095540e+03
   6.1947740e+02   2.1504340e+03
   6.1995950e+02   2.1850810e+03
   6.2044160e+02   2.2112270e+03
   6.2092370e+02   2.2292120e+03
   6.2140580e+02   2.2347800e+03
   6.2188790e+02   2.2279160e+03
   6.2237010e+02   2.2073690e+03
   6.2285220e+02   2.1715830e+03
   6.2333430e+02   2.1231170e+03
   6.2381640e+02   2.0642510e+03
   6.2429850e+02   1.9957770e+03
   6.2478060e+02   1.9174240e+03
   6.2526280e+02   1.8270490e+03
   6.2574480e+02   1.7272620e+03
   6.2622690e+02   1.6239690e+03
   6.2670900e+02   1.5166710e+03
   6.2719120e+02   1.4109200e+03
   6.2767330e+02   1.3074480e+03
   6.2815540e+02   1.2080850e+03
   6.2863750e+02   1.1157370e+03
   6.2911960e+02   1.0307170e+03
   6.2960170e+02   9.4988420e+02
   6.3008390e+02   8.7202750e+02
   6.3056600e+02   7.9855920e+02
   6.3104810e+02   7.3015890e+02
   6.3153020e+02   6.6663440e+02
   6.3201230e+02   6.0668210e+02
   6.3249440e+02   5.4997090e+02
   6.3297660e+02   4.9773060e+02
   6.3345870e+02   4.5287050e+02
   6.3394080e+02   4.1626090e+02
   6.3442290e+02   3.8161360e+02
   6.3490500e+02   3.4873120e+02
   6.3538710e+02   3.1838600e+02
   6.3586930e+02   2.9054630e+02
   6.3635140e+02   2.6531920e+02
   6.3683350e+02   2.4331330e+02
   6.3731560e+02   2.2533750e+02
   6.3779770e+02   2.0796880e+02
   6.3827980e+02   1.8718260e+02
   6.3876200e+02   1.6597760e+02
   6.3924410e+02   1.5087700e+02
   6.3972620e+02   1.4246640e+02
   6.4020830e+02   1.3411320e+02
   6.4069040e+02   1.2122290e+02
   6.4117250e+02   1.0555500e+02
   6.4165470e+02   9.2882450e+01
   6.4213680e+02   8.5367250e+01
   6.4261890e+02   7.7899350e+01
   6.4310100e+02   6.9883790e+01
   6.4358310e+02   6.2455140e+01
   6.4406520e+02   5.6556030e+01
   6.4454740e+02   5.1821720e+01
   6.4502950e+02   4.7053770e+01
   6.4551160e+02   4.1546260e+01
   6.4599370e+02   3.6289790e+01
   6.4647580e+02   3.3614690e+01
   6.4695790e+02   3.3474060e+01
   6.4744010e+02   3.0888370e+01
   6.4792220e+02   2.3861760e+01
   6.4840430e+02   1.7066470e+01
   6.4888640e+02   1.4953430e+01
   6.4936850e+02   1.5932130e+01
   6.4985060e+02   1.5110960e+01
   6.5033280e+02   1.1060240e+01
   6.5081490e+02   6.8456420e+00
   6.5129700e+02   3.2651980e+00
   6.5177910e+02   4.2364500e-01
   6.5226120e+02   1.5964970e+00
   6.5274330e+02   2.8033450e+00
   6.5322550e+02   2.9325560e+00
   6.5370760e+02   1.5786130e+00
   6.5418970e+02   5.7074000e-01
   6.5467180e+02   6.8444800e-01
   6.5515390e+02   2.4865110e+00
   6.5563600e+02   4.6721800e+00
   6.5611820e+02   4.8313600e+00
   6.5660030e+02   4.2776490e+00
   6.5708240e+02   3.0899660e+00
   6.5756450e+02   1.7048950e+00
   6.5804660e+02   1.3660280e+00
   6.5852870e+02   3.0932620e+00
   6.5901090e+02   5.1955570e+00
   6.5949300e+02   6.1303100e+00
   6.5997510e+02   6.1306150e+00
   6.6045720e+02   5.7943730e+00
   6.6093930e+02   5.2536620e+00
   6.6142140e+02   4.8007810e+00
   6.6190360e+02   4.7558590e+00
   6.6238570e+02   5.0408330e+00
   6.6286780e+02   4.8610840e+00
   6.6334990e+02   3.9620970e+00
   6.6383200e+02   2.6674800e+00
   6.6431410e+02   2.3608400e-01
   6.6479630e+02   1.7357790e+00
   6.6527840e+02   1.1257320e+00
   6.6576050e+02   1.2655030e+00
   6.6624260e+02   2.1086430e+00
   6.6672470e+02   1.1481930e+00
   6.6720680e+02   6.2791750e+00
   6.6768900e+02   9.0877690e+00
   6.6817110e+02   9.6450810e+00
   6.6865320e+02   1.0120850e+01
   6.6913530e+02   1.0918820e+01
   6.6961740e+02   1.2165530e+01
   6.7009950e+02   1.3830510e+01
   6.7058170e+02   1.5815060e+01
   6.7106380e+02   1.7265440e+01
   6.7154590e+02   1.8288880e+01
   6.7202800e+02   1.8656310e+01
   6.7251010e+02   1.7322880e+01
   6.7299220e+02   1.5868100e+01
   6.7347440e+02   1.6597780e+01
   6.7395650e+02   1.9301820e+01
   6.7443860e+02   2.1371340e+01
   6.7492070e+02   2.0725160e+01
   6.7540280e+02   1.8113530e+01
   6.7588490e+02   1.5903990e+01
   6.7636710e+02   1.4134580e+01
   6.7684920e+02   1.2596310e+01
   6.7733130e+02   1.0834230e+01
   6.7781340e+02   9.7770390e+00
   6.7829550e+02   1.0420410e+01
   6.7877760e+02   1.2362670e+01
   6.7925980e+02   1.4217650e+01
   6.7974190e+02   1.6237120e+01
   6.8022400e+02   1.7371640e+01
   6.8070610e+02   1.6023560e+01
   6.8118820e+02   1.3770810e+01
   6.8167030e+02   1.3312190e+01
   6.8215250e+02   1.4971740e+01
   6.8263460e+02   1.7056520e+01
   6.8311670e+02   1.8294070e+01
   6.8359880e+02   1.8676640e+01
   6.8408090e+02   1.8039180e+01
   6.8456300e+02   1.5609990e+01
   6.8504520e+02   1.3856260e+01
   6.8552730e+02   1.3050720e+01
   6.8600940e+02   1.3080140e+01
   6.8649150e+02   1.4533330e+01
   6.8697360e+02   1.6813480e+01
   6.8745570e+02   1.8198910e+01
   6.8793790e+02   1.7601200e+01
   6.8842000e+02   1.6687130e+01
   6.8890210e+02   1.7372620e+01
   6.8938420e+02   1.8805660e+01
   6.8986630e+02   1.8517090e+01
   6.9034840e+02   1.6121280e+01
   6.9083060e+02   1.4385440e+01
   6.9131270e+02   1.5694760e+01
   6.9179480e+02   1.9292660e+01
   6.9227690e+02   2.1381290e+01
   6.9275900e+02   2.1385930e+01
   6.9324110e+02   2.0724670e+01
   6.9372330e+02   1.8817200e+01
   6.9420540e+02   1.6926640e+01
   6.9468750e+02   1.5626400e+01
   6.9516960e+02   1.4987240e+01
   6.9565170e+02   1.5072450e+01
   6.9613390e+02   1.6063350e+01
   6.9661600e+02   1.7310490e+01
   6.9709810e+02   1.8203920e+01
   6.9758020e+02   1.8758240e+01
   6.9806230e+02   1.9027100e+01
   6.9854440e+02   1.9017270e+01
   6.9902660e+02   1.8594910e+01
   6.9950870e+02   1.7329350e+01
   6.9999080e+02   1.5778560e+01
   7.0047290e+02   1.6155940e+01
   7.0095500e+02   2.1769040e+01
   7.0143710e+02   2.4177670e+01
   7.0191930e+02   2.1011230e+01
   7.0240140e+02   1.6707340e+01
   7.0288350e+02   1.3035340e+01
   7.0336560e+02   1.0525330e+01
   7.0384770e+02   9.9625240e+00
   7.0432980e+02   1.1879330e+01
   7.0481200e+02   1.4107970e+01
   7.0529410e+02   1.3518490e+01
   7.0577620e+02   1.0808290e+01
   7.0625830e+02   9.5417480e+00
   7.0674040e+02   1.0240170e+01
   7.0722250e+02   1.1117190e+01
   7.0770460e+02   1.1266850e+01
   7.0818670e+02   1.0799870e+01
   7.0866880e+02   9.7832030e+00
   7.0915090e+02   7.2180180e+00
   7.0963310e+02   6.5704350e+00
   7.1011520e+02   1.0429080e+01
   7.1059730e+02   1.3843510e+01
   7.1107940e+02   1.3582400e+01
   7.1156150e+02   1.1005130e+01
   7.1204360e+02   8.4250490e+00
   7.1252580e+02   6.5682980e+00
   7.1300790e+02   5.4378050e+00
   7.1349000e+02   5.8099370e+00
   7.1397210e+02   7.3997190e+00
   7.1445420e+02   7.7683720e+00
   7.1493630e+02   6.6552120e+00
   7.1541850e+02   5.9047240e+00
   7.1590060e+02   6.6132200e+00
   7.1638270e+02   7.6297610e+00
   7.1686480e+02   6.9768070e+00
   7.1734690e+02   4.3667600e+00
   7.1782900e+02   2.5397340e+00
   7.1831120e+02   2.2771000e+00
   7.1879330e+02   2.3479000e+00
   7.1927540e+02   2.7943120e+00
   7.1975750e+02   2.9957280e+00
   7.2023960e+02   1.8104250e+00
   7.2072170e+02   8.1451400e-01
   7.2120390e+02   3.3050540e+00
   7.2168600e+02   4.1403810e+00
   7.2216810e+02   3.6411740e+00
   7.2265020e+02   3.0186160e+00
   7.2313230e+02   2.3852540e+00
   7.2361440e+02   1.4650880e+00
   7.2409660e+02   1.9451900e-01
   7.2457870e+02   2.1789550e+00
   7.2506080e+02   3.9384770e+00
   7.2554290e+02   5.4111330e+00
   7.2602500e+02   5.3138430e+00
   7.2650710e+02   1.0078130e+00
   7.2698930e+02   1.9761350e+00
   7.2747140e+02   7.0556600e-01
   7.2795350e+02   2.3675540e+00
   7.2843560e+02   4.7843020e+00
   7.2891770e+02   6.0606080e+00
   7.2939980e+02   6.6778560e+00
   7.2988200e+02   6.9290770e+00
   7.3036410e+02   6.8418580e+00
   7.3084620e+02   6.1773680e+00
   7.3132830e+02   4.8818360e+00
   7.3181040e+02   4.8417970e+00
   7.3229250e+02   6.9880370e+00
   7.3277470e+02   9.0689090e+00
   7.3325680e+02   9.1001590e+00
   7.3373890e+02   7.4686890e+00
   7.3422100e+02   6.3547970e+00
   7.3470310e+02   5.8307500e+00
   7.3518520e+02   5.6914670e+00
   7.3566740e+02   5.9697270e+00
   7.3614950e+02   6.5574950e+00
   7.3663160e+02   7.5114750e+00
   7.3711370e+02   8.6777950e+00
   7.3759580e+02   9.7762450e+00
   7.3807790e+02   1.0694640e+01
   7.3856010e+02   1.1363890e+01
   7.3904220e+02   1.1689390e+01
   7.3952430e+02   1.1677670e+01
   7.4000640e+02   1.1202090e+01
   7.4048850e+02   1.0049320e+01
   7.4097060e+02   9.4158330e+00
   7.4145280e+02   1.0168330e+01
   7.4193490e+02   1.1729130e+01
   7.4241700e+02   1.2877010e+01
   7.4289910e+02   1.3636470e+01
   7.4338120e+02   1.3984250e+01
   7.4386330e+02   1.3839840e+01
   7.4434550e+02   1.3374820e+01
   7.4482760e+02   1.1993650e+01
   7.4530970e+02   1.0616150e+01
   7.4579180e+02   1.0982730e+01
   7.4627390e+02   1.3408570e+01
   7.4675600e+02   1.5828490e+01
   7.4723820e+02   1.5983580e+01
   7.4772030e+02   1.4621830e+01
   7.4820240e+02   1.3927060e+01
   7.4868450e+02   1.3904600e+01
   7.4916660e+02   1.4454530e+01
   7.4964870e+02   1.5681030e+01
   7.5013090e+02   1.7156800e+01
   7.5061300e+02   1.8598450e+01
   7.5109510e+02   2.0046390e+01
   7.5157720e+02   2.0203740e+01
   7.5205930e+02   1.7641600e+01
   7.5254140e+02   1.5739260e+01
   7.5302360e+02   1.5045470e+01
   7.5350570e+02   1.5443180e+01
   7.5398780e+02   1.7779910e+01
   7.5446990e+02   2.1239810e+01
   7.5495200e+02   2.2974850e+01
   7.5543410e+02   2.0873660e+01
   7.5591630e+02   1.7341920e+01
   7.5639840e+02   1.5560910e+01
   7.5688050e+02   1.5264280e+01
   7.5736260e+02   1.5664860e+01
   7.5784470e+02   1.6723690e+01
   7.5832680e+02   1.7005000e+01
   7.5880900e+02   1.5263120e+01
   7.5929110e+02   1.2209110e+01
   7.5977320e+02   1.0209720e+01
   7.6025530e+02   9.7545780e+00
   7.6073740e+02   9.5006710e+00
   7.6121950e+02   9.3563840e+00
   7.6170170e+02   9.5263060e+00
   7.6218380e+02   1.0575810e+01
   7.6266590e+02   1.1857180e+01
   7.6314800e+02   1.2219910e+01
   7.6363010e+02   1.1308650e+01
   7.6411220e+02   1.0353640e+01
   7.6459440e+02   1.0712220e+01
   7.6507650e+02   1.1381710e+01
   7.6555860e+02   1.0233580e+01
   7.6604070e+02   7.6720580e+00
   7.6652280e+02   6.4968870e+00
   7.6700490e+02   7.8388060e+00
   7.6748710e+02   9.9579470e+00
   7.6796920e+02   1.0580990e+01
   7.6845130e+02   9.6242680e+00
   7.6893340e+02   8.7362670e+00
   7.6941550e+02   7.9804690e+00
   7.6989760e+02   7.1291500e+00
   7.7037980e+02   6.0063480e+00
   7.7086190e+02   4.8679810e+00
   7.7134400e+02   3.8132930e+00
   7.7182610e+02   2.9252930e+00
   7.7230820e+02   2.4959110e+00
   7.7279030e+02   3.0231930e+00
   7.7327250e+02   3.4848630e+00
   7.7375460e+02   2.9497070e+00
   7.7423670e+02   2.0084230e+00
   7.7471880e+02   1.8509520e+00
   7.7520090e+02   2.3912350e+00
   7.7568300e+02   2.1455080e+00
   7.7616520e+02   3.9000999e-02
   7.7664730e+02   2.9227910e+00
   7.7712940e+02   4.3323970e+00
   7.7761150e+02   4.0055540e+00
   7.7809360e+02   3.4398190e+00
   7.7857570e+02   2.8941040e+00
   7.7905790e+02   2.0517580e+00
   7.7954000e+02   1.2255900e-01
   7.8002210e+02   2.5982060e+00
   7.8050420e+02   3.3223880e+00
   7.8098630e+02   1.8291630e+00
   7.8146840e+02   7.0037800e-01
   7.8195060e+02   1.2446900e+00
   7.8243270e+02   1.6534420e+00
   7.8291480e+02   2.3712200e-01
   7.8339690e+02   1.9017940e+00
   7.8387900e+02   2.9157710e+00
   7.8436110e+02   2.3621830e+00
   7.8484330e+02   1.0174560e+00
   7.8532540e+02   1.1543580e+00
   7.8580750e+02   3.6229250e+00
   7.8628960e+02   4.4982300e+00
   7.8677170e+02   3.7391970e+00
   7.8725380e+02   2.9132690e+00
   7.8773600e+02   2.3654790e+00
   7.8821810e+02   1.9331050e+00
   7.8870020e+02   1.2738650e+00
   7.8918230e+02   5.3881800e-01
   7.8966440e+02   1.0754390e+00
   7.9014650e+02   4.7520750e+00
   7.9062860e+02   6.9804080e+00
   7.9111070e+02   6.3729860e+00
   7.9159280e+02   5.1681520e+00
   7.9207500e+02   4.6508790e+00
   7.9255710e+02   4.7231450e+00
   7.9303920e+02   4.8391110e+00
   7.9352130e+02   4.7814940e+00
   7.9400340e+02   4.9673460e+00
   7.9448550e+02   5.9993900e+00
   7.9496770e+02   7.4278560e+00
   7.9544980e+02   8.1305540e+00
   7.9593190e+02   8.2584230e+00
   7.9641400e+02   9.4512330e+00
   7.9689610e+02   1.2504390e+01
   7.9737820e+02   1.5657960e+01
   7.9786040e+02   1.6370060e+01
   7.9834250e+02   1.4515010e+01
   7.9882460e+02   1.3070860e+01
   7.9930670e+02   1.2099730e+01
   7.9978880e+02   1.1427190e+01
   8.0027090e+02   1.1106690e+01
   8.0075310e+02   1.0987610e+01
   8.0123520e+02   1.0947330e+01
   8.0171730e+02   1.1010190e+01
   8.0219940e+02   1.1330140e+01
   8.0268150e+02   1.2174070e+01
   8.0316360e+02   1.2949460e+01
   8.0364580e+02   1.3085940e+01
   8.0412790e+02   1.3160220e+01
   8.0461000e+02   1.4319150e+01
   8.0509210e+02   1.6149780e+01
   8.0557420e+02   1.6668330e+01
   8.0605630e+02   1.4701600e+01
   8.0653850e+02   1.2282710e+01
   8.0702060e+02   1.3140010e+01
   8.0750270e+02   1.6958980e+01
   8.0798480e+02   1.9378910e+01
   8.0846690e+02   2.0175780e+01
   8.0894900e+02   1.9648440e+01
   8.0943120e+02   1.7131160e+01
   8.0991330e+02   1.4447940e+01
   8.1039540e+02   1.4610840e+01
   8.1087750e+02   1.8243470e+01
   8.1135960e+02   2.0688960e+01
   8.1184170e+02   2.0980650e+01
   8.1232390e+02   2.1330750e+01
   8.1280600e+02   2.2721740e+01
   8.1328810e+02   2.4161560e+01
   8.1377020e+02   2.4674010e+01
   8.1425230e+02   2.4279170e+01
   8.1473440e+02   2.3575680e+01
   8.1521660e+02   2.2795040e+01
   8.1569870e+02   2.1967040e+01
   8.1618080e+02   2.0759520e+01
   8.1666290e+02   1.9630620e+01
   8.1714500e+02   1.9874020e+01
   8.1762710e+02   2.1473140e+01
   8.1810930e+02   2.2965030e+01
   8.1859140e+02   2.3490720e+01
   8.1907350e+02   2.3558410e+01
   8.1955560e+02   2.4215390e+01
   8.2003770e+02   2.5628850e+01
   8.2051980e+02   2.6590450e+01
   8.2100200e+02   2.7161250e+01
   8.2148410e+02   2.7149480e+01
   8.2196620e+02   2.6059330e+01
   8.2244830e+02   2.4636230e+01
   8.2293040e+02   2.3450070e+01
   8.2341250e+02   2.2538270e+01
   8.2389470e+02   2.2647830e+01
   8.2437680e+02   2.5125850e+01
   8.2485890e+02   2.7252010e+01
   8.2534100e+02   2.8258970e+01
   8.2582310e+02   2.8033510e+01
   8.2630520e+02   2.5372440e+01
   8.2678740e+02   2.1237000e+01
   8.2726950e+02   1.9068790e+01
   8.2775160e+02   2.1044620e+01
   8.2823370e+02   2.4587590e+01
   8.2871580e+02   2.6333620e+01
   8.2919790e+02   2.6522580e+01
   8.2968010e+02   2.5794370e+01
   8.3016220e+02   2.4201290e+01
   8.3064430e+02   2.3309450e+01
   8.3112640e+02   2.4061160e+01
   8.3160850e+02   2.5395690e+01
   8.3209060e+02   2.5464540e+01
   8.3257280e+02   2.3962890e+01
   8.3305490e+02   2.3460270e+01
   8.3353700e+02   2.4876710e+01
   8.3401910e+02   2.5926700e+01
   8.3450120e+02   2.5912410e+01
   8.3498330e+02   2.5316960e+01
   8.3546550e+02   2.4710270e+01
   8.3594760e+02   2.3982910e+01
   8.3642970e+02   2.2367680e+01
   8.3691180e+02   1.8445680e+01
   8.3739390e+02   1.5741940e+01
   8.3787600e+02   1.7280880e+01
   8.3835820e+02   1.9882630e+01
   8.3884030e+02   1.9534420e+01
   8.3932240e+02   1.6826350e+01
   8.3980450e+02   1.5159730e+01
   8.4028660e+02   1.6182370e+01
   8.4076870e+02   1.7864140e+01
   8.4125090e+02   1.6745540e+01
   8.4173300e+02   1.3608090e+01
   8.4221510e+02   1.3370360e+01
   8.4269720e+02   1.6338380e+01
   8.4317930e+02   1.8362610e+01
   8.4366140e+02   1.7695500e+01
   8.4414360e+02   1.5755130e+01
   8.4462570e+02   1.4041020e+01
   8.4510780e+02   1.2709230e+01
   8.4558990e+02   1.3258910e+01
   8.4607200e+02   1.8279970e+01
   8.4655410e+02   2.1391850e+01
   8.4703630e+02   2.0549440e+01
   8.4751840e+02   1.9050110e+01
   8.4800050e+02   1.8470890e+01
   8.4848260e+02   1.8883970e+01
   8.4896470e+02   2.0375920e+01
   8.4944680e+02   2.3289370e+01
   8.4992900e+02   2.5777890e+01
   8.5041110e+02   2.6547420e+01
   8.5089320e+02   2.6654300e+01
   8.5137530e+02   2.6954770e+01
   8.5185740e+02   2.7418030e+01
   8.5233950e+02   2.8286190e+01
   8.5282170e+02   2.9541990e+01
   8.5330380e+02   2.9856320e+01
   8.5378590e+02   2.7175780e+01
   8.5426800e+02   2.3200260e+01
   8.5475010e+02   2.3867310e+01
   8.5523220e+02   2.9092650e+01
   8.5571440e+02   3.1011780e+01
   8.5619650e+02   2.7400700e+01
   8.5667860e+02   2.3391540e+01
   8.5716070e+02   2.2742920e+01
   8.5764280e+02   2.4551880e+01
   8.5812490e+02   2.6062440e+01
   8.5860710e+02   2.7354490e+01
   8.5908920e+02   2.8141480e+01
   8.5957130e+02   2.8123110e+01
   8.6005340e+02   2.8019350e+01
   8.6053550e+02   2.8031130e+01
   8.6101760e+02   2.8134400e+01
   8.6149980e+02   2.8274290e+01
   8.6198190e+02   2.8428410e+01
   8.6246400e+02   2.8551150e+01
   8.6294610e+02   2.9025150e+01
   8.6342820e+02   2.9073670e+01
   8.6391030e+02   2.7454040e+01
   8.6439250e+02   2.5433530e+01
   8.6487460e+02   2.4922060e+01
   8.6535670e+02   2.5872440e+01
   8.6583880e+02   2.6809200e+01
   8.6632090e+02   2.6795780e+01
   8.6680300e+02   2.6592220e+01
   8.6728520e+02   2.7445800e+01
   8.6776730e+02   2.9159730e+01
   8.6824940e+02   3.0911010e+01
   8.6873150e+02   3.2669740e+01
   8.6921360e+02   3.3752260e+01
   8.6969570e+02   3.3840330e+01
   8.7017790e+02   3.3218260e+01
   8.7066000e+02   3.2075260e+01
   8.7114210e+02   3.0394530e+01
   8.7162420e+02   2.9988950e+01
   8.7210630e+02   3.2191770e+01
   8.7258840e+02   3.3318480e+01
   8.7307050e+02   3.1960390e+01
   8.7355260e+02   3.0091250e+01
   8.7403470e+02   2.8798830e+01
   8.7451680e+02   2.7910220e+01
   8.7499900e+02   2.6752010e+01
   8.7548110e+02   2.4762880e+01
   8.7596320e+02   2.3936160e+01
   8.7644530e+02   2.6482790e+01
   8.7692740e+02   2.8987000e+01
   8.7740950e+02   2.8436520e+01
   8.7789170e+02   2.6231690e+01
   8.7837380e+02   2.5066960e+01
   8.7885590e+02   2.5474490e+01
   8.7933800e+02   2.5820070e+01
   8.7982010e+02   2.4561460e+01
   8.8030220e+02   2.2835330e+01
   8.8078440e+02   2.2438840e+01
   8.8126650e+02   2.3190060e+01
   8.8174860e+02   2.5058720e+01
   8.8223070e+02   2.7868290e+01
   8.8271280e+02   2.8799130e+01
   8.8319490e+02   2.5804990e+01
   8.8367710e+02   2.0956300e+01
   8.8415920e+02   1.8788020e+01
   8.8464130e+02   1.9809390e+01
   8.8512340e+02   1.9409300e+01
   8.8560550e+02   1.6543520e+01
   8.8608760e+02   1.4953860e+01
   8.8656980e+02   1.7248470e+01
   8.8705190e+02   2.0008420e+01
   8.8753400e+02   1.8756350e+01
   8.8801610e+02   1.3847350e+01
   8.8849820e+02   1.0882390e+01
   8.8898030e+02   1.0936580e+01
   8.8946250e+02   1.1640380e+01
   8.8994460e+02   1.3467350e+01
   8.9042670e+02   1.4994450e+01
   8.9090880e+02   1.5066220e+01
   8.9139090e+02   1.4149600e+01
   8.9187300e+02   1.3373660e+01
   8.9235520e+02   1.3076050e+01
   8.9283730e+02   1.2256710e+01
   8.9331940e+02   9.7971800e+00
   8.9380150e+02   6.9039920e+00
   8.9428360e+02   4.2943730e+00
   8.9476570e+02   2.4170530e+00
   8.9524790e+02   2.7231450e+00
   8.9573000e+02   5.1006470e+00
   8.9621210e+02   7.0719600e+00
   8.9669420e+02   6.7778320e+00
   8.9717630e+02   4.9895630e+00
   8.9765840e+02   3.0097660e+00
   8.9814060e+02   8.7902800e-01
   8.9862270e+02   1.1323240e+00
   8.9910480e+02   3.0361940e+00
   8.9958690e+02   4.3820800e+00
   9.0006900e+02   4.9962770e+00
   9.0055110e+02   4.8087160e+00
   9.0103330e+02   3.4779050e+00
   9.0151540e+02   8.8958700e-01
   9.0199750e+02   2.1203600e-01
   9.0247960e+02   7.9937700e-01
   9.0296170e+02   2.1343380e+00
   9.0344380e+02   3.7900390e+00
   9.0392600e+02   5.3503420e+00
   9.0440810e+02   6.5874630e+00
   9.0489020e+02   7.5055540e+00
   9.0537230e+02   8.0907590e+00
   9.0585440e+02   8.2902220e+00
   9.0633650e+02   8.2915650e+00
   9.0681870e+02   8.1284180e+00
   9.0730080e+02   7.7926030e+00
   9.0778290e+02   7.5233150e+00
   9.0826500e+02   6.9583130e+00
   9.0874710e+02   5.3377690e+00
   9.0922920e+02   2.7523800e+00
   9.0971140e+02   3.6914100e-01
   9.1019350e+02   1.4276120e+00
   9.1067560e+02   2.2255860e+00
   9.1115770e+02   8.6047400e-01
   9.1163980e+02   1.4948120e+00
   9.1212190e+02   2.5766600e+00
   9.1260410e+02   2.3731080e+00
   9.1308620e+02   2.2015380e+00
   9.1356830e+02   2.6823120e+00
   9.1405040e+02   3.2790530e+00
   9.1453250e+02   3.2940060e+00
   9.1501460e+02   2.7848510e+00
   9.1549680e+02   1.9866940e+00
   9.1597890e+02   8.7414600e-01
   9.1646100e+02   1.5564000e-02
   9.1694310e+02   4.7198500e-01
   9.1742520e+02   5.6396500e-01
   9.1790730e+02   9.6923999e-02
   9.1838950e+02   6.5216100e-01
   9.1887160e+02   5.6140100e-01
   9.1935370e+02   1.1877440e+00
   9.1983580e+02   1.6412960e+00
   9.2031790e+02   9.1614000e-02
   9.2080000e+02   1.8699950e+00
   9.2128220e+02   3.6069950e+00
   9.2176430e+02   4.4866940e+00
   9.2224640e+02   2.8496090e+00
   9.2272850e+02   1.1267090e+00
   9.2321060e+02   3.3367920e+00
   9.2369270e+02   1.7291260e+00
   9.2417490e+02   2.9675300e-01
   9.2465700e+02   2.2125200e-01
   9.2513910e+02   1.8286100e-01
   9.2562120e+02   2.0252080e+00
   9.2610330e+02   4.6494750e+00
   9.2658540e+02   6.8431400e+00
   9.2706760e+02   8.2559200e+00
   9.2754970e+02   9.2501220e+00
   9.2803180e+02   1.0314510e+01
   9.2851390e+02   1.0853940e+01
   9.2899600e+02   9.6629640e+00
   9.2947810e+02   7.7141110e+00
   9.2996030e+02   6.9913330e+00
   9.3044240e+02   7.6621090e+00
   9.3092450e+02   8.5295410e+00
   9.3140660e+02   8.9038700e+00
   9.3188870e+02   8.6680300e+00
   9.3237080e+02   6.8921510e+00
   9.3285300e+02   4.3042600e+00
   9.3333510e+02   4.4644780e+00
   9.3381720e+02   7.3640750e+00
   9.3429930e+02   9.4610600e+00
   9.3478140e+02   9.3518680e+00
   9.3526350e+02   8.8564450e+00
   9.3574570e+02   1.0020450e+01
   9.3622780e+02   1.2491210e+01
   9.3670990e+02   1.4159790e+01
   9.3719200e+02   1.4812740e+01
   9.3767410e+02   1.5706240e+01
   9.3815630e+02   1.7496030e+01
   9.3863840e+02   1.8346010e+01
   9.3912050e+02   1.6773380e+01
   9.3960260e+02   1.4020140e+01
   9.4008470e+02   1.2150700e+01
   9.4056680e+02   1.1133790e+01
   9.4104900e+02   1.1206540e+01
   9.4153110e+02   1.3375000e+01
   9.4201320e+02   1.5222960e+01
   9.4249530e+02   1.6318660e+01
   9.4297740e+02   1.6933900e+01
   9.4345950e+02   1.6875180e+01
   9.4394170e+02   1.6558960e+01
   9.4442380e+02   1.7059880e+01
   9.4490590e+02   1.8851560e+01
   9.4538800e+02   2.0448610e+01
   9.4587010e+02   2.1702090e+01
   9.4635220e+02   2.2206670e+01
   9.4683440e+02   2.1494200e+01
   9.4731650e+02   1.9966920e+01
   9.4779860e+02   1.7771360e+01
   9.4828070e+02   1.5245360e+01
   9.4876280e+02   1.3311040e+01
   9.4924490e+02   1.2235230e+01
   9.4972710e+02   1.2516050e+01
   9.5020920e+02   1.5821900e+01
   9.5069130e+02   2.0101560e+01
   9.5117340e+02   2.2016660e+01
   9.5165550e+02   2.1934450e+01
   9.5213760e+02   2.1744630e+01
   9.5261980e+02   2.2136170e+01
   9.5310190e+02   2.3131530e+01
   9.5358400e+02   2.4956240e+01
   9.5406610e+02   2.7073360e+01
   9.5454820e+02   2.8281800e+01
   9.5503030e+02   2.8676940e+01
   9.5551240e+02   2.8667970e+01
   9.5599450e+02   2.8285280e+01
   9.5647660e+02   2.8631470e+01
   9.5695870e+02   3.0461300e+01
   9.5744090e+02   3.2549870e+01
   9.5792300e+02   3.2584170e+01
   9.5840510e+02   3.4669860e+01
   9.5888720e+02   3.6715520e+01
   9.5936930e+02   3.7169130e+01
   9.5985140e+02   4.0838260e+01
   9.6033360e+02   4.0734440e+01
   9.6081570e+02   4.0290160e+01
   9.6129780e+02   4.2015930e+01
   9.6177990e+02   4.5310790e+01
   9.6226200e+02   4.8620360e+01
   9.6274410e+02   5.2432250e+01
   9.6322630e+02   5.4819700e+01
   9.6370840e+02   5.3970830e+01
   9.6419050e+02   5.4224730e+01
   9.6467260e+02   5.7326900e+01
   9.6515470e+02   6.1499760e+01
   9.6563680e+02   6.5891600e+01
   9.6611900e+02   7.0148740e+01
   9.6660110e+02   7.2772770e+01
   9.6708320e+02   7.2137940e+01
   9.6756530e+02   7.2984380e+01
   9.6804740e+02   7.6920290e+01
   9.6852950e+02   8.1722350e+01
   9.6901170e+02   8.6919860e+01
   9.6949380e+02   9.1682370e+01
   9.6997590e+02   9.4902770e+01
   9.7045800e+02   9.6769470e+01
   9.7094010e+02   9.8977970e+01
   9.7142220e+02   1.0204160e+02
   9.7190440e+02   1.0588340e+02
   9.7238650e+02   1.1053700e+02
   9.7286860e+02   1.1598390e+02
   9.7335070e+02   1.2234560e+02
   9.7383280e+02   1.2941060e+02
   9.7431490e+02   1.3681970e+02
   9.7479710e+02   1.4438900e+02
   9.7527920e+02   1.5185850e+02
   9.7576130e+02   1.5860110e+02
   9.7624340e+02   1.6552820e+02
   9.7672550e+02   1.7467680e+02
   9.7720760e+02   1.8471690e+02
   9.7768980e+02   1.9198880e+02
   9.7817190e+02   1.9695060e+02
   9.7865400e+02   2.0386410e+02
   9.7913610e+02   2.1478390e+02
   9.7961820e+02   2.2725440e+02
   9.8010030e+02   2.3824480e+02
   9.8058250e+02   2.4847770e+02
   9.8106460e+02   2.5976540e+02
   9.8154670e+02   2.7211850e+02
   9.8202880e+02   2.8597610e+02
   9.8251090e+02   3.0136420e+02
   9.8299300e+02   3.1758060e+02
   9.8347520e+02   3.3405420e+02
   9.8395730e+02   3.5126720e+02
   9.8443940e+02   3.7014360e+02
   9.8492150e+02   3.9065520e+02
   9.8540360e+02   4.1198820e+02
   9.8588570e+02   4.3377330e+02
   9.8636790e+02   4.5849000e+02
   9.8685000e+02   4.8668370e+02
   9.8733210e+02   5.1857600e+02
   9.8781420e+02   5.5462540e+02
   9.8829630e+02   5.9426140e+02
   9.8877840e+02   6.3600730e+02
   9.8926060e+02   6.8046480e+02
   9.8974270e+02   7.2426350e+02
   9.9022480e+02   7.6704550e+02
   9.9070690e+02   8.0977590e+02
   9.9118900e+02   8.5132760e+02
   9.9167110e+02   8.9479370e+02
   9.9215330e+02   9.4276790e+02
   9.9263540e+02   9.9524260e+02
   9.9311750e+02   1.0515940e+03
   9.9359960e+02   1.1058270e+03
   9.9408170e+02   1.1743910e+03
   9.9456380e+02   1.2501780e+03
   9.9504600e+02   1.3497180e+03
   9.9552810e+02   1.4770920e+03
   9.9601020e+02   1.6325030e+03
   9.9649230e+02   1.8184360e+03
   9.9697440e+02   2.0337770e+03
   9.9745650e+02   2.2674510e+03
   9.9793870e+02   2.5256170e+03
   9.9842080e+02   2.7870240e+03
   9.9890290e+02   3.0431790e+03
   9.9938500e+02   3.3030870e+03
   9.9986710e+02   3.5507270e+03
   1.0003490e+03   3.8147550e+03
   1.0008310e+03   4.1215760e+03
   1.0013130e+03   4.4800680e+03
   1.0017960e+03   4.9104110e+03
   1.0022780e+03   5.4058390e+03
   1.0027600e+03   5.9961420e+03
   1.0032420e+03   6.6688440e+03
   1.0037240e+03   7.4657380e+03
   1.0042060e+03   8.3994030e+03
   1.0046880e+03   9.5043110e+03
   1.0051700e+03   1.0814940e+04
   1.0056530e+03   1.2354180e+04
   1.0061350e+03   1.4214340e+04
   1.0066170e+03   1.6443770e+04
   1.0070990e+03   1.9052390e+04
   1.0075810e+03   2.2250230e+04
   1.0080630e+03   2.5696050e+04
   1.0085450e+03   2.9359010e+04
   1.0090270e+03   3.2770060e+04
   1.0095090e+03   3.4955940e+04
   1.0099920e+03   3.5541550e+04
   1.0104740e+03   3.4580160e+04
   1.0109560e+03   3.1732690e+04
   1.0114380e+03   2.7793190e+04
   1.0119200e+03   2.3535970e+04
   1.0124020e+03   1.9250090e+04
   1.0128840e+03   1.5537700e+04
   1.0133660e+03   1.2474090e+04
   1.0138490e+03   1.0001790e+04
   1.0143310e+03   8.0800560e+03
   1.0148130e+03   6.5823680e+03
   1.0152950e+03   5.4118960e+03
   1.0157770e+03   4.5168140e+03
   1.0162590e+03   3.7999930e+03
   1.0167410e+03   3.2437140e+03
   1.0172230e+03   2.7897070e+03
   1.0177050e+03   2.4265100e+03
   1.0181880e+03   2.1289060e+03
   1.0186700e+03   1.8855440e+03
   1.0191520e+03   1.6830330e+03
   1.0196340e+03   1.5054370e+03
   1.0201160e+03   1.3521910e+03
   1.0205980e+03   1.2178540e+03
   1.0210800e+03   1.1025640e+03
   1.0215620e+03   1.0037400e+03
   1.0220440e+03   9.2128000e+02
   1.0225270e+03   8.4906510e+02
   1.0230090e+03   7.8389930e+02
   1.0234910e+03   7.2465510e+02
   1.0239730e+03   6.6919610e+02
   1.0244550e+03   6.1764840e+02
   1.0249370e+03   5.7298410e+02
   1.0254190e+03   5.3597640e+02
   1.0259010e+03   5.0190990e+02
   1.0263840e+03   4.6968800e+02
   1.0268660e+03   4.3979390e+02
   1.0273480e+03   4.1273710e+02
   1.0278300e+03   3.8762320e+02
   1.0283120e+03   3.6299950e+02
   1.0287940e+03   3.3880540e+02
   1.0292760e+03   3.1764370e+02
   1.0297580e+03   2.9973610e+02
   1.0302400e+03   2.8285070e+02
   1.0307230e+03   2.6672930e+02
   1.0312050e+03   2.5141410e+02
   1.0316870e+03   2.3670280e+02
   1.0321690e+03   2.2286940e+02
   1.0326510e+03   2.1075380e+02
   1.0331330e+03   2.0075520e+02
   1.0336150e+03   1.8953940e+02
   1.0340970e+03   1.7521500e+02
   1.0345790e+03   1.6360650e+02
   1.0350620e+03   1.5689970e+02
   1.0355440e+03   1.5151570e+02
   1.0360260e+03   1.4545370e+02
   1.0365080e+03   1.3898560e+02
   1.0369900e+03   1.3274610e+02
   1.0374720e+03   1.2685860e+02
   1.0379540e+03   1.2049630e+02
   1.0384360e+03   1.1271390e+02
   1.0389190e+03   1.0605800e+02
   1.0394010e+03   1.0185820e+02
   1.0398830e+03   9.7979550e+01
   1.0403650e+03   9.3470030e+01
   1.0408470e+03   8.8196470e+01
   1.0413290e+03   8.1217770e+01
   1.0418110e+03   7.1390560e+01
   1.0422930e+03   6.5819520e+01
   1.0427760e+03   6.8687740e+01
   1.0432580e+03   7.0099910e+01
   1.0437400e+03   6.7446470e+01
   1.0442220e+03   6.3597960e+01
   1.0447040e+03   5.9681460e+01
   1.0451860e+03   5.6135620e+01
   1.0456680e+03   5.4257810e+01
   1.0461500e+03   5.4706910e+01
   1.0466320e+03   5.2696410e+01
   1.0471150e+03   4.5116580e+01
   1.0475970e+03   3.8620970e+01
   1.0480790e+03   3.4151060e+01
   1.0485610e+03   3.1973080e+01
   1.0490430e+03   3.4293030e+01
   1.0495250e+03   3.8239200e+01
   1.0500070e+03   3.8097170e+01
   1.0504890e+03   3.2813350e+01
   1.0509710e+03   2.8671690e+01
   1.0514540e+03   2.7218690e+01
   1.0519360e+03   2.6617070e+01
   1.0524180e+03   2.7417300e+01
   1.0529000e+03   2.7823360e+01
   1.0533820e+03   2.6244570e+01
   1.0538640e+03   2.3465390e+01
   1.0543460e+03   2.0832210e+01
   1.0548280e+03   1.8515690e+01
   1.0553110e+03   1.6866820e+01
   1.0557930e+03   1.6202580e+01
   1.0562750e+03   1.5917050e+01
   1.0567570e+03   1.6408750e+01
   1.0572390e+03   1.6621700e+01
   1.0577210e+03   1.5622560e+01
   1.0582030e+03   1.3851010e+01
   1.0586850e+03   1.1919680e+01
   1.0591670e+03   9.9580080e+00
   1.0596500e+03   8.6641850e+00
   1.0601320e+03   8.0834350e+00
   1.0606140e+03   8.4556270e+00
   1.0610960e+03   1.1057370e+01
   1.0615780e+03   1.3483640e+01
   1.0620600e+03   1.3788760e+01
   1.0625420e+03   1.2692810e+01
   1.0630240e+03   1.1234800e+01
   1.0635060e+03   9.7013550e+00
   1.0639890e+03   8.9826660e+00
   1.0644710e+03   9.7742310e+00
   1.0649530e+03   1.0894100e+01
   1.0654350e+03   1.3177000e+01
   1.0659170e+03   1.4295780e+01
   1.0663990e+03   1.1428410e+01
   1.0668810e+03   6.7153320e+00
   1.0673630e+03   3.5292360e+00
   1.0678460e+03   2.2927250e+00
   1.0683280e+03   1.1975710e+00
   1.0688100e+03   9.4982900e-01
   1.0692920e+03   2.1486820e+00
   1.0697740e+03   6.8597400e-01
   1.0702560e+03   1.2358400e+00
   1.0707380e+03   2.8883670e+00
   1.0712200e+03   3.4172360e+00
   1.0717030e+03   9.5269800e-01
   1.0721850e+03   3.9945680e+00
   1.0726670e+03   7.4980470e+00
   1.0731490e+03   7.8997190e+00
   1.0736310e+03   7.1773070e+00
   1.0741130e+03   5.4337160e+00
   1.0745950e+03   3.7460330e+00
   1.0750770e+03   2.5211790e+00
   1.0755590e+03   2.0612790e+00
   1.0760420e+03   2.9342040e+00
   1.0765240e+03   4.9438480e+00
   1.0770060e+03   7.1968990e+00
   1.0774880e+03   9.8426510e+00
   1.0779700e+03   1.1262760e+01
   1.0784520e+03   9.7957760e+00
   1.0789340e+03   7.8521120e+00
   1.0794160e+03   7.0796510e+00
   1.0798980e+03   6.7453610e+00
   1.0803800e+03   5.6674800e+00
   1.0808630e+03   4.0892330e+00
   1.0813450e+03   3.1965330e+00
   1.0818270e+03   3.3510130e+00
   1.0823090e+03   4.2316890e+00
   1.0827910e+03   7.0650630e+00
   1.0832730e+03   9.0039060e+00
   1.0837550e+03   7.8663940e+00
   1.0842370e+03   5.2658080e+00
   1.0847200e+03   1.9840090e+00
   1.0852020e+03   1.0156860e+00
   1.0856840e+03   1.5075070e+00
   1.0861660e+03   1.4222410e+00
   1.0866480e+03   3.5058590e+00
   1.0871300e+03   2.0657350e+00
   1.0876120e+03   4.1912800e-01
   1.0880940e+03   4.9926800e-01
   1.0885770e+03   9.8236100e-01
   1.0890590e+03   4.9749800e-01
   1.0895410e+03   5.7684300e-01
   1.0900230e+03   8.9379900e-01
   1.0905050e+03   1.7511000e-01
   1.0909870e+03   8.2910200e-01
   1.0914690e+03   5.2817380e+00
   1.0919510e+03   9.2774660e+00
   1.0924330e+03   1.0666080e+01
   1.0929160e+03   1.1230350e+01
   1.0933980e+03   1.2070010e+01
   1.0938800e+03   1.3218930e+01
   1.0943620e+03   1.4692020e+01
   1.0948440e+03   1.6423030e+01
   1.0953260e+03   1.7690490e+01
   1.0958080e+03   1.7642880e+01
   1.0962900e+03   1.8020510e+01
   1.0967720e+03   1.9900820e+01
   1.0972550e+03   2.1834050e+01
   1.0977370e+03   2.3101070e+01
   1.0982190e+03   2.3740910e+01
   1.0987010e+03   2.3327580e+01
   1.0991830e+03   2.2224370e+01
   1.0996650e+03   2.2725100e+01
   1.1001470e+03   2.6595760e+01
   1.1006290e+03   2.9486510e+01
   1.1011120e+03   2.8982910e+01
   1.1015940e+03   2.8767030e+01
   1.1020760e+03   3.1383850e+01
   1.1025580e+03   3.4644040e+01
   1.1030400e+03   3.6033870e+01
   1.1035220e+03   3.5912350e+01
   1.1040040e+03   3.6192870e+01
   1.1044860e+03   3.7061770e+01
   1.1049690e+03   3.8629760e+01
   1.1054510e+03   4.2044980e+01
   1.1059330e+03   4.4688230e+01
   1.1064150e+03   4.4773800e+01
   1.1068970e+03   4.4544980e+01
   1.1073790e+03   4.6236330e+01
   1.1078610e+03   4.8945800e+01
   1.1083430e+03   5.0057560e+01
   1.1088250e+03   4.8858460e+01
   1.1093070e+03   4.9120240e+01
   1.1097900e+03   5.2705630e+01
   1.1102720e+03   5.5590030e+01
   1.1107540e+03   5.5875550e+01
   1.1112360e+03   5.6389280e+01
   1.1117180e+03   5.9720280e+01
   1.1122000e+03   6.3967220e+01
   1.1126820e+03   6.5627930e+01
   1.1131640e+03   6.4485350e+01
   1.1136470e+03   6.4663640e+01
   1.1141290e+03   6.7108220e+01
   1.1146110e+03   6.9297300e+01
   1.1150930e+03   7.0455140e+01
   1.1155750e+03   7.2207950e+01
   1.1160570e+03   7.6219670e+01
   1.1165390e+03   8.0239440e+01
   1.1170210e+03   8.1001890e+01
   1.1175040e+03   8.3884400e+01
   1.1179860e+03   8.6089840e+01
   1.1184680e+03   8.6232850e+01
   1.1189500e+03   9.0030880e+01
   1.1194320e+03   8.9846440e+01
   1.1199140e+03   9.1125180e+01
   1.1203960e+03   9.6122680e+01
   1.1208780e+03   1.0227400e+02
   1.1213600e+03   1.0754280e+02
   1.1218430e+03   1.1220340e+02
   1.1223250e+03   1.1691920e+02
   1.1228070e+03   1.2150810e+02
   1.1232890e+03   1.2753850e+02
   1.1237710e+03   1.3592960e+02
   1.1242530e+03   1.4244950e+02
   1.1247350e+03   1.4545260e+02
   1.1252170e+03   1.4857680e+02
   1.1256990e+03   1.5378310e+02
   1.1261820e+03   1.6124680e+02
   1.1266640e+03   1.7146300e+02
   1.1271460e+03   1.8424910e+02
   1.1276280e+03   1.9673460e+02
   1.1281100e+03   2.0853130e+02
   1.1285920e+03   2.2280070e+02
   1.1290740e+03   2.4017160e+02
   1.1295560e+03   2.5729340e+02
   1.1300390e+03   2.7193460e+02
   1.1305210e+03   2.8776720e+02
   1.1310030e+03   3.0941220e+02
   1.1314850e+03   3.3018520e+02
   1.1319670e+03   3.5486130e+02
   1.1324490e+03   3.8242690e+02
   1.1329310e+03   4.1106170e+02
   1.1334130e+03   4.4597740e+02
   1.1338960e+03   4.8037480e+02
   1.1343780e+03   5.1216910e+02
   1.1348600e+03   5.4662500e+02
   1.1353420e+03   5.8784910e+02
   1.1358240e+03   6.3403580e+02
   1.1363060e+03   6.8209490e+02
   1.1367880e+03   7.3238900e+02
   1.1372700e+03   7.8648600e+02
   1.1377520e+03   8.4399380e+02
   1.1382340e+03   9.0356340e+02
   1.1387170e+03   9.6479050e+02
   1.1391990e+03   1.0267560e+03
   1.1396810e+03   1.0893450e+03
   1.1401630e+03   1.1507040e+03
   1.1406450e+03   1.2116770e+03
   1.1411270e+03   1.2681740e+03
   1.1416090e+03   1.3145900e+03
   1.1420910e+03   1.3505450e+03
   1.1425740e+03   1.3750090e+03
   1.1430560e+03   1.3875890e+03
   1.1435380e+03   1.3881440e+03
   1.1440200e+03   1.3759670e+03
   1.1445020e+03   1.3472290e+03
   1.1449840e+03   1.2974410e+03
   1.1454660e+03   1.2345680e+03
   1.1459480e+03   1.1623580e+03
   1.1464310e+03   1.0851270e+03
   1.1469130e+03   1.0065930e+03
   1.1473950e+03   9.2834460e+02
   1.1478770e+03   8.5076400e+02
   1.1483590e+03   7.7503490e+02
   1.1488410e+03   7.0593270e+02
   1.1493230e+03   6.4583100e+02
   1.1498050e+03   5.8917130e+02
   1.1502870e+03   5.3044180e+02
   1.1507700e+03   4.7616000e+02
   1.1512520e+03   4.3189970e+02
   1.1517340e+03   3.9382760e+02
   1.1522160e+03   3.5808040e+02
   1.1526980e+03   3.2498720e+02
   1.1531800e+03   2.9633400e+02
   1.1536620e+03   2.7257560e+02
   1.1541440e+03   2.5075810e+02
   1.1546260e+03   2.3055410e+02
   1.1551090e+03   2.1103220e+02
   1.1555910e+03   1.8966290e+02
   1.1560730e+03   1.7133670e+02
   1.1565550e+03   1.6074660e+02
   1.1570370e+03   1.5383810e+02
   1.1575190e+03   1.4570450e+02
   1.1580010e+03   1.3606980e+02
   1.1584830e+03   1.2573320e+02
   1.1589660e+03   1.1259940e+02
   1.1594480e+03   1.0325310e+02
   1.1599300e+03   1.0082500e+02
   1.1604120e+03   9.8464970e+01
   1.1608940e+03   9.4572690e+01
   1.1613760e+03   8.9834720e+01
   1.1618580e+03   8.4077330e+01
   1.1623400e+03   7.8232420e+01
   1.1628220e+03   7.4567630e+01
   1.1633050e+03   7.3381590e+01
   1.1637870e+03   7.0994690e+01
   1.1642690e+03   6.6851260e+01
   1.1647510e+03   6.3144470e+01
   1.1652330e+03   6.0238770e+01
   1.1657150e+03   5.7610900e+01
   1.1661970e+03   5.5040770e+01
   1.1666790e+03   5.2537350e+01
   1.1671610e+03   5.0083010e+01
   1.1676440e+03   4.7723940e+01
   1.1681260e+03   4.5495360e+01
   1.1686080e+03   4.3369510e+01
   1.1690900e+03   4.2355770e+01
   1.1695720e+03   4.2526180e+01
   1.1700540e+03   4.2827090e+01
   1.1705360e+03   4.2979000e+01
   1.1710180e+03   4.3079650e+01
   1.1715000e+03   4.3286990e+01
   1.1719830e+03   4.2797610e+01
   1.1724650e+03   3.9611150e+01
   1.1729470e+03   3.4944640e+01
   1.1734290e+03   3.3135130e+01
   1.1739110e+03   3.3460020e+01
   1.1743930e+03   3.3256900e+01
   1.1748750e+03   3.2258240e+01
   1.1753570e+03   3.1166560e+01
   1.1758400e+03   3.0265200e+01
   1.1763220e+03   2.9578370e+01
   1.1768040e+03   2.9133360e+01
   1.1772860e+03   2.8879390e+01
   1.1777680e+03   2.9115420e+01
   1.1782500e+03   2.9234990e+01
   1.1787320e+03   2.8031920e+01
   1.1792140e+03   2.6146000e+01
   1.1796970e+03   2.4991880e+01
   1.1801790e+03   2.4606140e+01
   1.1806610e+03   2.4000920e+01
   1.1811430e+03   2.2738340e+01
   1.1816250e+03   2.1454530e+01
   1.1821070e+03   2.0736210e+01
   1.1825890e+03   1.9884700e+01
   1.1830710e+03   1.7991580e+01
   1.1835530e+03   1.6153500e+01
   1.1840360e+03   1.5689820e+01
   1.1845180e+03   1.5969120e+01
   1.1850000e+03   1.5514400e+01
   1.1854820e+03   1.5450200e+01
   1.1859640e+03   1.5746220e+01
   1.1864460e+03   1.5060730e+01
   1.1869280e+03   1.5825870e+01
   1.1874100e+03   1.5435790e+01
   1.1878920e+03   1.4343260e+01
   1.1883750e+03   1.1705870e+01
   1.1888570e+03   9.3841550e+00
   1.1893390e+03   9.8613890e+00
   1.1898210e+03   1.1778750e+01
   1.1903030e+03   1.0951350e+01
   1.1907850e+03   6.6134640e+00
   1.1912670e+03   4.0738530e+00
   1.1917490e+03   3.6235350e+00
   1.1922320e+03   4.4011230e+00
   1.1927140e+03   6.9707640e+00
   1.1931960e+03   8.7043460e+00
   1.1936780e+03   8.2802730e+00
   1.1941600e+03   6.3263550e+00
   1.1946420e+03   3.3248900e+00
   1.1951240e+03   2.2845500e-01
   1.1956060e+03   2.5516360e+00
   1.1960890e+03   3.6346440e+00
   1.1965710e+03   2.0693970e+00
   1.1970530e+03   1.9629520e+00
   1.1975350e+03   3.3784790e+00
   1.1980170e+03   1.0370480e+00
   1.1984990e+03   1.4556880e+00
   1.1989810e+03   1.8562010e+00
   1.1994630e+03   3.2152710e+00
   1.1999450e+03   2.2790530e+00
   1.2004270e+03   3.3604130e+00
   1.2009100e+03   2.4271850e+00
   1.2013920e+03   5.8245800e-01
   1.2018740e+03   5.2960200e-01
   1.2023560e+03   1.8510130e+00
   1.2028380e+03   2.5946660e+00
   1.2033200e+03   2.1288450e+00
   1.2038020e+03   8.0249000e-01
   1.2042840e+03   1.4110720e+00
   1.2047670e+03   3.4801640e+00
   1.2052490e+03   4.5978390e+00
   1.2057310e+03   5.2483520e+00
   1.2062130e+03   5.6608280e+00
   1.2066950e+03   5.6493530e+00
   1.2071770e+03   4.8213500e+00
   1.2076590e+03   3.6563110e+00
   1.2081410e+03   3.6154790e+00
   1.2086240e+03   4.8679200e+00
   1.2091060e+03   4.8859250e+00
   1.2095880e+03   7.2460900e-01
   1.2100700e+03   1.1830440e+00
   1.2105520e+03   2.9162600e+00
   1.2110340e+03   6.5913090e+00
   1.2115160e+03   4.9821170e+00
   1.2119980e+03   2.9057620e+00
   1.2124800e+03   6.3602290e+00
   1.2129630e+03   5.6250000e+00
   1.2134450e+03   5.7302860e+00
   1.2139270e+03   8.6658330e+00
   1.2144090e+03   6.2500000e+00
   1.2148910e+03   8.2409670e+00
   1.2153730e+03   1.0400020e+01
   1.2158550e+03   1.2141360e+01
   1.2163370e+03   1.2809940e+01
   1.2168190e+03   1.1903440e+01
   1.2173020e+03   1.0655400e+01
   1.2177840e+03   1.0514280e+01
   1.2182660e+03   1.1281680e+01
   1.2187480e+03   1.2561520e+01
   1.2192300e+03   1.4176330e+01
   1.2197120e+03   1.5131840e+01
   1.2201940e+03   1.5494630e+01
   1.2206760e+03   1.5652830e+01
   1.2211590e+03   1.5819150e+01
   1.2216410e+03   1.6792480e+01
   1.2221230e+03   1.9065490e+01
   1.2226050e+03   2.0788640e+01
   1.2230870e+03   1.9817810e+01
   1.2235690e+03   1.7575680e+01
   1.2240510e+03   1.4568910e+01
   1.2245330e+03   1.2136600e+01
   1.2250160e+03   1.2982240e+01
   1.2254980e+03   1.5416930e+01
   1.2259800e+03   1.5534610e+01
   1.2264620e+03   1.3201780e+01
   1.2269440e+03   1.2217040e+01
   1.2274260e+03   1.4371890e+01
   1.2279080e+03   1.6613770e+01
   1.2283900e+03   1.8116760e+01
   1.2288720e+03   1.8923400e+01
   1.2293540e+03   1.8601380e+01
   1.2298370e+03   1.8026670e+01
   1.2303190e+03   1.7923580e+01
   1.2308010e+03   1.8007870e+01
   1.2312830e+03   1.7574220e+01
   1.2317650e+03   1.6667970e+01
   1.2322470e+03   1.6868710e+01
   1.2327290e+03   1.8950990e+01
   1.2332110e+03   1.9707760e+01
   1.2336940e+03   1.8679750e+01
   1.2341760e+03   1.7387880e+01
   1.2346580e+03   1.6114930e+01
   1.2351400e+03   1.5486510e+01
   1.2356220e+03   1.5987920e+01
   1.2361040e+03   1.7273800e+01
   1.2365860e+03   1.9045230e+01
   1.2370680e+03   2.0942080e+01
   1.2375510e+03   2.1270200e+01
   1.2380330e+03   2.0358830e+01
   1.2385150e+03   1.9729370e+01
   1.2389970e+03   1.9390620e+01
   1.2394790e+03   1.8177190e+01
   1.2399610e+03   1.6009700e+01
   1.2404430e+03   1.4776980e+01
   1.2409250e+03   1.6017580e+01
   1.2414070e+03   1.7992000e+01
   1.2418900e+03   1.8161870e+01
   1.2423720e+03   1.7056210e+01
   1.2428540e+03   1.5175420e+01
   1.2433360e+03   1.3241580e+01
   1.2438180e+03   1.1067930e+01
   1.2443000e+03   9.0879520e+00
   1.2447820e+03   9.3463750e+00
   1.2452640e+03   1.1680240e+01
   1.2457460e+03   1.3676150e+01
   1.2462290e+03   1.4988890e+01
   1.2467110e+03   1.5430850e+01
   1.2471930e+03   1.4245180e+01
   1.2476750e+03   1.3041380e+01
   1.2481570e+03   1.2439510e+01
   1.2486390e+03   1.2410100e+01
   1.2491210e+03   1.3627930e+01
   1.2496030e+03   1.4810420e+01
   1.2500850e+03   1.3253970e+01
   1.2505680e+03   9.2386470e+00
   1.2510500e+03   7.9947510e+00
   1.2515320e+03   9.8921510e+00
   1.2520140e+03   1.0286930e+01
   1.2524960e+03   8.7590940e+00
   1.2529780e+03   7.7685550e+00
   1.2534600e+03   8.0503540e+00
   1.2539420e+03   8.4997560e+00
   1.2544250e+03   8.3811650e+00
   1.2549070e+03   7.8038330e+00
   1.2553890e+03   6.5538330e+00
   1.2558710e+03   5.2307740e+00
   1.2563530e+03   5.0158690e+00
   1.2568350e+03   5.5473020e+00
   1.2573170e+03   6.4837040e+00
   1.2577990e+03   7.4768070e+00
   1.2582810e+03   8.1173710e+00
   1.2587640e+03   8.1809080e+00
   1.2592460e+03   7.0295410e+00
   1.2597280e+03   3.9703370e+00
   1.2602100e+03   1.3174440e+00
   1.2606920e+03   8.0084200e-01
   1.2611740e+03   1.0100100e+00
   1.2616560e+03   4.2929080e+00
   1.2621380e+03   8.7484740e+00
   1.2626200e+03   5.4516600e+00
   1.2631030e+03   6.8249500e-01
   1.2635850e+03   8.3026100e-01
   1.2640670e+03   4.0330810e+00
   1.2645490e+03   5.0158080e+00
   1.2650310e+03   1.0723900e-01
   1.2655130e+03   1.5773320e+00
   1.2659950e+03   9.4335900e-01
   1.2664770e+03   2.2763670e+00
   1.2669600e+03   9.7515900e-01
   1.2674420e+03   1.5100100e-01
   1.2679240e+03   1.5886840e+00
   1.2684060e+03   3.9375610e+00
   1.2688880e+03   5.9803470e+00
   1.2693700e+03   7.0487670e+00
   1.2698520e+03   4.4774780e+00
   1.2703340e+03   2.0336900e-01
   1.2708170e+03   5.5084200e-01
   1.2712990e+03   1.2311400e+00
   1.2717810e+03   2.2227780e+00
   1.2722630e+03   2.0455320e+00
   1.2727450e+03   1.9825440e+00
   1.2732270e+03   1.8473510e+00
   1.2737090e+03   2.4285280e+00
   1.2741910e+03   1.1786500e+00
   1.2746730e+03   6.7169200e-01
   1.2751560e+03   3.6437990e+00
   1.2756380e+03   5.6734010e+00
   1.2761200e+03   5.2166140e+00
   1.2766020e+03   3.9156490e+00
   1.2770840e+03   6.0910640e+00
   1.2775660e+03   1.0135560e+01
   1.2780480e+03   1.0296510e+01
   1.2785300e+03   8.4545290e+00
   1.2790120e+03   6.1886600e+00
   1.2794950e+03   3.0999150e+00
   1.2799770e+03   1.0867310e+00
   1.2804590e+03   1.6115110e+00
   1.2809410e+03   3.1432500e+00
   1.2814230e+03   5.5095830e+00
   1.2819050e+03   7.2062990e+00
   1.2823870e+03   6.9175420e+00
   1.2828690e+03   5.2202760e+00
   1.2833520e+03   3.0892940e+00
   1.2838340e+03   8.9990200e-01
   1.2843160e+03   2.0752000e-02
   1.2847980e+03   0.0000000e+00
   1.5000000e+03   0.0000000e+00
