   1.0000000e+02   0.0000000e+00
   1.2993280e+02   0.0000000e+00
   1.3041490e+02   1.8222660e+01
   1.3089700e+02   1.0937990e+01
   1.3137910e+02   8.6518550e+00
   1.3186120e+02   3.0170410e+01
   1.3234330e+02   4.3880250e+01
   1.3282550e+02   4.7352170e+01
   1.3330760e+02   5.4445070e+01
   1.3378970e+02   9.0483950e+01
   1.3427180e+02   1.0828780e+02
   1.3475390e+02   1.0286510e+02
   1.3523600e+02   8.5420530e+01
   1.3571820e+02   6.2373660e+01
   1.3620030e+02   3.6456120e+01
   1.3668240e+02   1.2018250e+01
   1.3716450e+02   7.7981570e+00
   1.3764660e+02   1.6364560e+01
   1.3812870e+02   1.1906620e+01
   1.3861090e+02   5.9460400e-01
   1.3909300e+02   1.5639770e+01
   1.3957510e+02   3.4274290e+01
   1.4005720e+02   5.1869380e+01
   1.4053930e+02   6.4050720e+01
   1.4102140e+02   6.6606630e+01
   1.4150360e+02   8.4738590e+01
   1.4198570e+02   1.2473550e+02
   1.4246780e+02   1.7724990e+02
   1.4294990e+02   2.2102890e+02
   1.4343200e+02   2.4646830e+02
   1.4391410e+02   2.7623840e+02
   1.4439630e+02   3.2093140e+02
   1.4487840e+02   3.8869640e+02
   1.4536050e+02   4.5781510e+02
   1.4584260e+02   5.3553850e+02
   1.4632470e+02   6.1686630e+02
   1.4680680e+02   6.7475000e+02
   1.4728900e+02   7.0878750e+02
   1.4777110e+02   7.1902660e+02
   1.4825320e+02   7.0491420e+02
   1.4873530e+02   6.4871060e+02
   1.4921740e+02   5.8924310e+02
   1.4969950e+02   5.2665440e+02
   1.5018170e+02   4.5888450e+02
   1.5066380e+02   4.0600880e+02
   1.5114590e+02   3.7241210e+02
   1.5162800e+02   3.5184580e+02
   1.5211010e+02   3.3845530e+02
   1.5259220e+02   3.3416500e+02
   1.5307440e+02   3.3474300e+02
   1.5355650e+02   3.3889140e+02
   1.5403860e+02   3.4587220e+02
   1.5452070e+02   3.5886270e+02
   1.5500280e+02   3.8432900e+02
   1.5548490e+02   4.1520430e+02
   1.5596710e+02   4.4028870e+02
   1.5644920e+02   4.5660660e+02
   1.5693130e+02   4.6727220e+02
   1.5741340e+02   4.7364390e+02
   1.5789550e+02   4.7660460e+02
   1.5837770e+02   4.7428980e+02
   1.5885980e+02   4.5771410e+02
   1.5934190e+02   4.3399260e+02
   1.5982400e+02   4.2384810e+02
   1.6030610e+02   4.4316440e+02
   1.6078820e+02   4.7299000e+02
   1.6127040e+02   5.0070600e+02
   1.6175250e+02   5.1782570e+02
   1.6223460e+02   5.3818620e+02
   1.6271670e+02   5.6535000e+02
   1.6319880e+02   5.9994240e+02
   1.6368090e+02   6.4338950e+02
   1.6416310e+02   7.0393920e+02
   1.6464520e+02   7.7118760e+02
   1.6512730e+02   8.3487490e+02
   1.6560940e+02   8.9381350e+02
   1.6609150e+02   9.4556920e+02
   1.6657360e+02   9.9189090e+02
   1.6705580e+02   1.0331380e+03
   1.6753790e+02   1.0581460e+03
   1.6802000e+02   1.0474110e+03
   1.6850210e+02   1.0172040e+03
   1.6898420e+02   9.9267440e+02
   1.6946630e+02   9.7630580e+02
   1.6994850e+02   9.7536660e+02
   1.7043060e+02   9.9796950e+02
   1.7091270e+02   1.0428300e+03
   1.7139480e+02   1.1020210e+03
   1.7187690e+02   1.1682100e+03
   1.7235900e+02   1.2406040e+03
   1.7284120e+02   1.3213180e+03
   1.7332330e+02   1.4140840e+03
   1.7380540e+02   1.5147120e+03
   1.7428750e+02   1.6156590e+03
   1.7476960e+02   1.7142400e+03
   1.7525170e+02   1.8190080e+03
   1.7573390e+02   1.9456240e+03
   1.7621600e+02   2.0899250e+03
   1.7669810e+02   2.2271440e+03
   1.7718020e+02   2.3532640e+03
   1.7766230e+02   2.4616050e+03
   1.7814440e+02   2.5391420e+03
   1.7862660e+02   2.5876130e+03
   1.7910870e+02   2.6001210e+03
   1.7959080e+02   2.5550430e+03
   1.8007290e+02   2.4555520e+03
   1.8055500e+02   2.3385120e+03
   1.8103710e+02   2.2285060e+03
   1.8151930e+02   2.1242680e+03
   1.8200140e+02   2.0249660e+03
   1.8248350e+02   1.9235880e+03
   1.8296560e+02   1.8295680e+03
   1.8344770e+02   1.7599350e+03
   1.8392980e+02   1.7155210e+03
   1.8441200e+02   1.6903020e+03
   1.8489410e+02   1.6787240e+03
   1.8537620e+02   1.6810880e+03
   1.8585830e+02   1.6998840e+03
   1.8634040e+02   1.7463690e+03
   1.8682250e+02   1.8126870e+03
   1.8730470e+02   1.8722260e+03
   1.8778680e+02   1.9227430e+03
   1.8826890e+02   1.9722790e+03
   1.8875100e+02   2.0408390e+03
   1.8923310e+02   2.1266190e+03
   1.8971520e+02   2.2023540e+03
   1.9019740e+02   2.2587590e+03
   1.9067950e+02   2.2948190e+03
   1.9116160e+02   2.3080850e+03
   1.9164370e+02   2.2995080e+03
   1.9212580e+02   2.2648090e+03
   1.9260800e+02   2.1938790e+03
   1.9309010e+02   2.0848680e+03
   1.9357220e+02   1.9564820e+03
   1.9405430e+02   1.8119690e+03
   1.9453640e+02   1.6532220e+03
   1.9501850e+02   1.4978740e+03
   1.9550070e+02   1.3475090e+03
   1.9598280e+02   1.2042930e+03
   1.9646490e+02   1.0740860e+03
   1.9694700e+02   9.5390350e+02
   1.9742910e+02   8.4611070e+02
   1.9791120e+02   7.5390870e+02
   1.9839340e+02   6.7806540e+02
   1.9887550e+02   6.0579000e+02
   1.9935760e+02   5.3467350e+02
   1.9983970e+02   4.6704250e+02
   2.0032180e+02   4.1112650e+02
   2.0080390e+02   3.6816880e+02
   2.0128610e+02   3.3125400e+02
   2.0176820e+02   2.9390320e+02
   2.0225030e+02   2.5502280e+02
   2.0273240e+02   2.2457730e+02
   2.0321450e+02   2.0677280e+02
   2.0369660e+02   1.9950340e+02
   2.0417880e+02   1.8755620e+02
   2.0466090e+02   1.6927800e+02
   2.0514300e+02   1.5043620e+02
   2.0562510e+02   1.3718990e+02
   2.0610720e+02   1.3086150e+02
   2.0658930e+02   1.2416750e+02
   2.0707150e+02   1.1488060e+02
   2.0755360e+02   1.0320990e+02
   2.0803570e+02   9.4499570e+01
   2.0851780e+02   9.0299380e+01
   2.0899990e+02   8.6560850e+01
   2.0948200e+02   7.7046570e+01
   2.0996420e+02   5.8590640e+01
   2.1044630e+02   4.4696720e+01
   2.1092840e+02   4.0816960e+01
   2.1141050e+02   4.8127870e+01
   2.1189260e+02   5.0940370e+01
   2.1237470e+02   4.6854800e+01
   2.1285690e+02   4.0908450e+01
   2.1333900e+02   4.1058350e+01
   2.1382110e+02   4.9564090e+01
   2.1430320e+02   5.8380070e+01
   2.1478530e+02   6.5032230e+01
   2.1526740e+02   6.9357480e+01
   2.1574960e+02   7.1593570e+01
   2.1623170e+02   7.0390750e+01
   2.1671380e+02   6.8091920e+01
   2.1719590e+02   6.8269040e+01
   2.1767800e+02   6.9197630e+01
   2.1816010e+02   7.6213070e+01
   2.1864230e+02   9.3910400e+01
   2.1912440e+02   1.2986630e+02
   2.1960650e+02   1.5274100e+02
   2.2008860e+02   1.5636930e+02
   2.2057070e+02   1.4968410e+02
   2.2105280e+02   1.5566240e+02
   2.2153500e+02   1.8038100e+02
   2.2201710e+02   2.0724400e+02
   2.2249920e+02   2.2804360e+02
   2.2298130e+02   2.3773960e+02
   2.2346340e+02   2.5372520e+02
   2.2394550e+02   2.7662660e+02
   2.2442770e+02   3.0635240e+02
   2.2490980e+02   3.4095270e+02
   2.2539190e+02   3.8193480e+02
   2.2587400e+02   4.2632520e+02
   2.2635610e+02   4.7320430e+02
   2.2683820e+02   5.2210820e+02
   2.2732040e+02   5.7381230e+02
   2.2780250e+02   6.2950240e+02
   2.2828460e+02   6.8773330e+02
   2.2876670e+02   7.4235930e+02
   2.2924880e+02   7.8694480e+02
   2.2973100e+02   8.3479450e+02
   2.3021310e+02   8.9734120e+02
   2.3069520e+02   9.8826560e+02
   2.3117730e+02   1.0645880e+03
   2.3165940e+02   1.1263220e+03
   2.3214150e+02   1.1717460e+03
   2.3262370e+02   1.1904500e+03
   2.3310580e+02   1.1830470e+03
   2.3358790e+02   1.1481880e+03
   2.3407000e+02   1.0812260e+03
   2.3455210e+02   9.6468750e+02
   2.3503420e+02   8.5137870e+02
   2.3551640e+02   7.4917200e+02
   2.3599850e+02   6.5747300e+02
   2.3648060e+02   5.6430640e+02
   2.3696270e+02   4.6616560e+02
   2.3744480e+02   3.7201320e+02
   2.3792690e+02   2.8696140e+02
   2.3840910e+02   2.0598970e+02
   2.3889120e+02   1.4560650e+02
   2.3937330e+02   1.1476220e+02
   2.3985540e+02   1.1319730e+02
   2.4033750e+02   1.0124420e+02
   2.4081960e+02   7.2611510e+01
   2.4130180e+02   3.9890440e+01
   2.4178390e+02   1.4228760e+01
   2.4226600e+02   2.0261840e+00
   2.4274810e+02   1.5596500e+01
   2.4323020e+02   2.7121700e+01
   2.4371230e+02   3.6516420e+01
   2.4419450e+02   4.6352170e+01
   2.4467660e+02   5.8536620e+01
   2.4515870e+02   6.9363100e+01
   2.4564080e+02   7.4325500e+01
   2.4612290e+02   6.8688780e+01
   2.4660500e+02   6.6360660e+01
   2.4708720e+02   7.2163020e+01
   2.4756930e+02   8.7377690e+01
   2.4805140e+02   9.4617190e+01
   2.4853350e+02   8.9355350e+01
   2.4901560e+02   8.0141910e+01
   2.4949770e+02   7.7624080e+01
   2.4997990e+02   8.6867310e+01
   2.5046200e+02   9.2678710e+01
   2.5094410e+02   8.9808780e+01
   2.5142620e+02   7.6661680e+01
   2.5190830e+02   6.9833680e+01
   2.5239040e+02   7.1546020e+01
   2.5287260e+02   7.7646970e+01
   2.5335470e+02   8.4154480e+01
   2.5383680e+02   9.4327640e+01
   2.5431890e+02   9.8239200e+01
   2.5480100e+02   9.1780520e+01
   2.5528310e+02   7.3196350e+01
   2.5576530e+02   5.6911190e+01
   2.5624740e+02   4.2599000e+01
   2.5672950e+02   3.1041870e+01
   2.5721160e+02   2.4449580e+01
   2.5769370e+02   2.5749510e+01
   2.5817580e+02   2.5583860e+01
   2.5865800e+02   2.1471680e+01
   2.5914010e+02   1.3199100e+01
   2.5962220e+02   1.6610110e+00
   2.6010430e+02   1.5420170e+01
   2.6058640e+02   3.3404660e+01
   2.6106850e+02   4.4574220e+01
   2.6155070e+02   4.5925420e+01
   2.6203280e+02   4.7654050e+01
   2.6251490e+02   5.2049070e+01
   2.6299700e+02   5.8784300e+01
   2.6347910e+02   7.1736450e+01
   2.6396120e+02   9.3516360e+01
   2.6444340e+02   1.1902950e+02
   2.6492550e+02   1.4040370e+02
   2.6540760e+02   1.5590250e+02
   2.6588970e+02   1.7180620e+02
   2.6637180e+02   1.8995780e+02
   2.6685390e+02   2.1000330e+02
   2.6733610e+02   2.3443980e+02
   2.6781820e+02   2.6529000e+02
   2.6830030e+02   2.9698300e+02
   2.6878240e+02   3.2091740e+02
   2.6926450e+02   3.3471510e+02
   2.6974660e+02   3.4976870e+02
   2.7022880e+02   3.7010230e+02
   2.7071090e+02   3.9578560e+02
   2.7119300e+02   4.2423400e+02
   2.7167510e+02   4.5729660e+02
   2.7215720e+02   4.9180640e+02
   2.7263930e+02   5.2278470e+02
   2.7312150e+02   5.4935170e+02
   2.7360360e+02   5.7580140e+02
   2.7408570e+02   6.0464060e+02
   2.7456780e+02   6.3612740e+02
   2.7504990e+02   6.6223290e+02
   2.7553200e+02   6.8218690e+02
   2.7601420e+02   6.9886830e+02
   2.7649630e+02   7.1518710e+02
   2.7697840e+02   7.3034280e+02
   2.7746050e+02   7.4985670e+02
   2.7794260e+02   7.7737120e+02
   2.7842470e+02   8.1253320e+02
   2.7890690e+02   8.4535450e+02
   2.7938900e+02   8.7412010e+02
   2.7987110e+02   9.0373190e+02
   2.8035320e+02   9.4340160e+02
   2.8083540e+02   9.9416940e+02
   2.8131750e+02   1.0427630e+03
   2.8179960e+02   1.0807680e+03
   2.8228170e+02   1.1097300e+03
   2.8276380e+02   1.1472730e+03
   2.8324590e+02   1.1950010e+03
   2.8372810e+02   1.2466870e+03
   2.8421020e+02   1.2919450e+03
   2.8469230e+02   1.3307060e+03
   2.8517440e+02   1.3754330e+03
   2.8565650e+02   1.4351190e+03
   2.8613860e+02   1.5064970e+03
   2.8662080e+02   1.5649290e+03
   2.8710290e+02   1.6073940e+03
   2.8758500e+02   1.6491300e+03
   2.8806710e+02   1.7122240e+03
   2.8854920e+02   1.7952280e+03
   2.8903130e+02   1.8797700e+03
   2.8951350e+02   1.9572050e+03
   2.8999560e+02   2.0300760e+03
   2.9047770e+02   2.1098740e+03
   2.9095980e+02   2.1977050e+03
   2.9144190e+02   2.2880470e+03
   2.9192400e+02   2.3722590e+03
   2.9240620e+02   2.4524720e+03
   2.9288830e+02   2.5384140e+03
   2.9337040e+02   2.6387930e+03
   2.9385250e+02   2.7474010e+03
   2.9433460e+02   2.8520690e+03
   2.9481670e+02   2.9517680e+03
   2.9529890e+02   3.0483100e+03
   2.9578100e+02   3.1371420e+03
   2.9626310e+02   3.2219570e+03
   2.9674520e+02   3.3192030e+03
   2.9722730e+02   3.4350230e+03
   2.9770940e+02   3.5660670e+03
   2.9819160e+02   3.7123880e+03
   2.9867370e+02   3.8731090e+03
   2.9915580e+02   4.0372450e+03
   2.9963790e+02   4.1883980e+03
   3.0012000e+02   4.3328480e+03
   3.0060210e+02   4.4915900e+03
   3.0108430e+02   4.6842690e+03
   3.0156640e+02   4.8880490e+03
   3.0204850e+02   5.0694920e+03
   3.0253060e+02   5.2305600e+03
   3.0301270e+02   5.3891780e+03
   3.0349480e+02   5.5707590e+03
   3.0397700e+02   5.7605780e+03
   3.0445910e+02   5.9369210e+03
   3.0494120e+02   6.1095350e+03
   3.0542330e+02   6.2490120e+03
   3.0590540e+02   6.3262830e+03
   3.0638750e+02   6.3435300e+03
   3.0686970e+02   6.3181110e+03
   3.0735180e+02   6.2630330e+03
   3.0783390e+02   6.1702570e+03
   3.0831600e+02   6.0300020e+03
   3.0879810e+02   5.8197390e+03
   3.0928020e+02   5.5796550e+03
   3.0976240e+02   5.3390170e+03
   3.1024450e+02   5.0956460e+03
   3.1072660e+02   4.8459410e+03
   3.1120870e+02   4.5834190e+03
   3.1169080e+02   4.3128290e+03
   3.1217290e+02   4.0379140e+03
   3.1265510e+02   3.7338350e+03
   3.1313720e+02   3.4518530e+03
   3.1361930e+02   3.2277760e+03
   3.1410140e+02   3.0525970e+03
   3.1458350e+02   2.8926190e+03
   3.1506560e+02   2.7316250e+03
   3.1554780e+02   2.5781280e+03
   3.1602990e+02   2.4378440e+03
   3.1651200e+02   2.3069350e+03
   3.1699410e+02   2.1963780e+03
   3.1747620e+02   2.1152750e+03
   3.1795830e+02   2.0592810e+03
   3.1844050e+02   2.0148160e+03
   3.1892260e+02   1.9811330e+03
   3.1940470e+02   1.9559000e+03
   3.1988680e+02   1.9372170e+03
   3.2036890e+02   1.9198130e+03
   3.2085100e+02   1.9166270e+03
   3.2133320e+02   1.9306560e+03
   3.2181530e+02   1.9610410e+03
   3.2229740e+02   2.0057050e+03
   3.2277950e+02   2.0755280e+03
   3.2326160e+02   2.1508160e+03
   3.2374370e+02   2.2219310e+03
   3.2422590e+02   2.2785040e+03
   3.2470800e+02   2.3480490e+03
   3.2519010e+02   2.4371770e+03
   3.2567220e+02   2.5409740e+03
   3.2615430e+02   2.6491760e+03
   3.2663640e+02   2.7611070e+03
   3.2711860e+02   2.8782820e+03
   3.2760070e+02   3.0015020e+03
   3.2808280e+02   3.1318430e+03
   3.2856490e+02   3.2654840e+03
   3.2904700e+02   3.4024490e+03
   3.2952910e+02   3.5429180e+03
   3.3001130e+02   3.6884250e+03
   3.3049340e+02   3.8515440e+03
   3.3097550e+02   4.0045640e+03
   3.3145760e+02   4.1361190e+03
   3.3193970e+02   4.2372040e+03
   3.3242180e+02   4.3550500e+03
   3.3290400e+02   4.4999890e+03
   3.3338610e+02   4.6543850e+03
   3.3386820e+02   4.7929270e+03
   3.3435030e+02   4.9022650e+03
   3.3483240e+02   5.0273780e+03
   3.3531450e+02   5.1886820e+03
   3.3579670e+02   5.3893060e+03
   3.3627880e+02   5.5569170e+03
   3.3676090e+02   5.6842030e+03
   3.3724300e+02   5.7927790e+03
   3.3772510e+02   5.9087310e+03
   3.3820720e+02   6.0436950e+03
   3.3868940e+02   6.1434800e+03
   3.3917150e+02   6.2033100e+03
   3.3965360e+02   6.2199190e+03
   3.4013570e+02   6.1694310e+03
   3.4061780e+02   6.0483630e+03
   3.4109990e+02   5.8703140e+03
   3.4158210e+02   5.6332660e+03
   3.4206420e+02   5.3402900e+03
   3.4254630e+02   5.0280020e+03
   3.4302840e+02   4.7019670e+03
   3.4351050e+02   4.3645450e+03
   3.4399260e+02   4.0225410e+03
   3.4447480e+02   3.6752980e+03
   3.4495690e+02   3.3513830e+03
   3.4543900e+02   3.0829620e+03
   3.4592110e+02   2.8633730e+03
   3.4640320e+02   2.6544460e+03
   3.4688530e+02   2.4494800e+03
   3.4736750e+02   2.2540550e+03
   3.4784960e+02   2.0815690e+03
   3.4833170e+02   1.9324480e+03
   3.4881380e+02   1.8010920e+03
   3.4929590e+02   1.6892550e+03
   3.4977800e+02   1.5933830e+03
   3.5026020e+02   1.5009230e+03
   3.5074230e+02   1.4094230e+03
   3.5122440e+02   1.3278460e+03
   3.5170650e+02   1.2665480e+03
   3.5218870e+02   1.2234440e+03
   3.5267080e+02   1.1937480e+03
   3.5315290e+02   1.1811830e+03
   3.5363500e+02   1.1773250e+03
   3.5411710e+02   1.1694870e+03
   3.5459920e+02   1.1548920e+03
   3.5508140e+02   1.1493490e+03
   3.5556350e+02   1.1656260e+03
   3.5604560e+02   1.1987660e+03
   3.5652770e+02   1.2407260e+03
   3.5700980e+02   1.2851640e+03
   3.5749190e+02   1.3405770e+03
   3.5797410e+02   1.4164210e+03
   3.5845620e+02   1.5127250e+03
   3.5893830e+02   1.6130280e+03
   3.5942040e+02   1.6966230e+03
   3.5990250e+02   1.7831900e+03
   3.6038460e+02   1.8945320e+03
   3.6086680e+02   2.0567620e+03
   3.6134890e+02   2.2280310e+03
   3.6183100e+02   2.3825830e+03
   3.6231310e+02   2.5227500e+03
   3.6279520e+02   2.6847170e+03
   3.6327730e+02   2.8831800e+03
   3.6375950e+02   3.1068870e+03
   3.6424160e+02   3.3479790e+03
   3.6472370e+02   3.6047980e+03
   3.6520580e+02   3.8794980e+03
   3.6568790e+02   4.1732660e+03
   3.6617000e+02   4.4853090e+03
   3.6665220e+02   4.8058120e+03
   3.6713430e+02   5.1237440e+03
   3.6761640e+02   5.4551810e+03
   3.6809850e+02   5.8108540e+03
   3.6858060e+02   6.1954270e+03
   3.6906270e+02   6.5978280e+03
   3.6954490e+02   7.0272730e+03
   3.7002700e+02   7.4707550e+03
   3.7050910e+02   7.9215610e+03
   3.7099120e+02   8.4022720e+03
   3.7147330e+02   8.8616120e+03
   3.7195540e+02   9.2789840e+03
   3.7243760e+02   9.6563300e+03
   3.7291970e+02   9.9993340e+03
   3.7340180e+02   1.0325330e+04
   3.7388390e+02   1.0596540e+04
   3.7436600e+02   1.0763030e+04
   3.7484810e+02   1.0818920e+04
   3.7533030e+02   1.0784650e+04
   3.7581240e+02   1.0665510e+04
   3.7629450e+02   1.0462450e+04
   3.7677660e+02   1.0157320e+04
   3.7725870e+02   9.7388540e+03
   3.7774080e+02   9.2538340e+03
   3.7822300e+02   8.7330160e+03
   3.7870510e+02   8.1801700e+03
   3.7918720e+02   7.6132340e+03
   3.7966930e+02   7.0319660e+03
   3.8015140e+02   6.4456200e+03
   3.8063350e+02   5.8973890e+03
   3.8111570e+02   5.3825020e+03
   3.8159780e+02   4.9066090e+03
   3.8207990e+02   4.4779950e+03
   3.8256200e+02   4.0917920e+03
   3.8304410e+02   3.7314990e+03
   3.8352620e+02   3.3911350e+03
   3.8400840e+02   3.0749270e+03
   3.8449050e+02   2.7806960e+03
   3.8497260e+02   2.5093340e+03
   3.8545470e+02   2.2672090e+03
   3.8593680e+02   2.0587400e+03
   3.8641890e+02   1.8765250e+03
   3.8690110e+02   1.7103630e+03
   3.8738320e+02   1.5583820e+03
   3.8786530e+02   1.4178020e+03
   3.8834740e+02   1.2853740e+03
   3.8882950e+02   1.1615960e+03
   3.8931160e+02   1.0500080e+03
   3.8979380e+02   9.5498930e+02
   3.9027590e+02   8.7195460e+02
   3.9075800e+02   7.9858310e+02
   3.9124010e+02   7.3526160e+02
   3.9172220e+02   6.7749580e+02
   3.9220430e+02   6.2737740e+02
   3.9268650e+02   5.8066890e+02
   3.9316860e+02   5.3164060e+02
   3.9365070e+02   4.7346200e+02
   3.9413280e+02   4.1834720e+02
   3.9461490e+02   3.7030140e+02
   3.9509700e+02   3.2910550e+02
   3.9557920e+02   2.9240970e+02
   3.9606130e+02   2.5902940e+02
   3.9654340e+02   2.3067650e+02
   3.9702550e+02   2.0785460e+02
   3.9750760e+02   1.9876090e+02
   3.9798970e+02   1.8578030e+02
   3.9847190e+02   1.6567080e+02
   3.9895400e+02   1.4120620e+02
   3.9943610e+02   1.1944700e+02
   3.9991820e+02   1.0125280e+02
   4.0040030e+02   8.3633420e+01
   4.0088240e+02   6.5632080e+01
   4.0136460e+02   4.6583620e+01
   4.0184670e+02   2.9492310e+01
   4.0232880e+02   1.4104980e+01
   4.0281090e+02   1.0429690e+00
   4.0329300e+02   8.6750490e+00
   4.0377510e+02   1.4881100e+01
   4.0425730e+02   1.8357420e+01
   4.0473940e+02   1.6888310e+01
   4.0522150e+02   1.1079100e+01
   4.0570360e+02   1.8334350e+01
   4.0618570e+02   4.2705630e+01
   4.0666780e+02   6.7466430e+01
   4.0715000e+02   7.4008730e+01
   4.0763210e+02   6.2236080e+01
   4.0811420e+02   5.2691280e+01
   4.0859630e+02   4.9858030e+01
   4.0907840e+02   5.1949280e+01
   4.0956050e+02   5.5841370e+01
   4.1004270e+02   6.1514530e+01
   4.1052480e+02   6.6136110e+01
   4.1100690e+02   6.6377380e+01
   4.1148900e+02   6.3933720e+01
   4.1197110e+02   6.4544190e+01
   4.1245320e+02   7.0322020e+01
   4.1293540e+02   7.5728030e+01
   4.1341750e+02   7.1040530e+01
   4.1389960e+02   5.9845950e+01
   4.1438170e+02   5.2488710e+01
   4.1486380e+02   5.8626530e+01
   4.1534590e+02   6.9005250e+01
   4.1582810e+02   7.3935970e+01
   4.1631020e+02   7.2740170e+01
   4.1679230e+02   7.0152710e+01
   4.1727440e+02   6.9690370e+01
   4.1775650e+02   6.9440120e+01
   4.1823860e+02   6.6943600e+01
   4.1872080e+02   6.4882690e+01
   4.1920290e+02   5.7129460e+01
   4.1968500e+02   3.3588440e+01
   4.2016710e+02   2.0712890e+00
   4.2064920e+02   2.4115300e+01
   4.2113130e+02   1.3535280e+01
   4.2161350e+02   6.1835940e+00
   4.2209560e+02   2.1063290e+01
   4.2257770e+02   2.6205870e+01
   4.2305980e+02   3.0469060e+01
   4.2354200e+02   3.8118650e+01
   4.2402410e+02   4.5380430e+01
   4.2450620e+02   4.3240230e+01
   4.2498830e+02   2.4276920e+01
   4.2547040e+02   4.0062260e+00
   4.2595250e+02   1.3684450e+01
   4.2643470e+02   2.8806580e+01
   4.2691680e+02   4.0644710e+01
   4.2739890e+02   4.7782350e+01
   4.2788100e+02   5.3125370e+01
   4.2836310e+02   5.9893620e+01
   4.2884520e+02   6.8062010e+01
   4.2932740e+02   7.7777040e+01
   4.2980950e+02   8.9312380e+01
   4.3029160e+02   1.0238620e+02
   4.3077370e+02   1.1485690e+02
   4.3125580e+02   1.2629910e+02
   4.3173790e+02   1.3894640e+02
   4.3222010e+02   1.5374420e+02
   4.3270220e+02   1.7083510e+02
   4.3318430e+02   1.9329410e+02
   4.3366640e+02   2.2337480e+02
   4.3414850e+02   2.5479100e+02
   4.3463060e+02   2.7668700e+02
   4.3511280e+02   2.9001930e+02
   4.3559490e+02   3.0098990e+02
   4.3607700e+02   3.1279850e+02
   4.3655910e+02   3.2460000e+02
   4.3704120e+02   3.3504900e+02
   4.3752330e+02   3.4421660e+02
   4.3800550e+02   3.5086870e+02
   4.3848760e+02   3.5777260e+02
   4.3896970e+02   3.6081650e+02
   4.3945180e+02   3.5327810e+02
   4.3993390e+02   3.2207640e+02
   4.4041600e+02   2.8812290e+02
   4.4089820e+02   2.6718680e+02
   4.4138030e+02   2.5712070e+02
   4.4186240e+02   2.4259160e+02
   4.4234450e+02   2.0829790e+02
   4.4282660e+02   1.7239400e+02
   4.4330870e+02   1.4798240e+02
   4.4379090e+02   1.4347690e+02
   4.4427300e+02   1.4049240e+02
   4.4475510e+02   1.3850540e+02
   4.4523720e+02   1.3505990e+02
   4.4571930e+02   1.2499430e+02
   4.4620140e+02   9.6064450e+01
   4.4668360e+02   7.1827880e+01
   4.4716570e+02   5.9392270e+01
   4.4764780e+02   6.0792240e+01
   4.4812990e+02   6.3318120e+01
   4.4861200e+02   6.9843750e+01
   4.4909410e+02   7.4902340e+01
   4.4957630e+02   7.1921880e+01
   4.5005840e+02   5.6249150e+01
   4.5054050e+02   4.5042420e+01
   4.5102260e+02   4.1710210e+01
   4.5150470e+02   4.4747990e+01
   4.5198680e+02   4.8148440e+01
   4.5246900e+02   5.2109620e+01
   4.5295110e+02   5.5618040e+01
   4.5343320e+02   5.7495610e+01
   4.5391530e+02   5.7941590e+01
   4.5439740e+02   6.0601750e+01
   4.5487950e+02   6.6789920e+01
   4.5536170e+02   7.2087520e+01
   4.5584380e+02   6.7114810e+01
   4.5632590e+02   5.4386600e+01
   4.5680800e+02   4.6279050e+01
   4.5729010e+02   5.3162410e+01
   4.5777220e+02   6.6358760e+01
   4.5825440e+02   7.2489810e+01
   4.5873650e+02   7.1760070e+01
   4.5921860e+02   6.8388790e+01
   4.5970070e+02   6.3084780e+01
   4.6018280e+02   5.7793400e+01
   4.6066490e+02   5.5020510e+01
   4.6114710e+02   5.6127870e+01
   4.6162920e+02   5.8518800e+01
   4.6211130e+02   6.1474060e+01
   4.6259340e+02   6.4823240e+01
   4.6307550e+02   6.7866820e+01
   4.6355760e+02   7.0549500e+01
   4.6403980e+02   7.1227660e+01
   4.6452190e+02   6.8576600e+01
   4.6500400e+02   6.2278380e+01
   4.6548610e+02   5.8706850e+01
   4.6596820e+02   5.9307740e+01
   4.6645030e+02   6.2230220e+01
   4.6693250e+02   6.5817440e+01
   4.6741460e+02   7.3639890e+01
   4.6789670e+02   7.6734990e+01
   4.6837880e+02   7.1591610e+01
   4.6886090e+02   6.0037600e+01
   4.6934300e+02   5.4544070e+01
   4.6982520e+02   5.8090330e+01
   4.7030730e+02   6.1596190e+01
   4.7078940e+02   5.9265930e+01
   4.7127150e+02   5.0474910e+01
   4.7175360e+02   4.4494870e+01
   4.7223570e+02   4.1372130e+01
   4.7271790e+02   4.0267330e+01
   4.7320000e+02   4.0932310e+01
   4.7368210e+02   4.3706050e+01
   4.7416420e+02   4.8710020e+01
   4.7464630e+02   5.8065860e+01
   4.7512840e+02   6.9052310e+01
   4.7561060e+02   7.2709050e+01
   4.7609270e+02   6.9176210e+01
   4.7657480e+02   6.6910520e+01
   4.7705690e+02   7.6113530e+01
   4.7753900e+02   9.2346980e+01
   4.7802110e+02   1.0636670e+02
   4.7850330e+02   1.1342480e+02
   4.7898540e+02   1.1758780e+02
   4.7946750e+02   1.1716720e+02
   4.7994960e+02   1.1575270e+02
   4.8043170e+02   1.2276640e+02
   4.8091380e+02   1.5141560e+02
   4.8139600e+02   1.8252060e+02
   4.8187810e+02   2.0441350e+02
   4.8236020e+02   2.1571920e+02
   4.8284230e+02   2.2786570e+02
   4.8332440e+02   2.4102580e+02
   4.8380650e+02   2.5778740e+02
   4.8428870e+02   2.8023880e+02
   4.8477080e+02   3.1223440e+02
   4.8525290e+02   3.4462140e+02
   4.8573500e+02   3.7463920e+02
   4.8621710e+02   4.0407560e+02
   4.8669920e+02   4.4082970e+02
   4.8718140e+02   4.8840860e+02
   4.8766350e+02   5.3746720e+02
   4.8814560e+02   5.8429990e+02
   4.8862770e+02   6.2841640e+02
   4.8910980e+02   6.7035580e+02
   4.8959190e+02   7.0819930e+02
   4.9007410e+02   7.4803610e+02
   4.9055620e+02   8.0104000e+02
   4.9103830e+02   8.6805730e+02
   4.9152040e+02   9.3038100e+02
   4.9200260e+02   9.8291790e+02
   4.9248470e+02   1.0281880e+03
   4.9296680e+02   1.0761840e+03
   4.9344890e+02   1.1259430e+03
   4.9393100e+02   1.1653910e+03
   4.9441310e+02   1.1886570e+03
   4.9489530e+02   1.1947700e+03
   4.9537740e+02   1.1787910e+03
   4.9585950e+02   1.1370330e+03
   4.9634160e+02   1.0861580e+03
   4.9682370e+02   1.0413120e+03
   4.9730580e+02   9.9602090e+02
   4.9778800e+02   9.3832000e+02
   4.9827010e+02   8.5178670e+02
   4.9875220e+02   7.6222210e+02
   4.9923430e+02   6.8156120e+02
   4.9971640e+02   6.1030910e+02
   5.0019850e+02   5.4585060e+02
   5.0068070e+02   4.9056140e+02
   5.0116280e+02   4.4127830e+02
   5.0164490e+02   3.9600730e+02
   5.0212700e+02   3.5744060e+02
   5.0260910e+02   3.1882630e+02
   5.0309120e+02   2.7289950e+02
   5.0357340e+02   2.2917110e+02
   5.0405550e+02   2.0445250e+02
   5.0453760e+02   2.0897090e+02
   5.0501970e+02   2.1201140e+02
   5.0550180e+02   2.0621970e+02
   5.0598390e+02   1.9202710e+02
   5.0646610e+02   1.7361240e+02
   5.0694820e+02   1.4834200e+02
   5.0743030e+02   1.2670050e+02
   5.0791240e+02   1.1917720e+02
   5.0839450e+02   1.2470320e+02
   5.0887660e+02   1.2748500e+02
   5.0935880e+02   1.2454740e+02
   5.0984090e+02   1.2171580e+02
   5.1032300e+02   1.3008480e+02
   5.1080510e+02   1.4691170e+02
   5.1128720e+02   1.6068620e+02
   5.1176930e+02   1.6276960e+02
   5.1225150e+02   1.6047630e+02
   5.1273360e+02   1.6102360e+02
   5.1321570e+02   1.6464090e+02
   5.1369780e+02   1.7280410e+02
   5.1417990e+02   1.8944850e+02
   5.1466200e+02   2.0942060e+02
   5.1514420e+02   2.2792540e+02
   5.1562630e+02   2.4074710e+02
   5.1610840e+02   2.5755470e+02
   5.1659050e+02   2.8687870e+02
   5.1707260e+02   3.2194060e+02
   5.1755470e+02   3.4942430e+02
   5.1803690e+02   3.5843910e+02
   5.1851900e+02   3.6760170e+02
   5.1900110e+02   3.8158290e+02
   5.1948320e+02   4.0063100e+02
   5.1996530e+02   4.2298540e+02
   5.2044740e+02   4.5308030e+02
   5.2092960e+02   4.8038260e+02
   5.2141170e+02   4.9581610e+02
   5.2189380e+02   4.9590260e+02
   5.2237590e+02   5.0194350e+02
   5.2285800e+02   5.2011110e+02
   5.2334010e+02   5.4003560e+02
   5.2382230e+02   5.3906120e+02
   5.2430440e+02   5.1671030e+02
   5.2478650e+02   4.9074530e+02
   5.2526860e+02   4.7181940e+02
   5.2575070e+02   4.5532340e+02
   5.2623280e+02   4.2612410e+02
   5.2671500e+02   3.8479050e+02
   5.2719710e+02   3.4597060e+02
   5.2767920e+02   3.2205360e+02
   5.2816130e+02   3.0738620e+02
   5.2864340e+02   2.9385610e+02
   5.2912550e+02   2.8043760e+02
   5.2960770e+02   2.6773130e+02
   5.3008980e+02   2.5640390e+02
   5.3057190e+02   2.4512430e+02
   5.3105400e+02   2.3304890e+02
   5.3153610e+02   2.1547800e+02
   5.3201820e+02   2.0291780e+02
   5.3250040e+02   1.9969280e+02
   5.3298250e+02   2.0515440e+02
   5.3346460e+02   2.1076280e+02
   5.3394670e+02   2.1673020e+02
   5.3442880e+02   2.2273850e+02
   5.3491090e+02   2.2860380e+02
   5.3539310e+02   2.3378060e+02
   5.3587520e+02   2.3946950e+02
   5.3635730e+02   2.4448380e+02
   5.3683940e+02   2.5113510e+02
   5.3732150e+02   2.6322720e+02
   5.3780360e+02   2.8082140e+02
   5.3828580e+02   3.0318850e+02
   5.3876790e+02   3.3044090e+02
   5.3925000e+02   3.6240090e+02
   5.3973210e+02   3.9775590e+02
   5.4021420e+02   4.3651850e+02
   5.4069640e+02   4.8241220e+02
   5.4117850e+02   5.4248620e+02
   5.4166060e+02   6.1101070e+02
   5.4214270e+02   6.7413060e+02
   5.4262480e+02   7.2819480e+02
   5.4310690e+02   7.8550360e+02
   5.4358910e+02   8.5776780e+02
   5.4407120e+02   9.3979430e+02
   5.4455330e+02   1.0234330e+03
   5.4503540e+02   1.1004630e+03
   5.4551750e+02   1.1833880e+03
   5.4599960e+02   1.2804220e+03
   5.4648180e+02   1.3900580e+03
   5.4696390e+02   1.4977600e+03
   5.4744600e+02   1.5928240e+03
   5.4792810e+02   1.6915210e+03
   5.4841020e+02   1.8025280e+03
   5.4889230e+02   1.9285720e+03
   5.4937450e+02   2.0596330e+03
   5.4985660e+02   2.2034830e+03
   5.5033870e+02   2.3448220e+03
   5.5082080e+02   2.4714010e+03
   5.5130290e+02   2.5892000e+03
   5.5178500e+02   2.6687890e+03
   5.5226720e+02   2.7085460e+03
   5.5274930e+02   2.7046680e+03
   5.5323140e+02   2.6393260e+03
   5.5371350e+02   2.5127160e+03
   5.5419560e+02   2.3581880e+03
   5.5467770e+02   2.1852970e+03
   5.5515990e+02   1.9993190e+03
   5.5564200e+02   1.8114020e+03
   5.5612410e+02   1.6207860e+03
   5.5660620e+02   1.4384390e+03
   5.5708830e+02   1.2732030e+03
   5.5757040e+02   1.1235380e+03
   5.5805260e+02   9.8835800e+02
   5.5853470e+02   8.6653260e+02
   5.5901680e+02   7.5961900e+02
   5.5949890e+02   6.7604740e+02
   5.5998100e+02   6.0886130e+02
   5.6046310e+02   5.4520140e+02
   5.6094530e+02   4.8146690e+02
   5.6142740e+02   4.2099100e+02
   5.6190950e+02   3.6382710e+02
   5.6239160e+02   3.0918050e+02
   5.6287370e+02   2.6589070e+02
   5.6335580e+02   2.3858360e+02
   5.6383800e+02   2.1790050e+02
   5.6432010e+02   1.9854480e+02
   5.6480220e+02   1.8093830e+02
   5.6528430e+02   1.6344750e+02
   5.6576640e+02   1.4589700e+02
   5.6624850e+02   1.2855100e+02
   5.6673070e+02   1.0962510e+02
   5.6721280e+02   8.9651000e+01
   5.6769490e+02   7.6381470e+01
   5.6817700e+02   7.7542360e+01
   5.6865910e+02   8.3028500e+01
   5.6914120e+02   7.1018680e+01
   5.6962340e+02   4.4509950e+01
   5.7010550e+02   2.1848820e+01
   5.7058760e+02   1.9498350e+01
   5.7106970e+02   2.4609800e+01
   5.7155180e+02   2.3853640e+01
   5.7203390e+02   1.4383240e+01
   5.7251610e+02   6.7580570e+00
   5.7299820e+02   9.6952510e+00
   5.7348030e+02   1.5192810e+01
   5.7396240e+02   1.4979060e+01
   5.7444450e+02   9.6197500e-01
   5.7492660e+02   1.2686460e+01
   5.7540880e+02   1.6038210e+01
   5.7589090e+02   1.3547790e+01
   5.7637300e+02   1.1965880e+01
   5.7685510e+02   1.1574040e+01
   5.7733720e+02   1.1545040e+01
   5.7781930e+02   1.1462770e+01
   5.7830150e+02   1.1361450e+01
   5.7878360e+02   1.2060060e+01
   5.7926570e+02   1.3313780e+01
   5.7974780e+02   1.6522220e+01
   5.8022990e+02   2.5972170e+01
   5.8071200e+02   3.9309450e+01
   5.8119420e+02   4.3874080e+01
   5.8167630e+02   3.5934940e+01
   5.8215840e+02   2.5627080e+01
   5.8264050e+02   2.4685240e+01
   5.8312260e+02   3.0204040e+01
   5.8360470e+02   3.6198550e+01
   5.8408690e+02   4.2580990e+01
   5.8456900e+02   4.6494080e+01
   5.8505110e+02   4.4628660e+01
   5.8553320e+02   3.8110530e+01
   5.8601530e+02   3.2664060e+01
   5.8649740e+02   3.3567990e+01
   5.8697960e+02   3.3234990e+01
   5.8746170e+02   2.6081790e+01
   5.8794380e+02   6.8189700e+00
   5.8842590e+02   1.4393310e+00
   5.8890800e+02   9.6818850e+00
   5.8939010e+02   2.4350220e+01
   5.8987230e+02   2.7096920e+01
   5.9035440e+02   1.4482300e+01
   5.9083650e+02   2.9909670e+00
   5.9131860e+02   6.0831910e+00
   5.9180070e+02   1.2283330e+01
   5.9228280e+02   1.2055050e+01
   5.9276500e+02   5.8709110e+00
   5.9324710e+02   4.3075560e+00
   5.9372920e+02   1.7230220e+01
   5.9421130e+02   3.5721800e+01
   5.9469340e+02   4.2686340e+01
   5.9517550e+02   3.8858400e+01
   5.9565770e+02   3.2473330e+01
   5.9613980e+02   2.5384280e+01
   5.9662190e+02   2.0482480e+01
   5.9710400e+02   2.1182500e+01
   5.9758620e+02   2.9164790e+01
   5.9806830e+02   3.8349670e+01
   5.9855040e+02   4.8510990e+01
   5.9903250e+02   5.7761050e+01
   5.9951460e+02   6.3797670e+01
   5.9999680e+02   6.2998110e+01
   6.0047890e+02   6.3175540e+01
   6.0096100e+02   6.5985900e+01
   6.0144310e+02   7.0161320e+01
   6.0192520e+02   7.1025020e+01
   6.0240730e+02   6.6198060e+01
   6.0288950e+02   6.4631470e+01
   6.0337160e+02   7.0679380e+01
   6.0385370e+02   8.3413940e+01
   6.0433580e+02   9.6194150e+01
   6.0481790e+02   1.0900920e+02
   6.0530000e+02   1.2064610e+02
   6.0578220e+02   1.3005380e+02
   6.0626430e+02   1.3739180e+02
   6.0674640e+02   1.4327370e+02
   6.0722850e+02   1.4746730e+02
   6.0771060e+02   1.5133950e+02
   6.0819270e+02   1.5609720e+02
   6.0867490e+02   1.6124320e+02
   6.0915700e+02   1.6591780e+02
   6.0963910e+02   1.7022080e+02
   6.1012120e+02   1.7367650e+02
   6.1060330e+02   1.7253930e+02
   6.1108540e+02   1.6969160e+02
   6.1156760e+02   1.7576290e+02
   6.1204970e+02   2.0478990e+02
   6.1253180e+02   2.2920340e+02
   6.1301390e+02   2.3829310e+02
   6.1349600e+02   2.3078640e+02
   6.1397810e+02   2.3359020e+02
   6.1446030e+02   2.4968430e+02
   6.1494240e+02   2.6880490e+02
   6.1542450e+02   2.8073230e+02
   6.1590660e+02   2.8612130e+02
   6.1638870e+02   3.0155500e+02
   6.1687080e+02   3.3079620e+02
   6.1735300e+02   3.6227930e+02
   6.1783510e+02   3.8140980e+02
   6.1831720e+02   3.9084840e+02
   6.1879930e+02   3.9681570e+02
   6.1928140e+02   3.9774850e+02
   6.1976350e+02   4.0024660e+02
   6.2024570e+02   4.1009660e+02
   6.2072780e+02   4.2590370e+02
   6.2120990e+02   4.4359480e+02
   6.2169200e+02   4.6233730e+02
   6.2217410e+02   4.8194940e+02
   6.2265630e+02   5.0330360e+02
   6.2313840e+02   5.2685770e+02
   6.2362050e+02   5.4682890e+02
   6.2410260e+02   5.6055040e+02
   6.2458470e+02   5.7341800e+02
   6.2506680e+02   5.8742480e+02
   6.2554900e+02   6.0065060e+02
   6.2603110e+02   6.2518570e+02
   6.2651320e+02   6.6527230e+02
   6.2699530e+02   7.0823540e+02
   6.2747740e+02   7.3288260e+02
   6.2795950e+02   7.4231270e+02
   6.2844170e+02   7.6326970e+02
   6.2892380e+02   8.0853440e+02
   6.2940590e+02   8.5997670e+02
   6.2988800e+02   8.8950370e+02
   6.3037010e+02   9.0427550e+02
   6.3085220e+02   9.2622000e+02
   6.3133440e+02   9.7159050e+02
   6.3181650e+02   1.0234870e+03
   6.3229860e+02   1.0719350e+03
   6.3278070e+02   1.1161700e+03
   6.3326280e+02   1.1587720e+03
   6.3374490e+02   1.1943410e+03
   6.3422710e+02   1.2342360e+03
   6.3470920e+02   1.2855980e+03
   6.3519130e+02   1.3517740e+03
   6.3567340e+02   1.4185250e+03
   6.3615550e+02   1.4814180e+03
   6.3663760e+02   1.5494950e+03
   6.3711980e+02   1.6362750e+03
   6.3760190e+02   1.7420190e+03
   6.3808400e+02   1.8396150e+03
   6.3856610e+02   1.9200050e+03
   6.3904820e+02   1.9994490e+03
   6.3953030e+02   2.1037270e+03
   6.4001250e+02   2.2312590e+03
   6.4049460e+02   2.3700500e+03
   6.4097670e+02   2.5116220e+03
   6.4145880e+02   2.6640010e+03
   6.4194090e+02   2.8297060e+03
   6.4242300e+02   3.0113920e+03
   6.4290520e+02   3.2133910e+03
   6.4338730e+02   3.4403070e+03
   6.4386940e+02   3.6881540e+03
   6.4435150e+02   3.9571670e+03
   6.4483360e+02   4.2459210e+03
   6.4531570e+02   4.5575870e+03
   6.4579790e+02   4.8780950e+03
   6.4628000e+02   5.2333420e+03
   6.4676210e+02   5.6364370e+03
   6.4724420e+02   6.0933980e+03
   6.4772630e+02   6.5894850e+03
   6.4820840e+02   7.1334880e+03
   6.4869060e+02   7.7133870e+03
   6.4917270e+02   8.2952220e+03
   6.4965480e+02   8.8907820e+03
   6.5013690e+02   9.5384120e+03
   6.5061900e+02   1.0252460e+04
   6.5110110e+02   1.1019890e+04
   6.5158330e+02   1.1815470e+04
   6.5206540e+02   1.2640520e+04
   6.5254750e+02   1.3499220e+04
   6.5302960e+02   1.4388930e+04
   6.5351170e+02   1.5316890e+04
   6.5399380e+02   1.6288640e+04
   6.5447600e+02   1.7311210e+04
   6.5495810e+02   1.8356570e+04
   6.5544020e+02   1.9444330e+04
   6.5592230e+02   2.0533140e+04
   6.5640440e+02   2.1615540e+04
   6.5688650e+02   2.2718760e+04
   6.5736870e+02   2.3721000e+04
   6.5785080e+02   2.4652950e+04
   6.5833290e+02   2.5429710e+04
   6.5881500e+02   2.5983300e+04
   6.5929710e+02   2.6312810e+04
   6.5977920e+02   2.6382240e+04
   6.6026140e+02   2.6183560e+04
   6.6074350e+02   2.5727630e+04
   6.6122560e+02   2.4992550e+04
   6.6170770e+02   2.4008960e+04
   6.6218980e+02   2.2854300e+04
   6.6267190e+02   2.1484830e+04
   6.6315410e+02   2.0029470e+04
   6.6363620e+02   1.8531570e+04
   6.6411830e+02   1.7008000e+04
   6.6460040e+02   1.5545760e+04
   6.6508250e+02   1.4114900e+04
   6.6556460e+02   1.2787820e+04
   6.6604680e+02   1.1595530e+04
   6.6652890e+02   1.0541780e+04
   6.6701100e+02   9.5936680e+03
   6.6749310e+02   8.7683480e+03
   6.6797520e+02   8.0166940e+03
   6.6845730e+02   7.3170980e+03
   6.6893950e+02   6.6656500e+03
   6.6942160e+02   6.0875070e+03
   6.6990370e+02   5.5929890e+03
   6.7038580e+02   5.1475910e+03
   6.7086790e+02   4.7120880e+03
   6.7135000e+02   4.2976230e+03
   6.7183220e+02   3.9420660e+03
   6.7231430e+02   3.6640710e+03
   6.7279640e+02   3.4202710e+03
   6.7327850e+02   3.1828140e+03
   6.7376060e+02   2.9552660e+03
   6.7424270e+02   2.7459850e+03
   6.7472490e+02   2.5600180e+03
   6.7520700e+02   2.3868530e+03
   6.7568910e+02   2.2235540e+03
   6.7617120e+02   2.0719910e+03
   6.7665330e+02   1.9361430e+03
   6.7713540e+02   1.8214200e+03
   6.7761760e+02   1.7154030e+03
   6.7809970e+02   1.6158190e+03
   6.7858180e+02   1.5222360e+03
   6.7906390e+02   1.4345590e+03
   6.7954600e+02   1.3527750e+03
   6.8002810e+02   1.2775050e+03
   6.8051030e+02   1.2130110e+03
   6.8099240e+02   1.1548320e+03
   6.8147450e+02   1.0940180e+03
   6.8195660e+02   1.0295600e+03
   6.8243870e+02   9.6694120e+02
   6.8292080e+02   9.0360820e+02
   6.8340300e+02   8.4565690e+02
   6.8388510e+02   8.0107670e+02
   6.8436720e+02   7.8033730e+02
   6.8484930e+02   7.5357800e+02
   6.8533140e+02   7.0461660e+02
   6.8581350e+02   6.4960640e+02
   6.8629570e+02   6.0785300e+02
   6.8677780e+02   5.8614480e+02
   6.8725990e+02   5.6427920e+02
   6.8774200e+02   5.3869310e+02
   6.8822410e+02   5.1266300e+02
   6.8870620e+02   4.9660500e+02
   6.8918840e+02   4.9056370e+02
   6.8967050e+02   4.7675290e+02
   6.9015260e+02   4.4205790e+02
   6.9063470e+02   4.0072740e+02
   6.9111680e+02   3.7966350e+02
   6.9159890e+02   3.7621080e+02
   6.9208110e+02   3.7439320e+02
   6.9256320e+02   3.6539160e+02
   6.9304530e+02   3.5389620e+02
   6.9352740e+02   3.4089440e+02
   6.9400950e+02   3.2656180e+02
   6.9449160e+02   3.1753440e+02
   6.9497380e+02   3.2138530e+02
   6.9545590e+02   3.2600730e+02
   6.9593800e+02   3.2461960e+02
   6.9642010e+02   3.1504100e+02
   6.9690220e+02   3.0859530e+02
   6.9738430e+02   3.0590470e+02
   6.9786650e+02   3.0520650e+02
   6.9834860e+02   3.0435820e+02
   6.9883070e+02   3.0360300e+02
   6.9931280e+02   3.0699680e+02
   6.9979490e+02   3.1644980e+02
   7.0027700e+02   3.2475060e+02
   7.0075920e+02   3.2102970e+02
   7.0124130e+02   3.1040830e+02
   7.0172340e+02   3.0278980e+02
   7.0220550e+02   3.0455570e+02
   7.0268760e+02   3.0612550e+02
   7.0316970e+02   3.0387180e+02
   7.0365190e+02   2.9785390e+02
   7.0413400e+02   2.8803810e+02
   7.0461610e+02   2.7422890e+02
   7.0509820e+02   2.5676210e+02
   7.0558030e+02   2.3381770e+02
   7.0606240e+02   2.0700740e+02
   7.0654460e+02   1.8506680e+02
   7.0702670e+02   1.6907470e+02
   7.0750880e+02   1.5332930e+02
   7.0799090e+02   1.3389580e+02
   7.0847300e+02   1.1258390e+02
   7.0895510e+02   9.6473390e+01
   7.0943730e+02   8.5386350e+01
   7.0991940e+02   7.7570310e+01
   7.1040150e+02   7.6276250e+01
   7.1088360e+02   7.5141970e+01
   7.1136570e+02   6.5944090e+01
   7.1184780e+02   4.6878660e+01
   7.1233000e+02   3.0132450e+01
   7.1281210e+02   2.1655030e+01
   7.1329420e+02   1.6860840e+01
   7.1377630e+02   1.2516110e+01
   7.1425840e+02   6.9597170e+00
   7.1474050e+02   4.3304440e+00
   7.1522270e+02   4.2899170e+00
   7.1570480e+02   7.5865480e+00
   7.1618690e+02   1.8195920e+01
   7.1666900e+02   3.6697750e+01
   7.1715110e+02   4.4256960e+01
   7.1763320e+02   3.5046140e+01
   7.1811540e+02   1.9338130e+01
   7.1859750e+02   1.1634400e+01
   7.1907960e+02   1.0247190e+01
   7.1956170e+02   9.4631960e+00
   7.2004380e+02   7.9094850e+00
   7.2052590e+02   5.4230350e+00
   7.2100810e+02   2.8344700e-01
   7.2149020e+02   6.9725950e+00
   7.2197230e+02   9.3345950e+00
   7.2245440e+02   2.8409420e+00
   7.2293650e+02   4.8431400e+00
   7.2341860e+02   1.4138060e+01
   7.2390080e+02   2.3535460e+01
   7.2438290e+02   2.3727970e+01
   7.2486500e+02   1.2118650e+01
   7.2534710e+02   5.9265100e-01
   7.2582920e+02   5.3166500e+00
   7.2631130e+02   6.7862550e+00
   7.2679350e+02   8.4314580e+00
   7.2727560e+02   1.0164310e+01
   7.2775770e+02   1.1659480e+01
   7.2823980e+02   1.2178220e+01
   7.2872190e+02   1.2564580e+01
   7.2920400e+02   1.5271300e+01
   7.2968620e+02   2.0981810e+01
   7.3016830e+02   2.1567750e+01
   7.3065040e+02   5.4165040e+00
   7.3113250e+02   1.1219360e+01
   7.3161460e+02   1.5517210e+01
   7.3209670e+02   8.2153300e-01
   7.3257890e+02   7.2512820e+00
   7.3306100e+02   5.8526000e+00
   7.3354310e+02   2.0765990e+00
   7.3402520e+02   3.2595830e+00
   7.3450730e+02   9.2007450e+00
   7.3498940e+02   1.6361390e+01
   7.3547160e+02   2.5553960e+01
   7.3595370e+02   3.1700010e+01
   7.3643580e+02   2.5278320e+01
   7.3691790e+02   1.1805180e+01
   7.3740000e+02   2.0532230e+00
   7.3788210e+02   1.0136720e+00
   7.3836430e+02   2.5958300e-01
   7.3884640e+02   9.6174320e+00
   7.3932860e+02   2.1515620e+01
   7.3981070e+02   2.5882570e+01
   7.4029280e+02   1.2854800e+01
   7.4077490e+02   3.4300540e+00
   7.4125700e+02   1.7541500e+00
   7.4173910e+02   4.7545780e+00
   7.4222130e+02   3.4790040e+00
   7.4270340e+02   2.4424440e+00
   7.4318550e+02   7.4818730e+00
   7.4366760e+02   9.8065190e+00
   7.4414970e+02   1.0771550e+01
   7.4463180e+02   1.2280210e+01
   7.4511400e+02   1.3330690e+01
   7.4559610e+02   1.3650090e+01
   7.4607820e+02   1.1130860e+01
   7.4656030e+02   9.5078740e+00
   7.4704240e+02   1.4425960e+01
   7.4752450e+02   2.4141420e+01
   7.4800670e+02   2.6700380e+01
   7.4848880e+02   8.7360230e+00
   7.4897090e+02   6.4728390e+00
   7.4945300e+02   8.4638060e+00
   7.4993510e+02   3.7485350e+00
   7.5041720e+02   1.0244510e+01
   7.5089940e+02   9.4890140e+00
   7.5138150e+02   9.0971680e+00
   7.5186360e+02   1.6070500e+01
   7.5234570e+02   2.7596620e+01
   7.5282780e+02   3.4013120e+01
   7.5330990e+02   3.4914250e+01
   7.5379210e+02   3.3308170e+01
   7.5427420e+02   2.9030400e+01
   7.5475630e+02   2.4561040e+01
   7.5523840e+02   2.3318050e+01
   7.5572050e+02   2.7411130e+01
   7.5620260e+02   2.9716310e+01
   7.5668480e+02   2.5398740e+01
   7.5716690e+02   2.0020750e+01
   7.5764900e+02   1.8603940e+01
   7.5813110e+02   2.3417360e+01
   7.5861320e+02   2.6408690e+01
   7.5909530e+02   2.7338320e+01
   7.5957750e+02   2.6168030e+01
   7.6005960e+02   1.9997070e+01
   7.6054170e+02   1.0438540e+01
   7.6102380e+02   9.3806760e+00
   7.6150590e+02   2.1933470e+01
   7.6198800e+02   3.5856140e+01
   7.6247020e+02   3.8364200e+01
   7.6295230e+02   3.3510190e+01
   7.6343440e+02   2.7799500e+01
   7.6391650e+02   2.1860600e+01
   7.6439860e+02   1.7270200e+01
   7.6488070e+02   1.4352480e+01
   7.6536290e+02   1.3119750e+01
   7.6584500e+02   1.3493650e+01
   7.6632710e+02   1.6341430e+01
   7.6680920e+02   1.8763120e+01
   7.6729130e+02   2.0632020e+01
   7.6777340e+02   2.1286320e+01
   7.6825560e+02   1.7276370e+01
   7.6873770e+02   9.3312380e+00
   7.6921980e+02   5.0030520e+00
   7.6970190e+02   1.1496580e+01
   7.7018400e+02   1.9585940e+01
   7.7066610e+02   1.6350890e+01
   7.7114830e+02   5.2814330e+00
   7.7163040e+02   2.7096560e+00
   7.7211250e+02   2.7002000e-01
   7.7259460e+02   4.0845340e+00
   7.7307670e+02   4.9177250e+00
   7.7355880e+02   2.9239500e+00
   7.7404100e+02   6.1901900e-01
   7.7452310e+02   8.8240970e+00
   7.7500520e+02   1.1535030e+01
   7.7548730e+02   1.6811520e+00
   7.7596940e+02   1.7104680e+01
   7.7645150e+02   2.5829470e+01
   7.7693370e+02   2.4742250e+01
   7.7741580e+02   2.0772710e+01
   7.7789790e+02   1.6800840e+01
   7.7838000e+02   1.3490420e+01
   7.7886210e+02   1.1766850e+01
   7.7934420e+02   1.1466370e+01
   7.7982640e+02   1.1460630e+01
   7.8030850e+02   1.1864320e+01
   7.8079060e+02   1.2281130e+01
   7.8127270e+02   1.2390080e+01
   7.8175480e+02   1.2100770e+01
   7.8223690e+02   1.2209530e+01
   7.8271910e+02   1.2409850e+01
   7.8320120e+02   1.3656860e+01
   7.8368330e+02   1.7473140e+01
   7.8416540e+02   2.3317570e+01
   7.8464750e+02   2.6124080e+01
   7.8512960e+02   2.5697020e+01
   7.8561180e+02   2.3642520e+01
   7.8609390e+02   1.9416560e+01
   7.8657600e+02   1.5309450e+01
   7.8705810e+02   1.4740720e+01
   7.8754020e+02   1.8727420e+01
   7.8802230e+02   2.1569760e+01
   7.8850450e+02   2.1562930e+01
   7.8898660e+02   2.0021970e+01
   7.8946870e+02   1.8139340e+01
   7.8995080e+02   1.6011840e+01
   7.9043290e+02   1.2905640e+01
   7.9091500e+02   8.8999630e+00
   7.9139720e+02   4.8666380e+00
   7.9187930e+02   7.1173100e-01
   7.9236140e+02   3.4279170e+00
   7.9284350e+02   5.9264530e+00
   7.9332560e+02   6.6567990e+00
   7.9380770e+02   6.0803830e+00
   7.9428990e+02   2.8734130e+00
   7.9477200e+02   2.0051880e+00
   7.9525410e+02   7.0234380e+00
   7.9573620e+02   1.2518550e+01
   7.9621830e+02   1.5398740e+01
   7.9670040e+02   1.1462340e+01
   7.9718260e+02   5.8458860e+00
   7.9766470e+02   5.0570070e+00
   7.9814680e+02   1.3471500e+01
   7.9862890e+02   1.5229250e+01
   7.9911100e+02   6.7489620e+00
   7.9959310e+02   4.5044560e+00
   8.0007530e+02   6.9434810e+00
   8.0055740e+02   2.7227170e+00
   8.0103950e+02   1.3127440e+00
   8.0152160e+02   6.8562620e+00
   8.0200370e+02   1.0435300e+01
   8.0248580e+02   7.9168700e-01
   8.0296800e+02   1.6656070e+01
   8.0345010e+02   2.3452940e+01
   8.0393220e+02   3.7352290e+00
   8.0441430e+02   6.5431520e+00
   8.0489640e+02   1.5873410e+00
   8.0537850e+02   1.6781680e+01
   8.0586070e+02   2.1611020e+01
   8.0634280e+02   1.4486330e+01
   8.0682490e+02   7.2438350e+00
   8.0730700e+02   2.7257080e+00
   8.0778910e+02   2.5817900e-01
   8.0827120e+02   3.8027340e+00
   8.0875340e+02   8.3933720e+00
   8.0923550e+02   1.0335330e+01
   8.0971760e+02   6.7720340e+00
   8.1019970e+02   2.8717040e+00
   8.1068180e+02   2.6914670e+00
   8.1116390e+02   3.9044190e+00
   8.1164610e+02   2.2845460e+00
   8.1212820e+02   7.8089600e+00
   8.1261030e+02   1.2859620e+01
   8.1309240e+02   9.1481320e+00
   8.1357450e+02   1.4406130e+00
   8.1405660e+02   2.5573700e-01
   8.1453880e+02   5.4809570e+00
   8.1502090e+02   9.3854980e+00
   8.1550300e+02   9.4757080e+00
   8.1598510e+02   7.7285160e+00
   8.1646720e+02   5.9419560e+00
   8.1694930e+02   4.4251100e+00
   8.1743150e+02   3.8611450e+00
   8.1791360e+02   5.2410890e+00
   8.1839570e+02   6.7320560e+00
   8.1887780e+02   8.0205690e+00
   8.1935990e+02   9.1436770e+00
   8.1984200e+02   9.7192380e+00
   8.2032420e+02   9.6262210e+00
   8.2080630e+02   9.3213500e+00
   8.2128840e+02   8.9652100e+00
   8.2177050e+02   8.3713990e+00
   8.2225260e+02   5.2755740e+00
   8.2273470e+02   7.8564500e-01
   8.2321690e+02   1.8549800e+00
   8.2369900e+02   1.6559510e+01
   8.2418110e+02   3.1078250e+01
   8.2466320e+02   3.0366150e+01
   8.2514530e+02   1.9988530e+01
   8.2562740e+02   1.2123230e+01
   8.2610960e+02   1.1194270e+01
   8.2659170e+02   1.2171510e+01
   8.2707380e+02   1.4729000e+01
   8.2755590e+02   1.8642330e+01
   8.2803800e+02   2.2450680e+01
   8.2852010e+02   2.6242370e+01
   8.2900230e+02   2.7474060e+01
   8.2948440e+02   2.4392700e+01
   8.2996650e+02   2.0512570e+01
   8.3044860e+02   1.9331910e+01
   8.3093070e+02   2.1314700e+01
   8.3141280e+02   2.8187740e+01
   8.3189500e+02   4.5806640e+01
   8.3237710e+02   6.2922850e+01
   8.3285920e+02   7.5825200e+01
   8.3334130e+02   8.4877140e+01
   8.3382340e+02   8.8315060e+01
   8.3430550e+02   7.8917420e+01
   8.3478770e+02   7.4948670e+01
   8.3526980e+02   8.0072020e+01
   8.3575190e+02   9.2186710e+01
   8.3623400e+02   1.0701330e+02
   8.3671610e+02   1.2430830e+02
   8.3719820e+02   1.4370890e+02
   8.3768040e+02   1.6600020e+02
   8.3816250e+02   1.8868540e+02
   8.3864460e+02   2.0593730e+02
   8.3912670e+02   2.2168620e+02
   8.3960880e+02   2.4417540e+02
   8.4009090e+02   2.7843370e+02
   8.4057310e+02   3.1779900e+02
   8.4105520e+02   3.5992960e+02
   8.4153730e+02   4.0649590e+02
   8.4201940e+02   4.6218900e+02
   8.4250150e+02   5.2881560e+02
   8.4298360e+02   5.9617790e+02
   8.4346580e+02   6.6186770e+02
   8.4394790e+02   7.2733060e+02
   8.4443000e+02   7.8931510e+02
   8.4491210e+02   8.5227440e+02
   8.4539420e+02   9.2906150e+02
   8.4587630e+02   1.0322120e+03
   8.4635850e+02   1.1403670e+03
   8.4684060e+02   1.2373000e+03
   8.4732270e+02   1.3313550e+03
   8.4780480e+02   1.4401160e+03
   8.4828690e+02   1.5782880e+03
   8.4876900e+02   1.7077470e+03
   8.4925120e+02   1.8205030e+03
   8.4973330e+02   1.9240830e+03
   8.5021540e+02   2.0374880e+03
   8.5069750e+02   2.1583920e+03
   8.5117960e+02   2.2577890e+03
   8.5166170e+02   2.3295100e+03
   8.5214390e+02   2.3708890e+03
   8.5262600e+02   2.3852610e+03
   8.5310810e+02   2.3660930e+03
   8.5359020e+02   2.3029140e+03
   8.5407230e+02   2.1634310e+03
   8.5455440e+02   2.0147230e+03
   8.5503660e+02   1.8608790e+03
   8.5551870e+02   1.7080960e+03
   8.5600080e+02   1.5634240e+03
   8.5648290e+02   1.4256470e+03
   8.5696500e+02   1.2985760e+03
   8.5744710e+02   1.1851620e+03
   8.5792930e+02   1.0787040e+03
   8.5841140e+02   9.6466850e+02
   8.5889350e+02   8.5136040e+02
   8.5937560e+02   7.5848750e+02
   8.5985770e+02   6.9839310e+02
   8.6033980e+02   6.4475540e+02
   8.6082200e+02   5.8241490e+02
   8.6130410e+02   5.1903080e+02
   8.6178620e+02   4.6397500e+02
   8.6226830e+02   4.1396950e+02
   8.6275040e+02   3.8191440e+02
   8.6323250e+02   3.7564710e+02
   8.6371470e+02   3.7439160e+02
   8.6419680e+02   3.4885340e+02
   8.6467890e+02   3.0474490e+02
   8.6516100e+02   2.7091140e+02
   8.6564310e+02   2.5293210e+02
   8.6612520e+02   2.4180470e+02
   8.6660740e+02   2.3308590e+02
   8.6708950e+02   2.2557650e+02
   8.6757160e+02   2.1794120e+02
   8.6805370e+02   2.0956470e+02
   8.6853580e+02   2.0162730e+02
   8.6901790e+02   1.9326180e+02
   8.6950010e+02   1.8629020e+02
   8.6998220e+02   1.8335510e+02
   8.7046430e+02   1.8472730e+02
   8.7094640e+02   1.8041240e+02
   8.7142850e+02   1.6922050e+02
   8.7191060e+02   1.5856880e+02
   8.7239280e+02   1.5739400e+02
   8.7287490e+02   1.6002640e+02
   8.7335700e+02   1.5755920e+02
   8.7383910e+02   1.4795320e+02
   8.7432120e+02   1.4151460e+02
   8.7480330e+02   1.4826750e+02
   8.7528550e+02   1.5353270e+02
   8.7576760e+02   1.4551430e+02
   8.7624970e+02   1.2015650e+02
   8.7673180e+02   1.1783730e+02
   8.7721390e+02   1.4281290e+02
   8.7769600e+02   1.6962600e+02
   8.7817820e+02   1.7877030e+02
   8.7866030e+02   1.7634070e+02
   8.7914240e+02   1.7365040e+02
   8.7962450e+02   1.7073730e+02
   8.8010670e+02   1.6972010e+02
   8.8058880e+02   1.7477780e+02
   8.8107090e+02   1.8071700e+02
   8.8155300e+02   1.8362830e+02
   8.8203520e+02   1.8324190e+02
   8.8251730e+02   1.8572070e+02
   8.8299940e+02   1.9151310e+02
   8.8348150e+02   1.9834200e+02
   8.8396360e+02   2.0451860e+02
   8.8444570e+02   2.1128120e+02
   8.8492790e+02   2.2399820e+02
   8.8541000e+02   2.4169590e+02
   8.8589210e+02   2.5895470e+02
   8.8637420e+02   2.7531290e+02
   8.8685630e+02   2.8817720e+02
   8.8733840e+02   2.9192160e+02
   8.8782060e+02   2.8847970e+02
   8.8830270e+02   2.9137480e+02
   8.8878480e+02   3.0831270e+02
   8.8926690e+02   3.2263980e+02
   8.8974900e+02   3.2918990e+02
   8.9023110e+02   3.3116310e+02
   8.9071330e+02   3.3777000e+02
   8.9119540e+02   3.4848560e+02
   8.9167750e+02   3.5999290e+02
   8.9215960e+02   3.7297940e+02
   8.9264170e+02   3.8418160e+02
   8.9312380e+02   3.8578230e+02
   8.9360600e+02   3.8295080e+02
   8.9408810e+02   3.8701110e+02
   8.9457020e+02   4.1033580e+02
   8.9505230e+02   4.2921310e+02
   8.9553440e+02   4.3848720e+02
   8.9601650e+02   4.4260170e+02
   8.9649870e+02   4.4810600e+02
   8.9698080e+02   4.5485770e+02
   8.9746290e+02   4.6762720e+02
   8.9794500e+02   4.8879820e+02
   8.9842710e+02   5.1172440e+02
   8.9890920e+02   5.2702600e+02
   8.9939140e+02   5.3874800e+02
   8.9987350e+02   5.5324210e+02
   9.0035560e+02   5.7496110e+02
   9.0083770e+02   5.9452110e+02
   9.0131980e+02   6.0874820e+02
   9.0180190e+02   6.2054660e+02
   9.0228410e+02   6.3311280e+02
   9.0276620e+02   6.4777140e+02
   9.0324830e+02   6.5450340e+02
   9.0373040e+02   6.5126970e+02
   9.0421250e+02   6.4789600e+02
   9.0469460e+02   6.5843290e+02
   9.0517680e+02   6.7433920e+02
   9.0565890e+02   6.8044340e+02
   9.0614100e+02   6.7365760e+02
   9.0662310e+02   6.6719380e+02
   9.0710520e+02   6.6728040e+02
   9.0758730e+02   6.6941990e+02
   9.0806950e+02   6.7158830e+02
   9.0855160e+02   6.7421940e+02
   9.0903370e+02   6.7075310e+02
   9.0951580e+02   6.5983030e+02
   9.0999790e+02   6.4927050e+02
   9.1048000e+02   6.4661280e+02
   9.1096220e+02   6.4761340e+02
   9.1144430e+02   6.4495690e+02
   9.1192640e+02   6.3797270e+02
   9.1240850e+02   6.2324150e+02
   9.1289060e+02   5.9062490e+02
   9.1337270e+02   5.5773990e+02
   9.1385490e+02   5.3581020e+02
   9.1433700e+02   5.2249120e+02
   9.1481910e+02   5.0236820e+02
   9.1530120e+02   4.7313510e+02
   9.1578330e+02   4.4486550e+02
   9.1626540e+02   4.2227860e+02
   9.1674760e+02   4.0215030e+02
   9.1722970e+02   3.7541410e+02
   9.1771180e+02   3.4499890e+02
   9.1819390e+02   3.1976720e+02
   9.1867600e+02   3.0648610e+02
   9.1915810e+02   2.9645450e+02
   9.1964030e+02   2.8863440e+02
   9.2012240e+02   2.8059880e+02
   9.2060450e+02   2.6730680e+02
   9.2108660e+02   2.4583470e+02
   9.2156870e+02   2.2635080e+02
   9.2205080e+02   2.0974720e+02
   9.2253300e+02   1.9701610e+02
   9.2301510e+02   1.9368770e+02
   9.2349720e+02   1.9559050e+02
   9.2397930e+02   1.8969700e+02
   9.2446140e+02   1.7145980e+02
   9.2494350e+02   1.5095940e+02
   9.2542570e+02   1.2958970e+02
   9.2590780e+02   1.1162700e+02
   9.2638990e+02   1.0367220e+02
   9.2687200e+02   1.1494650e+02
   9.2735410e+02   1.0787380e+02
   9.2783620e+02   7.6480350e+01
   9.2831840e+02   4.2451780e+01
   9.2880050e+02   2.4445560e+01
   9.2928260e+02   1.9173220e+01
   9.2976470e+02   1.7164310e+01
   9.3024680e+02   1.7729980e+01
   9.3072890e+02   1.7369510e+01
   9.3121110e+02   1.2465700e+01
   9.3169320e+02   7.0539550e+00
   9.3217530e+02   4.5854490e+00
   9.3265740e+02   5.2365720e+00
   9.3313950e+02   1.8165280e+00
   9.3362160e+02   7.8474120e+00
   9.3410380e+02   1.5738530e+01
   9.3458590e+02   1.7255620e+01
   9.3506800e+02   1.5116700e+01
   9.3555010e+02   1.8317140e+01
   9.3603220e+02   2.5158570e+01
   9.3651430e+02   2.8575200e+01
   9.3699650e+02   2.0200440e+01
   9.3747860e+02   1.2213130e+01
   9.3796070e+02   1.1357790e+01
   9.3844280e+02   1.5957640e+01
   9.3892490e+02   2.1468020e+01
   9.3940700e+02   2.8760500e+01
   9.3988920e+02   3.4081790e+01
   9.4037130e+02   3.6370120e+01
   9.4085340e+02   3.7386720e+01
   9.4133550e+02   4.0846680e+01
   9.4181760e+02   4.5451290e+01
   9.4229970e+02   4.6872190e+01
   9.4278190e+02   4.3101560e+01
   9.4326400e+02   3.9197880e+01
   9.4374610e+02   4.0253300e+01
   9.4422820e+02   4.1299930e+01
   9.4471030e+02   3.6782840e+01
   9.4519240e+02   2.3764530e+01
   9.4567460e+02   1.4118410e+01
   9.4615670e+02   8.1396480e+00
   9.4663880e+02   4.8937990e+00
   9.4712090e+02   5.2729490e+00
   9.4760300e+02   7.4670410e+00
   9.4808510e+02   5.8050540e+00
   9.4856730e+02   2.8955100e-01
   9.4904940e+02   3.5120850e+00
   9.4953150e+02   9.4397000e-01
   9.5001360e+02   5.0816650e+00
   9.5049570e+02   4.4305420e+00
   9.5097780e+02   9.1003400e-01
   9.5146000e+02   1.1175780e+01
   9.5194210e+02   2.8137940e+01
   9.5242420e+02   4.2492550e+01
   9.5290630e+02   4.8408690e+01
   9.5338840e+02   5.1484620e+01
   9.5387050e+02   6.6203490e+01
   9.5435270e+02   8.7683110e+01
   9.5483480e+02   1.0216910e+02
   9.5531690e+02   9.4352910e+01
   9.5579900e+02   8.9046140e+01
   9.5628110e+02   9.7085940e+01
   9.5676320e+02   1.1212120e+02
   9.5724540e+02   1.2416220e+02
   9.5772750e+02   1.3216690e+02
   9.5820960e+02   1.4371350e+02
   9.5869170e+02   1.6067410e+02
   9.5917380e+02   1.7790770e+02
   9.5965590e+02   1.8955790e+02
   9.6013810e+02   1.9715420e+02
   9.6062020e+02   2.0101210e+02
   9.6110230e+02   1.9907560e+02
   9.6158440e+02   2.0578800e+02
   9.6206650e+02   2.3975280e+02
   9.6254860e+02   2.7185050e+02
   9.6303080e+02   2.8207620e+02
   9.6351290e+02   2.6905150e+02
   9.6399500e+02   2.7252990e+02
   9.6447710e+02   2.9414140e+02
   9.6495920e+02   3.1400090e+02
   9.6544130e+02   3.1757040e+02
   9.6592350e+02   3.1329380e+02
   9.6640560e+02   3.0996780e+02
   9.6688770e+02   3.0812480e+02
   9.6736980e+02   3.0881930e+02
   9.6785190e+02   3.1667990e+02
   9.6833400e+02   3.2174020e+02
   9.6881620e+02   3.2030530e+02
   9.6929830e+02   3.1550710e+02
   9.6978040e+02   3.1525990e+02
   9.7026250e+02   3.1939380e+02
   9.7074460e+02   3.2277370e+02
   9.7122670e+02   3.2272670e+02
   9.7170890e+02   3.2510990e+02
   9.7219100e+02   3.4023270e+02
   9.7267310e+02   3.5969300e+02
   9.7315520e+02   3.7228270e+02
   9.7363730e+02   3.7220830e+02
   9.7411940e+02   3.7083690e+02
   9.7460160e+02   3.6284690e+02
   9.7508370e+02   3.6264000e+02
   9.7556580e+02   3.8911150e+02
   9.7604790e+02   4.3659520e+02
   9.7653000e+02   4.6692990e+02
   9.7701210e+02   4.7872030e+02
   9.7749430e+02   4.8721450e+02
   9.7797640e+02   5.0122180e+02
   9.7845850e+02   5.1777920e+02
   9.7894060e+02   5.3464170e+02
   9.7942270e+02   5.5187050e+02
   9.7990480e+02   5.7060050e+02
   9.8038700e+02   5.9065090e+02
   9.8086910e+02   6.1247510e+02
   9.8135120e+02   6.3516810e+02
   9.8183330e+02   6.6059360e+02
   9.8231540e+02   6.9577530e+02
   9.8279750e+02   7.3787710e+02
   9.8327970e+02   7.7637380e+02
   9.8376180e+02   8.0261500e+02
   9.8424390e+02   8.3221070e+02
   9.8472600e+02   8.7829470e+02
   9.8520810e+02   9.2906740e+02
   9.8569020e+02   9.6633350e+02
   9.8617240e+02   9.8007620e+02
   9.8665450e+02   1.0207930e+03
   9.8713660e+02   1.0949680e+03
   9.8761870e+02   1.1771000e+03
   9.8810080e+02   1.2385670e+03
   9.8858290e+02   1.2916200e+03
   9.8906510e+02   1.3565220e+03
   9.8954720e+02   1.4352140e+03
   9.9002930e+02   1.5189910e+03
   9.9051140e+02   1.6074620e+03
   9.9099350e+02   1.6972880e+03
   9.9147560e+02   1.7815430e+03
   9.9195780e+02   1.8648130e+03
   9.9243990e+02   1.9772580e+03
   9.9292200e+02   2.1192540e+03
   9.9340410e+02   2.2680850e+03
   9.9388620e+02   2.4074690e+03
   9.9436830e+02   2.5543970e+03
   9.9485050e+02   2.7245750e+03
   9.9533260e+02   2.9189370e+03
   9.9581470e+02   3.1359010e+03
   9.9629680e+02   3.3717700e+03
   9.9677890e+02   3.6397310e+03
   9.9726100e+02   3.9360850e+03
   9.9774320e+02   4.2653100e+03
   9.9822530e+02   4.6268540e+03
   9.9870740e+02   5.0201990e+03
   9.9918950e+02   5.4752590e+03
   9.9967160e+02   5.9968810e+03
   1.0001540e+03   6.5806100e+03
   1.0006360e+03   7.2015220e+03
   1.0011180e+03   7.9070910e+03
   1.0016000e+03   8.7439440e+03
   1.0020820e+03   9.7178830e+03
   1.0025640e+03   1.0786360e+04
   1.0030460e+03   1.1951590e+04
   1.0035290e+03   1.3232400e+04
   1.0040110e+03   1.4646900e+04
   1.0044930e+03   1.6187440e+04
   1.0049750e+03   1.7897680e+04
   1.0054570e+03   1.9741050e+04
   1.0059390e+03   2.1666630e+04
   1.0064210e+03   2.3640790e+04
   1.0069030e+03   2.5726900e+04
   1.0073850e+03   2.7985540e+04
   1.0078680e+03   3.0371830e+04
   1.0083500e+03   3.2853690e+04
   1.0088320e+03   3.5461390e+04
   1.0093140e+03   3.8115420e+04
   1.0097960e+03   4.0795830e+04
   1.0102780e+03   4.3385300e+04
   1.0107600e+03   4.5917530e+04
   1.0112420e+03   4.8146290e+04
   1.0117250e+03   4.9934430e+04
   1.0122070e+03   5.1272210e+04
   1.0126890e+03   5.1603810e+04
   1.0131710e+03   5.0783860e+04
   1.0136530e+03   4.9091840e+04
   1.0141350e+03   4.6455430e+04
   1.0146170e+03   4.3073310e+04
   1.0150990e+03   3.9488280e+04
   1.0155810e+03   3.5747270e+04
   1.0160640e+03   3.2097010e+04
   1.0165460e+03   2.8526700e+04
   1.0170280e+03   2.5240690e+04
   1.0175100e+03   2.2373080e+04
   1.0179920e+03   1.9878740e+04
   1.0184740e+03   1.7674610e+04
   1.0189560e+03   1.5753640e+04
   1.0194380e+03   1.4100830e+04
   1.0199210e+03   1.2731970e+04
   1.0204030e+03   1.1567450e+04
   1.0208850e+03   1.0571180e+04
   1.0213670e+03   9.7174560e+03
   1.0218490e+03   8.9805050e+03
   1.0223310e+03   8.3563090e+03
   1.0228130e+03   7.8073600e+03
   1.0232950e+03   7.3363410e+03
   1.0237780e+03   6.9218140e+03
   1.0242600e+03   6.5587800e+03
   1.0247420e+03   6.2428420e+03
   1.0252240e+03   5.9727800e+03
   1.0257060e+03   5.7467180e+03
   1.0261880e+03   5.5526520e+03
   1.0266700e+03   5.3932350e+03
   1.0271520e+03   5.2516120e+03
   1.0276340e+03   5.1214740e+03
   1.0281170e+03   4.9951330e+03
   1.0285990e+03   4.8565090e+03
   1.0290810e+03   4.6792740e+03
   1.0295630e+03   4.5385600e+03
   1.0300450e+03   4.4496870e+03
   1.0305270e+03   4.3643640e+03
   1.0310090e+03   4.2354820e+03
   1.0314910e+03   4.0761340e+03
   1.0319740e+03   3.9345490e+03
   1.0324560e+03   3.8090530e+03
   1.0329380e+03   3.6707580e+03
   1.0334200e+03   3.4857520e+03
   1.0339020e+03   3.3052640e+03
   1.0343840e+03   3.1644880e+03
   1.0348660e+03   3.0461610e+03
   1.0353480e+03   2.8919080e+03
   1.0358300e+03   2.7004600e+03
   1.0363130e+03   2.5321240e+03
   1.0367950e+03   2.4102920e+03
   1.0372770e+03   2.3028270e+03
   1.0377590e+03   2.1725180e+03
   1.0382410e+03   2.0350810e+03
   1.0387230e+03   1.9136540e+03
   1.0392050e+03   1.8175950e+03
   1.0396870e+03   1.7266310e+03
   1.0401690e+03   1.6408710e+03
   1.0406520e+03   1.5557660e+03
   1.0411340e+03   1.4636310e+03
   1.0416160e+03   1.3686730e+03
   1.0420980e+03   1.2889000e+03
   1.0425800e+03   1.2231040e+03
   1.0430620e+03   1.1639240e+03
   1.0435440e+03   1.1115600e+03
   1.0440260e+03   1.0606660e+03
   1.0445090e+03   1.0082640e+03
   1.0449910e+03   9.5579790e+02
   1.0454730e+03   9.0558410e+02
   1.0459550e+03   8.5763810e+02
   1.0464370e+03   8.1614970e+02
   1.0469190e+03   7.8277860e+02
   1.0474010e+03   7.5206250e+02
   1.0478830e+03   7.2017190e+02
   1.0483650e+03   6.8683150e+02
   1.0488480e+03   6.4955370e+02
   1.0493300e+03   6.0618070e+02
   1.0498120e+03   5.7453800e+02
   1.0502940e+03   5.6736520e+02
   1.0507760e+03   5.5226120e+02
   1.0512580e+03   5.0864310e+02
   1.0517400e+03   4.4975260e+02
   1.0522220e+03   4.2568510e+02
   1.0527040e+03   4.2816810e+02
   1.0531870e+03   4.2277540e+02
   1.0536690e+03   3.8504570e+02
   1.0541510e+03   3.4732950e+02
   1.0546330e+03   3.2542000e+02
   1.0551150e+03   3.1183130e+02
   1.0555970e+03   2.9551790e+02
   1.0560790e+03   2.7423780e+02
   1.0565610e+03   2.6614030e+02
   1.0570440e+03   2.7407980e+02
   1.0575260e+03   2.7925540e+02
   1.0580080e+03   2.6225090e+02
   1.0584900e+03   2.3505570e+02
   1.0589720e+03   2.0787650e+02
   1.0594540e+03   1.8208450e+02
   1.0599360e+03   1.6323610e+02
   1.0604180e+03   1.5530710e+02
   1.0609010e+03   1.4864900e+02
   1.0613830e+03   1.4170620e+02
   1.0618650e+03   1.3389640e+02
   1.0623470e+03   1.2161120e+02
   1.0628290e+03   1.0775550e+02
   1.0633110e+03   1.0272670e+02
   1.0637930e+03   1.1317020e+02
   1.0642750e+03   1.1981860e+02
   1.0647570e+03   1.0856870e+02
   1.0652400e+03   9.3375120e+01
   1.0657220e+03   8.4882080e+01
   1.0662040e+03   8.3484740e+01
   1.0666860e+03   8.2630370e+01
   1.0671680e+03   8.2464970e+01
   1.0676500e+03   7.7804690e+01
   1.0681320e+03   5.6336790e+01
   1.0686140e+03   3.6223020e+01
   1.0690960e+03   4.0768680e+01
   1.0695790e+03   6.0167360e+01
   1.0700610e+03   6.8313230e+01
   1.0705430e+03   5.4214970e+01
   1.0710250e+03   4.5163450e+01
   1.0715070e+03   4.5313480e+01
   1.0719890e+03   4.6766480e+01
   1.0724710e+03   3.7419560e+01
   1.0729530e+03   2.2817630e+01
   1.0734360e+03   1.5689700e+01
   1.0739180e+03   1.7484860e+01
   1.0744000e+03   1.8958370e+01
   1.0748820e+03   1.6690430e+01
   1.0753640e+03   1.2360600e+01
   1.0758460e+03   5.4755860e+00
   1.0763280e+03   2.4370120e+00
   1.0768100e+03   1.7257080e+00
   1.0772920e+03   6.5477290e+00
   1.0777750e+03   8.7038570e+00
   1.0782570e+03   2.5849610e+00
   1.0787390e+03   1.5274780e+01
   1.0792210e+03   2.1598270e+01
   1.0797030e+03   2.2474240e+01
   1.0801850e+03   1.8756350e+01
   1.0806670e+03   1.0245240e+01
   1.0811490e+03   4.2906490e+00
   1.0816310e+03   4.9658200e-01
   1.0821140e+03   1.6903080e+00
   1.0825960e+03   2.5068360e+00
   1.0830780e+03   2.9443400e-01
   1.0835600e+03   9.7659910e+00
   1.0840420e+03   2.3903320e+01
   1.0845240e+03   3.0680660e+01
   1.0850060e+03   1.6075320e+01
   1.0854880e+03   8.7154540e+00
   1.0859710e+03   1.5670530e+01
   1.0864530e+03   2.6209470e+01
   1.0869350e+03   2.4570070e+01
   1.0874170e+03   1.3654660e+01
   1.0878990e+03   4.1342770e+00
   1.0883810e+03   2.0949710e+00
   1.0888630e+03   3.5704350e+00
   1.0893450e+03   3.8634030e+00
   1.0898280e+03   1.2026000e+01
   1.0903100e+03   1.5950200e+01
   1.0907920e+03   1.7028200e+01
   1.0912740e+03   2.3492310e+01
   1.0917560e+03   3.5679570e+01
   1.0922380e+03   4.0687010e+01
   1.0927200e+03   3.2156740e+01
   1.0932020e+03   1.8674070e+01
   1.0936840e+03   6.1220700e+00
   1.0941670e+03   3.9279790e+00
   1.0946490e+03   9.9260250e+00
   1.0951310e+03   1.0626590e+01
   1.0956130e+03   1.1392820e+01
   1.0960950e+03   1.1513670e+01
   1.0965770e+03   1.2013790e+01
   1.0970590e+03   1.5952760e+01
   1.0975410e+03   2.0919190e+01
   1.0980240e+03   1.8274410e+01
   1.0985060e+03   9.4859620e+00
   1.0989880e+03   4.3723140e+00
   1.0994700e+03   1.3149540e+01
   1.0999520e+03   1.6671690e+01
   1.1004340e+03   1.0068180e+01
   1.1009160e+03   1.8084700e-01
   1.1013980e+03   6.4552000e+00
   1.1018800e+03   9.4575200e+00
   1.1023630e+03   3.6648560e+00
   1.1028450e+03   1.1095890e+01
   1.1033270e+03   2.0740170e+01
   1.1038090e+03   9.0887450e+00
   1.1042910e+03   2.0269780e+00
   1.1047730e+03   2.5381470e+00
   1.1052550e+03   1.6570190e+01
   1.1057370e+03   1.8248110e+01
   1.1062190e+03   7.4290160e+00
   1.1067020e+03   1.0993650e+00
   1.1071840e+03   3.6617430e+00
   1.1076660e+03   2.2193600e+00
   1.1081480e+03   3.4131470e+00
   1.1086300e+03   1.0394290e+01
   1.1091120e+03   1.5808840e+01
   1.1095940e+03   1.9031980e+01
   1.1100760e+03   2.2889340e+01
   1.1105590e+03   2.8207210e+01
   1.1110410e+03   3.0738220e+01
   1.1115230e+03   2.6478090e+01
   1.1120050e+03   2.0093630e+01
   1.1124870e+03   1.8815610e+01
   1.1129690e+03   2.1144470e+01
   1.1134510e+03   2.4213010e+01
   1.1139330e+03   3.0930300e+01
   1.1144160e+03   3.2185360e+01
   1.1148980e+03   2.5119450e+01
   1.1153800e+03   1.6671080e+01
   1.1158620e+03   1.1862370e+01
   1.1163440e+03   1.1035890e+01
   1.1168260e+03   1.9728580e+01
   1.1173080e+03   3.5717290e+01
   1.1177900e+03   4.3121640e+01
   1.1182720e+03   2.1683650e+01
   1.1187550e+03   5.2959590e+00
   1.1192370e+03   8.5063480e+00
   1.1197190e+03   2.1440250e+01
   1.1202010e+03   2.7063840e+01
   1.1206830e+03   2.5958860e+01
   1.1211650e+03   2.4297970e+01
   1.1216470e+03   2.2900270e+01
   1.1221290e+03   2.2208190e+01
   1.1226110e+03   2.3380620e+01
   1.1230940e+03   2.4695430e+01
   1.1235760e+03   2.5585820e+01
   1.1240580e+03   2.5704650e+01
   1.1245400e+03   2.0699520e+01
   1.1250220e+03   9.6740720e+00
   1.1255040e+03   4.5637210e+00
   1.1259860e+03   1.1142760e+01
   1.1264680e+03   2.0652530e+01
   1.1269510e+03   2.4528990e+01
   1.1274330e+03   2.4878850e+01
   1.1279150e+03   2.3979980e+01
   1.1283970e+03   2.1649170e+01
   1.1288790e+03   1.9778990e+01
   1.1293610e+03   1.8141780e+01
   1.1298430e+03   1.7835080e+01
   1.1303250e+03   1.9640260e+01
   1.1308070e+03   2.3029360e+01
   1.1312900e+03   3.0121640e+01
   1.1317720e+03   3.7773560e+01
   1.1322540e+03   3.8323060e+01
   1.1327360e+03   1.9317690e+01
   1.1332180e+03   8.4126590e+00
   1.1337000e+03   1.0290950e+01
   1.1341820e+03   1.5898250e+01
   1.1346640e+03   1.6090270e+01
   1.1351460e+03   1.3047490e+01
   1.1356290e+03   1.5126650e+01
   1.1361110e+03   2.1451780e+01
   1.1365930e+03   2.3531620e+01
   1.1370750e+03   9.2909550e+00
   1.1375570e+03   1.2727050e+00
   1.1380390e+03   1.0759090e+01
   1.1385210e+03   2.5997990e+01
   1.1390030e+03   2.2839110e+01
   1.1394860e+03   4.9571530e+00
   1.1399680e+03   2.5341190e+00
   1.1404500e+03   4.6175540e+00
   1.1409320e+03   1.3613400e+01
   1.1414140e+03   1.7949220e+01
   1.1418960e+03   1.8747380e+01
   1.1423780e+03   1.6281190e+01
   1.1428600e+03   1.2044010e+01
   1.1433430e+03   8.3082280e+00
   1.1438250e+03   4.6053470e+00
   1.1443070e+03   2.9797400e-01
   1.1447890e+03   5.3194580e+00
   1.1452710e+03   7.5750120e+00
   1.1457530e+03   1.8805540e+00
   1.1462350e+03   1.3505250e+01
   1.1467170e+03   1.6494630e+01
   1.1471990e+03   9.6160280e+00
   1.1476820e+03   5.4803470e+00
   1.1481640e+03   4.2199100e+00
   1.1486460e+03   5.6419680e+00
   1.1491280e+03   1.2332520e+01
   1.1496100e+03   1.7381590e+01
   1.1500920e+03   1.0379270e+01
   1.1505740e+03   1.9725950e+00
   1.1510560e+03   9.0968630e+00
   1.1515380e+03   6.9332280e+00
   1.1520210e+03   5.8054810e+00
   1.1525030e+03   6.7421260e+00
   1.1529850e+03   6.0187380e+00
   1.1534670e+03   3.5744630e+00
   1.1539490e+03   1.4134520e+01
   1.1544310e+03   8.3284300e+00
   1.1549130e+03   7.9672240e+00
   1.1553950e+03   1.5457030e+01
   1.1558780e+03   1.0733030e+00
   1.1563600e+03   1.3268860e+01
   1.1568420e+03   1.8212770e+01
   1.1573240e+03   1.9383360e+01
   1.1578060e+03   1.9613040e+01
   1.1582880e+03   1.9505550e+01
   1.1587700e+03   2.0682500e+01
   1.1592520e+03   2.2888850e+01
   1.1597340e+03   2.4260860e+01
   1.1602170e+03   2.3966610e+01
   1.1606990e+03   2.3675110e+01
   1.1611810e+03   2.3505190e+01
   1.1616630e+03   2.3401730e+01
   1.1621450e+03   2.2831540e+01
   1.1626270e+03   2.2407230e+01
   1.1631090e+03   2.3687440e+01
   1.1635910e+03   2.7253170e+01
   1.1640730e+03   2.8181030e+01
   1.1645560e+03   2.0234680e+01
   1.1650380e+03   1.2981690e+01
   1.1655200e+03   1.0689640e+01
   1.1660020e+03   1.2582400e+01
   1.1664840e+03   1.6201660e+01
   1.1669660e+03   2.0924500e+01
   1.1674480e+03   2.4705750e+01
   1.1679300e+03   2.7343810e+01
   1.1684130e+03   2.8280270e+01
   1.1688950e+03   2.2170230e+01
   1.1693770e+03   1.9135990e+01
   1.1698590e+03   2.8763920e+01
   1.1703410e+03   4.9110600e+01
   1.1708230e+03   5.3834230e+01
   1.1713050e+03   4.4199280e+01
   1.1717870e+03   3.5671020e+01
   1.1722700e+03   3.6211730e+01
   1.1727520e+03   3.7857300e+01
   1.1732340e+03   3.3622740e+01
   1.1737160e+03   2.9067080e+01
   1.1741980e+03   3.1121150e+01
   1.1746800e+03   4.1255250e+01
   1.1751620e+03   4.4273250e+01
   1.1756440e+03   4.0152950e+01
   1.1761260e+03   3.6140620e+01
   1.1766090e+03   3.7113160e+01
   1.1770910e+03   3.9695800e+01
   1.1775730e+03   4.1835820e+01
   1.1780550e+03   4.3421630e+01
   1.1785370e+03   4.3924680e+01
   1.1790190e+03   4.2388060e+01
   1.1795010e+03   4.6202820e+01
   1.1799830e+03   5.6325620e+01
   1.1804650e+03   6.4841490e+01
   1.1809480e+03   6.3423030e+01
   1.1814300e+03   5.9235230e+01
   1.1819120e+03   5.7164550e+01
   1.1823940e+03   5.7978760e+01
   1.1828760e+03   6.4054440e+01
   1.1833580e+03   7.8461430e+01
   1.1838400e+03   8.3164790e+01
   1.1843220e+03   7.4204410e+01
   1.1848050e+03   6.3858400e+01
   1.1852870e+03   6.6811100e+01
   1.1857690e+03   7.3446290e+01
   1.1862510e+03   7.3020390e+01
   1.1867330e+03   6.5629640e+01
   1.1872150e+03   5.9962040e+01
   1.1876970e+03   5.6228640e+01
   1.1881790e+03   5.4711060e+01
   1.1886610e+03   5.5489930e+01
   1.1891440e+03   5.8380980e+01
   1.1896260e+03   6.6491640e+01
   1.1901080e+03   7.4581730e+01
   1.1905900e+03   7.4187810e+01
   1.1910720e+03   6.3409610e+01
   1.1915540e+03   6.0167970e+01
   1.1920360e+03   6.7583800e+01
   1.1925180e+03   7.5422000e+01
   1.1930000e+03   8.2103820e+01
   1.1934830e+03   8.3847530e+01
   1.1939650e+03   6.7775390e+01
   1.1944470e+03   4.6237370e+01
   1.1949290e+03   3.8423280e+01
   1.1954110e+03   5.2115110e+01
   1.1958930e+03   6.0658260e+01
   1.1963750e+03   6.1184140e+01
   1.1968570e+03   6.0435120e+01
   1.1973400e+03   6.1354920e+01
   1.1978220e+03   6.2055910e+01
   1.1983040e+03   5.8197510e+01
   1.1987860e+03   5.2893010e+01
   1.1992680e+03   5.1704830e+01
   1.1997500e+03   5.8268490e+01
   1.2002320e+03   6.3319210e+01
   1.2007140e+03   6.6616640e+01
   1.2011970e+03   6.7700990e+01
   1.2016790e+03   6.5233580e+01
   1.2021610e+03   6.1157650e+01
   1.2026430e+03   5.7417180e+01
   1.2031250e+03   5.5423400e+01
   1.2036070e+03   5.8565190e+01
   1.2040890e+03   7.4820500e+01
   1.2045710e+03   8.3725590e+01
   1.2050530e+03   8.3290590e+01
   1.2055360e+03   7.8575870e+01
   1.2060180e+03   7.0946780e+01
   1.2065000e+03   6.3381710e+01
   1.2069820e+03   6.5089970e+01
   1.2074640e+03   7.2194700e+01
   1.2079460e+03   7.2455690e+01
   1.2084280e+03   5.0715090e+01
   1.2089100e+03   3.9802250e+01
   1.2093920e+03   4.5091430e+01
   1.2098750e+03   5.4813050e+01
   1.2103570e+03   5.7663760e+01
   1.2108390e+03   5.6926450e+01
   1.2113210e+03   6.0230590e+01
   1.2118030e+03   6.6353210e+01
   1.2122850e+03   6.8936040e+01
   1.2127670e+03   6.1986330e+01
   1.2132490e+03   5.7123170e+01
   1.2137320e+03   5.8550960e+01
   1.2142140e+03   5.9759770e+01
   1.2146960e+03   5.0832400e+01
   1.2151780e+03   3.7562810e+01
   1.2156600e+03   3.0014650e+01
   1.2161420e+03   2.8716250e+01
   1.2166240e+03   3.1691710e+01
   1.2171060e+03   4.2830810e+01
   1.2175890e+03   5.0569820e+01
   1.2180710e+03   5.2693050e+01
   1.2185530e+03   5.1158080e+01
   1.2190350e+03   4.6143550e+01
   1.2195170e+03   4.0399840e+01
   1.2199990e+03   3.9175900e+01
   1.2204810e+03   4.2836980e+01
   1.2209630e+03   4.6724240e+01
   1.2214450e+03   5.2167720e+01
   1.2219270e+03   5.3138430e+01
   1.2224100e+03   4.7330320e+01
   1.2228920e+03   3.7684390e+01
   1.2233740e+03   2.3390930e+01
   1.2238560e+03   1.0797420e+01
   1.2243380e+03   1.3930970e+01
   1.2248200e+03   3.5898010e+01
   1.2253020e+03   4.7288210e+01
   1.2257840e+03   3.9847170e+01
   1.2262670e+03   3.2878720e+01
   1.2267490e+03   3.1986150e+01
   1.2272310e+03   3.4145810e+01
   1.2277130e+03   3.6113220e+01
   1.2281950e+03   3.7413150e+01
   1.2286770e+03   3.6195370e+01
   1.2291590e+03   3.1368100e+01
   1.2296410e+03   3.0554080e+01
   1.2301240e+03   3.6111570e+01
   1.2306060e+03   4.0739320e+01
   1.2310880e+03   4.1321720e+01
   1.2315700e+03   3.9710570e+01
   1.2320520e+03   3.8356380e+01
   1.2325340e+03   3.7671810e+01
   1.2330160e+03   3.7493040e+01
   1.2334980e+03   3.7309750e+01
   1.2339800e+03   4.0921570e+01
   1.2344630e+03   4.9863890e+01
   1.2349450e+03   5.7767640e+01
   1.2354270e+03   6.2434690e+01
   1.2359090e+03   6.3546810e+01
   1.2363910e+03   5.8544740e+01
   1.2368730e+03   5.0736760e+01
   1.2373550e+03   4.4892880e+01
   1.2378370e+03   4.1505130e+01
   1.2383200e+03   4.3561280e+01
   1.2388020e+03   5.2806950e+01
   1.2392840e+03   5.8824460e+01
   1.2397660e+03   5.4156800e+01
   1.2402480e+03   4.6440310e+01
   1.2407300e+03   4.5683040e+01
   1.2412120e+03   4.8717100e+01
   1.2416940e+03   5.0118100e+01
   1.2421770e+03   4.7319890e+01
   1.2426590e+03   5.2558840e+01
   1.2431410e+03   6.7569340e+01
   1.2436230e+03   7.8225590e+01
   1.2441050e+03   7.2274660e+01
   1.2445870e+03   6.2431210e+01
   1.2450690e+03   6.3025270e+01
   1.2455510e+03   6.8416140e+01
   1.2460330e+03   6.9139530e+01
   1.2465160e+03   6.2587220e+01
   1.2469980e+03   6.2890560e+01
   1.2474800e+03   7.0895080e+01
   1.2479620e+03   7.5100520e+01
   1.2484440e+03   6.4544250e+01
   1.2489260e+03   5.1049740e+01
   1.2494080e+03   4.3044190e+01
   1.2498900e+03   3.8707890e+01
   1.2503720e+03   3.5528560e+01
   1.2508550e+03   3.2158570e+01
   1.2513370e+03   3.7651060e+01
   1.2518190e+03   5.1925170e+01
   1.2523010e+03   6.5785640e+01
   1.2527830e+03   7.5026430e+01
   1.2532650e+03   7.9787290e+01
   1.2537470e+03   7.9017880e+01
   1.2542290e+03   7.4168210e+01
   1.2547120e+03   6.6526490e+01
   1.2551940e+03   5.5511780e+01
   1.2556760e+03   4.9585080e+01
   1.2561580e+03   4.8760990e+01
   1.2566400e+03   5.0259640e+01
   1.2571220e+03   5.4791320e+01
   1.2576040e+03   5.8612730e+01
   1.2580860e+03   5.8201900e+01
   1.2585680e+03   5.6570620e+01
   1.2590510e+03   5.7065860e+01
   1.2595330e+03   5.9584780e+01
   1.2600150e+03   6.3995060e+01
   1.2604970e+03   6.9729610e+01
   1.2609790e+03   7.2810060e+01
   1.2614610e+03   6.9332400e+01
   1.2619430e+03   6.4375120e+01
   1.2624250e+03   5.9553890e+01
   1.2629070e+03   5.4571780e+01
   1.2633900e+03   4.8371400e+01
   1.2638720e+03   4.1458980e+01
   1.2643540e+03   3.4771360e+01
   1.2648360e+03   2.9599730e+01
   1.2653180e+03   3.0226260e+01
   1.2658000e+03   4.8621640e+01
   1.2662820e+03   5.7515260e+01
   1.2667640e+03   4.7199040e+01
   1.2672470e+03   3.2466130e+01
   1.2677290e+03   3.2208560e+01
   1.2682110e+03   4.1179750e+01
   1.2686930e+03   4.7528750e+01
   1.2691750e+03   5.0367310e+01
   1.2696570e+03   4.9163880e+01
   1.2701390e+03   4.0158630e+01
   1.2706210e+03   3.2107240e+01
   1.2711040e+03   2.5881350e+01
   1.2715860e+03   2.1442690e+01
   1.2720680e+03   1.8705260e+01
   1.2725500e+03   1.7803890e+01
   1.2730320e+03   1.9798890e+01
   1.2735140e+03   2.4077510e+01
   1.2739960e+03   2.7277830e+01
   1.2744780e+03   2.8725400e+01
   1.2749600e+03   2.9496280e+01
   1.2754430e+03   2.9769470e+01
   1.2759250e+03   2.9173160e+01
   1.2764070e+03   2.5147030e+01
   1.2768890e+03   2.1619020e+01
   1.2773710e+03   2.5666990e+01
   1.2778530e+03   3.4796080e+01
   1.2783350e+03   3.6325010e+01
   1.2788170e+03   2.8110110e+01
   1.2792990e+03   1.9572020e+01
   1.2797820e+03   1.1439330e+01
   1.2802640e+03   6.6522220e+00
   1.2807460e+03   1.2557250e+01
   1.2812280e+03   1.8745240e+01
   1.2817100e+03   1.3315370e+01
   1.2821920e+03   1.3969730e+00
   1.2826740e+03   2.0666500e-01
   1.2831560e+03   9.2424930e+00
   1.2836390e+03   1.2807250e+01
   1.2841210e+03   8.2659910e+00
   1.2846030e+03   3.8945310e+00
   1.2850850e+03   5.4137570e+00
   1.2855670e+03   9.3492430e+00
   1.2860490e+03   1.6828800e+01
   1.2865310e+03   2.3481930e+01
   1.2870130e+03   1.9171690e+01
   1.2874950e+03   5.6323850e+00
   1.2879780e+03   2.7774660e+00
   1.2884600e+03   4.6453860e+00
   1.2889420e+03   3.3929440e+00
   1.2894240e+03   8.6596700e-01
   1.2899060e+03   6.0299680e+00
   1.2903880e+03   1.2841800e+01
   1.2908700e+03   1.8206360e+01
   1.2913520e+03   1.5622190e+01
   1.2918340e+03   7.9399410e+00
   1.2923170e+03   2.1323240e+00
   1.2927990e+03   9.5507800e-01
   1.2932810e+03   2.8576700e-01
   1.2937630e+03   1.1493710e+01
   1.2942450e+03   1.9395690e+01
   1.2947270e+03   2.0979190e+01
   1.2952090e+03   1.8770450e+01
   1.2956910e+03   1.3883670e+01
   1.2961740e+03   8.3243410e+00
   1.2966560e+03   1.9721680e+00
   1.2971380e+03   7.7331500e-01
   1.2976200e+03   1.1202390e+00
   1.2981020e+03   7.4923100e+00
   1.2985840e+03   1.1839660e+01
   1.2990660e+03   1.2143010e+01
   1.2995480e+03   1.2694460e+01
   1.3000310e+03   1.5142940e+01
   1.3005130e+03   1.7917360e+01
   1.3009950e+03   2.0494320e+01
   1.3014770e+03   2.2549380e+01
   1.3019590e+03   2.0117070e+01
   1.3024410e+03   1.2587460e+01
   1.3029230e+03   7.2880250e+00
   1.3034050e+03   5.3485720e+00
   1.3038870e+03   4.4630740e+00
   1.3043700e+03   0.0000000e+00
   1.5000000e+03   0.0000000e+00
