   1.0000000e+02   0.0000000e+00
   1.4225310e+02   0.0000000e+00
   1.4273530e+02   2.3941040e+00
   1.4321740e+02   4.9020690e+00
   1.4369950e+02   1.6970800e-01
   1.4418160e+02   6.0863950e+00
   1.4466370e+02   9.5769350e+00
   1.4514580e+02   1.0804170e+01
   1.4562800e+02   2.1271970e+00
   1.4611010e+02   5.8901370e+00
   1.4659220e+02   4.7185970e+00
   1.4707430e+02   3.3706050e+00
   1.4755640e+02   8.9962460e+00
   1.4803850e+02   1.8775330e+00
   1.4852070e+02   7.3949280e+00
   1.4900280e+02   7.9171450e+00
   1.4948490e+02   1.0709080e+01
   1.4996700e+02   8.5735170e+00
   1.5044910e+02   7.9601750e+00
   1.5093120e+02   1.2432190e+01
   1.5141340e+02   1.4040890e+01
   1.5189550e+02   1.1382810e+01
   1.5237760e+02   1.4619230e+01
   1.5285970e+02   7.5845640e+00
   1.5334180e+02   9.3351140e+00
   1.5382390e+02   1.4881350e+01
   1.5430610e+02   1.2398860e+01
   1.5478820e+02   1.5304840e+01
   1.5527030e+02   1.6132260e+01
   1.5575240e+02   7.9502560e+00
   1.5623450e+02   1.5668980e+01
   1.5671660e+02   1.6879330e+01
   1.5719880e+02   1.0699650e+01
   1.5768090e+02   1.4282170e+01
   1.5816300e+02   1.4858120e+01
   1.5864510e+02   1.3890410e+01
   1.5912720e+02   7.4525760e+00
   1.5960930e+02   1.4624850e+01
   1.6009150e+02   1.7929050e+01
   1.6057360e+02   1.8180300e+01
   1.6105570e+02   8.8712160e+00
   1.6153780e+02   1.4932500e+01
   1.6201990e+02   1.6016780e+01
   1.6250200e+02   1.4587950e+01
   1.6298410e+02   1.9288020e+01
   1.6346630e+02   1.1215610e+01
   1.6394840e+02   1.5723970e+01
   1.6443050e+02   1.5189390e+01
   1.6491260e+02   1.6968230e+01
   1.6539470e+02   1.3848080e+01
   1.6587680e+02   1.0742460e+01
   1.6635900e+02   1.0713930e+01
   1.6684110e+02   1.3237550e+01
   1.6732320e+02   1.5711880e+01
   1.6780530e+02   1.3342650e+01
   1.6828740e+02   9.4392400e+00
   1.6876950e+02   1.7968750e+00
   1.6925170e+02   9.5599670e+00
   1.6973380e+02   1.3656800e+01
   1.7021590e+02   1.4284520e+01
   1.7069800e+02   1.0415340e+00
   1.7118010e+02   5.7198790e+00
   1.7166220e+02   3.2262570e+00
   1.7214440e+02   4.4415300e-01
   1.7262650e+02   7.6644900e+00
   1.7310860e+02   3.5288090e+00
   1.7359070e+02   5.0920720e+00
   1.7407280e+02   8.3334660e+00
   1.7455490e+02   1.3493350e+01
   1.7503710e+02   1.7216030e+01
   1.7551920e+02   1.4203190e+01
   1.7600130e+02   5.6282040e+00
   1.7648340e+02   2.0286250e+00
   1.7696550e+02   3.6772160e+00
   1.7744760e+02   1.1842040e+00
   1.7792980e+02   2.3759770e+00
   1.7841190e+02   8.0380250e+00
   1.7889400e+02   1.2746730e+01
   1.7937610e+02   1.0937470e+01
   1.7985820e+02   2.7962340e+00
   1.8034030e+02   5.6429750e+00
   1.8082250e+02   9.2796940e+00
   1.8130460e+02   8.9645080e+00
   1.8178670e+02   7.2475890e+00
   1.8226880e+02   4.0143430e+00
   1.8275090e+02   2.4011200e-01
   1.8323300e+02   1.5229800e+00
   1.8371520e+02   1.0086670e+00
   1.8419730e+02   4.6392800e-01
   1.8467940e+02   2.9433590e+00
   1.8516150e+02   7.9026490e+00
   1.8564360e+02   1.2190310e+01
   1.8612570e+02   1.5103910e+01
   1.8660790e+02   1.6356140e+01
   1.8709000e+02   1.3914340e+01
   1.8757210e+02   6.6962890e+00
   1.8805420e+02   6.7184400e-01
   1.8853630e+02   4.0801998e-02
   1.8901840e+02   8.0693050e+00
   1.8950060e+02   1.4708250e+01
   1.8998270e+02   1.3652250e+01
   1.9046480e+02   6.2382200e+00
   1.9094690e+02   4.2666600e-01
   1.9142900e+02   3.1942140e+00
   1.9191110e+02   4.7838440e+00
   1.9239320e+02   4.0899960e+00
   1.9287540e+02   1.0077820e+00
   1.9335750e+02   2.6296080e+00
   1.9383960e+02   5.9176940e+00
   1.9432170e+02   8.8754880e+00
   1.9480380e+02   1.1218510e+01
   1.9528590e+02   1.3017300e+01
   1.9576810e+02   1.4103420e+01
   1.9625020e+02   1.3578340e+01
   1.9673230e+02   1.1108340e+01
   1.9721440e+02   8.9728700e+00
   1.9769650e+02   9.0820620e+00
   1.9817860e+02   1.1499600e+01
   1.9866080e+02   1.4287660e+01
   1.9914290e+02   1.6836400e+01
   1.9962500e+02   1.9493440e+01
   2.0010710e+02   2.4810940e+01
   2.0058920e+02   3.3471800e+01
   2.0107140e+02   4.1759370e+01
   2.0155350e+02   4.5042940e+01
   2.0203560e+02   4.2492310e+01
   2.0251770e+02   4.2418370e+01
   2.0299980e+02   4.8304230e+01
   2.0348190e+02   5.9309140e+01
   2.0396410e+02   6.3236910e+01
   2.0444620e+02   5.7672270e+01
   2.0492830e+02   5.0081020e+01
   2.0541040e+02   4.9810240e+01
   2.0589250e+02   5.8669740e+01
   2.0637460e+02   6.7027190e+01
   2.0685680e+02   7.1950130e+01
   2.0733890e+02   7.3343170e+01
   2.0782100e+02   7.4768010e+01
   2.0830310e+02   7.5508450e+01
   2.0878520e+02   7.7348420e+01
   2.0926730e+02   8.3144130e+01
   2.0974950e+02   9.3753390e+01
   2.1023160e+02   1.0569110e+02
   2.1071370e+02   1.1787960e+02
   2.1119580e+02   1.3020580e+02
   2.1167790e+02   1.4284130e+02
   2.1216000e+02   1.5472000e+02
   2.1264220e+02   1.6801850e+02
   2.1312430e+02   1.8670790e+02
   2.1360640e+02   2.1083010e+02
   2.1408850e+02   2.3971850e+02
   2.1457060e+02   2.7378410e+02
   2.1505270e+02   3.1466680e+02
   2.1553490e+02   3.5521690e+02
   2.1601700e+02   3.9372130e+02
   2.1649910e+02   4.3265960e+02
   2.1698120e+02   4.7897610e+02
   2.1746330e+02   5.3621250e+02
   2.1794540e+02   5.9283070e+02
   2.1842760e+02   6.4188040e+02
   2.1890970e+02   6.7748930e+02
   2.1939180e+02   7.2187700e+02
   2.1987390e+02   7.7985240e+02
   2.2035600e+02   8.4586820e+02
   2.2083810e+02   9.0111100e+02
   2.2132030e+02   9.3696750e+02
   2.2180240e+02   9.7545190e+02
   2.2228450e+02   1.0310900e+03
   2.2276660e+02   1.1164570e+03
   2.2324870e+02   1.1887140e+03
   2.2373080e+02   1.2423480e+03
   2.2421290e+02   1.2799250e+03
   2.2469510e+02   1.3173460e+03
   2.2517720e+02   1.3712660e+03
   2.2565930e+02   1.4024430e+03
   2.2614140e+02   1.3844790e+03
   2.2662350e+02   1.3063530e+03
   2.2710560e+02   1.2009800e+03
   2.2758780e+02   1.0565640e+03
   2.2806990e+02   8.8243070e+02
   2.2855200e+02   7.3590990e+02
   2.2903410e+02   6.2270450e+02
   2.2951620e+02   5.3270550e+02
   2.2999830e+02   4.5784930e+02
   2.3048050e+02   3.9919040e+02
   2.3096260e+02   3.5555690e+02
   2.3144470e+02   3.3084980e+02
   2.3192680e+02   3.2415840e+02
   2.3240890e+02   3.1996090e+02
   2.3289100e+02   3.1792650e+02
   2.3337320e+02   3.1863560e+02
   2.3385530e+02   3.2179670e+02
   2.3433740e+02   3.2362050e+02
   2.3481950e+02   3.3497200e+02
   2.3530160e+02   3.6085050e+02
   2.3578370e+02   4.0175510e+02
   2.3626590e+02   4.3730090e+02
   2.3674800e+02   4.6387970e+02
   2.3723010e+02   4.8852020e+02
   2.3771220e+02   5.1819870e+02
   2.3819430e+02   5.5469740e+02
   2.3867640e+02   5.9206530e+02
   2.3915860e+02   6.3014850e+02
   2.3964070e+02   6.6919640e+02
   2.4012280e+02   7.0678100e+02
   2.4060490e+02   7.4037290e+02
   2.4108700e+02   7.7483280e+02
   2.4156910e+02   8.1618940e+02
   2.4205130e+02   8.6758680e+02
   2.4253340e+02   9.2043900e+02
   2.4301550e+02   9.7334800e+02
   2.4349760e+02   1.0265780e+03
   2.4397970e+02   1.0796150e+03
   2.4446180e+02   1.1423980e+03
   2.4494400e+02   1.1963350e+03
   2.4542610e+02   1.2186660e+03
   2.4590820e+02   1.2084680e+03
   2.4639030e+02   1.1674990e+03
   2.4687240e+02   1.0910990e+03
   2.4735450e+02   9.7291150e+02
   2.4783670e+02   8.5307750e+02
   2.4831880e+02   7.2569900e+02
   2.4880090e+02   6.0250980e+02
   2.4928300e+02   5.0055170e+02
   2.4976510e+02   4.2563660e+02
   2.5024720e+02   3.6360990e+02
   2.5072940e+02   3.1184580e+02
   2.5121150e+02   2.7148530e+02
   2.5169360e+02   2.3564880e+02
   2.5217570e+02   2.0456760e+02
   2.5265780e+02   1.7795330e+02
   2.5313990e+02   1.5427550e+02
   2.5362200e+02   1.3312200e+02
   2.5410420e+02   1.1561250e+02
   2.5458630e+02   1.0264430e+02
   2.5506840e+02   9.4892120e+01
   2.5555050e+02   8.8524540e+01
   2.5603260e+02   8.4419160e+01
   2.5651470e+02   8.1079530e+01
   2.5699690e+02   7.5846920e+01
   2.5747900e+02   6.8185150e+01
   2.5796110e+02   5.9536410e+01
   2.5844320e+02   4.9634950e+01
   2.5892530e+02   3.7216670e+01
   2.5940740e+02   2.8665770e+01
   2.5988960e+02   2.4699460e+01
   2.6037170e+02   2.3998140e+01
   2.6085380e+02   2.4422150e+01
   2.6133590e+02   2.6471980e+01
   2.6181800e+02   2.8601530e+01
   2.6230010e+02   3.1010100e+01
   2.6278230e+02   3.4853090e+01
   2.6326440e+02   3.3500890e+01
   2.6374650e+02   2.3509280e+01
   2.6422860e+02   1.0017150e+01
   2.6471070e+02   3.8911130e+00
   2.6519280e+02   7.0202330e+00
   2.6567500e+02   1.2599490e+01
   2.6615710e+02   1.8910550e+01
   2.6663920e+02   2.6909790e+01
   2.6712130e+02   3.1809300e+01
   2.6760340e+02   3.1914250e+01
   2.6808550e+02   2.9199860e+01
   2.6856770e+02   2.7761140e+01
   2.6904980e+02   2.7682950e+01
   2.6953190e+02   2.9103970e+01
   2.7001400e+02   3.2663270e+01
   2.7049610e+02   3.9006710e+01
   2.7097820e+02   4.1896610e+01
   2.7146040e+02   3.9845670e+01
   2.7194250e+02   3.5834530e+01
   2.7242460e+02   3.4321720e+01
   2.7290670e+02   3.5215360e+01
   2.7338880e+02   3.8949160e+01
   2.7387090e+02   4.7389220e+01
   2.7435310e+02   6.1604770e+01
   2.7483520e+02   7.0416140e+01
   2.7531730e+02   7.2142880e+01
   2.7579940e+02   7.0575440e+01
   2.7628150e+02   7.2329280e+01
   2.7676360e+02   7.7458710e+01
   2.7724580e+02   8.3993650e+01
   2.7772790e+02   9.1228730e+01
   2.7821000e+02   9.9350160e+01
   2.7869210e+02   1.0880920e+02
   2.7917420e+02   1.1985510e+02
   2.7965630e+02   1.3106330e+02
   2.8013850e+02   1.3923910e+02
   2.8062060e+02   1.4379040e+02
   2.8110270e+02   1.5053800e+02
   2.8158480e+02   1.6435600e+02
   2.8206690e+02   1.8500600e+02
   2.8254900e+02   1.9836940e+02
   2.8303120e+02   2.0218360e+02
   2.8351330e+02   2.0288470e+02
   2.8399540e+02   2.1156520e+02
   2.8447750e+02   2.2868900e+02
   2.8495960e+02   2.4616510e+02
   2.8544170e+02   2.5906650e+02
   2.8592390e+02   2.6836500e+02
   2.8640600e+02   2.8247230e+02
   2.8688810e+02   3.0177210e+02
   2.8737020e+02   3.2437260e+02
   2.8785230e+02   3.4896560e+02
   2.8833440e+02   3.7594570e+02
   2.8881660e+02   4.0032810e+02
   2.8929870e+02   4.1690000e+02
   2.8978080e+02   4.2807130e+02
   2.9026290e+02   4.4572010e+02
   2.9074500e+02   4.7124940e+02
   2.9122710e+02   4.9839470e+02
   2.9170930e+02   5.1885580e+02
   2.9219140e+02   5.3309230e+02
   2.9267350e+02   5.4525680e+02
   2.9315560e+02   5.5835490e+02
   2.9363770e+02   5.7082350e+02
   2.9411980e+02   5.7704940e+02
   2.9460200e+02   5.7643040e+02
   2.9508410e+02   5.7232310e+02
   2.9556620e+02   5.6765430e+02
   2.9604830e+02   5.6255680e+02
   2.9653040e+02   5.5767030e+02
   2.9701250e+02   5.5534450e+02
   2.9749470e+02   5.5309160e+02
   2.9797680e+02   5.4644920e+02
   2.9845890e+02   5.3544440e+02
   2.9894100e+02   5.1892290e+02
   2.9942310e+02   4.9461780e+02
   2.9990520e+02   4.6352380e+02
   3.0038730e+02   4.2933410e+02
   3.0086940e+02   3.9055550e+02
   3.0135160e+02   3.5082600e+02
   3.0183370e+02   3.1442310e+02
   3.0231580e+02   2.8123710e+02
   3.0279790e+02   2.5225990e+02
   3.0328000e+02   2.2920390e+02
   3.0376210e+02   2.1080290e+02
   3.0424430e+02   1.9372510e+02
   3.0472640e+02   1.7774680e+02
   3.0520850e+02   1.6221330e+02
   3.0569060e+02   1.4549840e+02
   3.0617270e+02   1.2774910e+02
   3.0665480e+02   1.1191930e+02
   3.0713700e+02   1.0157150e+02
   3.0761910e+02   9.4556460e+01
   3.0810120e+02   8.7708100e+01
   3.0858330e+02   8.0962740e+01
   3.0906540e+02   7.3188540e+01
   3.0954750e+02   6.1790220e+01
   3.1002970e+02   4.7164760e+01
   3.1051180e+02   3.5626620e+01
   3.1099390e+02   3.3386600e+01
   3.1147600e+02   3.5903380e+01
   3.1195810e+02   3.7863130e+01
   3.1244020e+02   3.6086300e+01
   3.1292240e+02   3.4276920e+01
   3.1340450e+02   3.5536130e+01
   3.1388660e+02   3.9389190e+01
   3.1436870e+02   4.1488950e+01
   3.1485080e+02   3.8390660e+01
   3.1533290e+02   3.3120270e+01
   3.1581510e+02   2.8421690e+01
   3.1629720e+02   2.5410890e+01
   3.1677930e+02   2.2734470e+01
   3.1726140e+02   1.9443050e+01
   3.1774350e+02   1.5805150e+01
   3.1822560e+02   1.3293180e+01
   3.1870780e+02   1.4976810e+01
   3.1918990e+02   1.6525630e+01
   3.1967200e+02   1.4753270e+01
   3.2015410e+02   2.9586790e+00
   3.2063620e+02   5.2539060e+00
   3.2111830e+02   3.5178530e+00
   3.2160050e+02   5.5634460e+00
   3.2208260e+02   1.2004090e+01
   3.2256470e+02   1.2934780e+01
   3.2304680e+02   1.0955720e+01
   3.2352890e+02   7.1992800e+00
   3.2401100e+02   2.4471740e+00
   3.2449320e+02   8.0737000e+00
   3.2497530e+02   4.6787720e+00
   3.2545740e+02   4.2400510e+00
   3.2593950e+02   8.6343080e+00
   3.2642160e+02   2.6265260e+00
   3.2690370e+02   4.0740970e+00
   3.2738590e+02   7.7572630e+00
   3.2786800e+02   8.5241390e+00
   3.2835010e+02   5.7832640e+00
   3.2883220e+02   4.8498540e+00
   3.2931430e+02   1.8532840e+01
   3.2979640e+02   2.4936490e+01
   3.3027860e+02   1.8938600e+01
   3.3076070e+02   1.1278560e+01
   3.3124280e+02   5.3539430e+00
   3.3172490e+02   1.7969360e+00
   3.3220700e+02   1.6883850e+00
   3.3268910e+02   5.7402650e+00
   3.3317130e+02   9.4054870e+00
   3.3365340e+02   1.0879120e+01
   3.3413550e+02   8.5944210e+00
   3.3461760e+02   6.9280700e+00
   3.3509970e+02   7.8030400e+00
   3.3558180e+02   1.2018710e+01
   3.3606400e+02   1.3287810e+01
   3.3654610e+02   1.0691860e+01
   3.3702820e+02   6.1636660e+00
   3.3751030e+02   1.9304200e+00
   3.3799240e+02   1.9291990e+00
   3.3847450e+02   5.6359860e+00
   3.3895670e+02   9.5715030e+00
   3.3943880e+02   1.3644840e+01
   3.3992090e+02   1.5895810e+01
   3.4040300e+02   1.6165920e+01
   3.4088510e+02   1.4941350e+01
   3.4136720e+02   1.2345610e+01
   3.4184940e+02   8.2029420e+00
   3.4233150e+02   4.3690490e+00
   3.4281360e+02   9.5559700e-01
   3.4329570e+02   1.7516480e+00
   3.4377780e+02   1.8697810e+00
   3.4425990e+02   1.0930790e+00
   3.4474210e+02   3.5861510e+00
   3.4522420e+02   2.9556300e-01
   3.4570630e+02   7.7412410e+00
   3.4618840e+02   9.9929500e+00
   3.4667050e+02   1.8227230e+00
   3.4715260e+02   1.0891330e+01
   3.4763480e+02   1.4126500e+01
   3.4811690e+02   8.1628420e+00
   3.4859900e+02   1.6224980e+00
   3.4908110e+02   2.0405580e+00
   3.4956320e+02   7.0297850e+00
   3.5004530e+02   9.7275390e+00
   3.5052750e+02   7.8498540e+00
   3.5100960e+02   5.4272160e+00
   3.5149170e+02   9.2201840e+00
   3.5197380e+02   1.7886930e+01
   3.5245590e+02   2.5003390e+01
   3.5293800e+02   2.5753750e+01
   3.5342020e+02   2.2758030e+01
   3.5390230e+02   1.9107030e+01
   3.5438440e+02   1.4683140e+01
   3.5486650e+02   1.1671630e+01
   3.5534860e+02   1.2105710e+01
   3.5583070e+02   1.5443210e+01
   3.5631290e+02   2.0517640e+01
   3.5679500e+02   3.1671390e+01
   3.5727710e+02   4.1230470e+01
   3.5775920e+02   4.0249660e+01
   3.5824130e+02   2.6480130e+01
   3.5872340e+02   1.4858610e+01
   3.5920560e+02   1.6662020e+01
   3.5968770e+02   2.5510070e+01
   3.6016980e+02   3.2472560e+01
   3.6065190e+02   3.3024020e+01
   3.6113400e+02   3.1826020e+01
   3.6161610e+02   3.0460020e+01
   3.6209820e+02   2.8995540e+01
   3.6258040e+02   2.8915680e+01
   3.6306250e+02   3.1209380e+01
   3.6354460e+02   3.4908170e+01
   3.6402670e+02   3.9135650e+01
   3.6450880e+02   4.5015140e+01
   3.6499090e+02   5.0039760e+01
   3.6547310e+02   5.1414860e+01
   3.6595520e+02   4.3742580e+01
   3.6643730e+02   5.3374600e+01
   3.6691940e+02   5.9335210e+01
   3.6740150e+02   6.1821590e+01
   3.6788360e+02   5.0432070e+01
   3.6836580e+02   5.6957610e+01
   3.6884790e+02   5.6301390e+01
   3.6933000e+02   5.5349520e+01
   3.6981210e+02   6.4392270e+01
   3.7029420e+02   5.5014100e+01
   3.7077630e+02   6.3895750e+01
   3.7125850e+02   6.5486820e+01
   3.7174060e+02   7.0412410e+01
   3.7222270e+02   6.8112460e+01
   3.7270480e+02   7.2449890e+01
   3.7318690e+02   7.5673160e+01
   3.7366900e+02   7.6997740e+01
   3.7415120e+02   7.8743560e+01
   3.7463330e+02   8.0966770e+01
   3.7511540e+02   8.3480070e+01
   3.7559750e+02   8.6268070e+01
   3.7607960e+02   8.9360990e+01
   3.7656170e+02   9.2751070e+01
   3.7704390e+02   9.6805910e+01
   3.7752600e+02   1.0048630e+02
   3.7800810e+02   1.0171780e+02
   3.7849020e+02   9.9783870e+01
   3.7897230e+02   9.9406160e+01
   3.7945440e+02   1.0251990e+02
   3.7993660e+02   1.0816300e+02
   3.8041870e+02   1.1235250e+02
   3.8090080e+02   1.1473680e+02
   3.8138290e+02   1.1792920e+02
   3.8186500e+02   1.2588420e+02
   3.8234710e+02   1.3732780e+02
   3.8282930e+02   1.4477560e+02
   3.8331140e+02   1.4411730e+02
   3.8379350e+02   1.4108530e+02
   3.8427560e+02   1.4752710e+02
   3.8475770e+02   1.6262850e+02
   3.8523980e+02   1.7935550e+02
   3.8572200e+02   1.9468610e+02
   3.8620410e+02   2.0854670e+02
   3.8668620e+02   2.1999130e+02
   3.8716830e+02   2.2720450e+02
   3.8765040e+02   2.3501020e+02
   3.8813250e+02   2.5079280e+02
   3.8861470e+02   2.7174690e+02
   3.8909680e+02   2.8923240e+02
   3.8957890e+02   2.9635520e+02
   3.9006100e+02   2.9947530e+02
   3.9054310e+02   3.0243800e+02
   3.9102520e+02   3.0483690e+02
   3.9150740e+02   3.1321190e+02
   3.9198950e+02   3.3493880e+02
   3.9247160e+02   3.6462670e+02
   3.9295370e+02   3.9415400e+02
   3.9343580e+02   4.1837780e+02
   3.9391790e+02   4.4386550e+02
   3.9440010e+02   4.7430140e+02
   3.9488220e+02   5.0982330e+02
   3.9536430e+02   5.4701880e+02
   3.9584640e+02   5.8464610e+02
   3.9632850e+02   6.2354250e+02
   3.9681060e+02   6.6403160e+02
   3.9729280e+02   7.0318100e+02
   3.9777490e+02   7.4826840e+02
   3.9825700e+02   8.0208200e+02
   3.9873910e+02   8.6241680e+02
   3.9922120e+02   9.2152750e+02
   3.9970330e+02   9.7725620e+02
   4.0018550e+02   1.0343240e+03
   4.0066760e+02   1.0949770e+03
   4.0114970e+02   1.1590610e+03
   4.0163180e+02   1.2255870e+03
   4.0211390e+02   1.2942970e+03
   4.0259600e+02   1.3657070e+03
   4.0307820e+02   1.4416540e+03
   4.0356030e+02   1.5241290e+03
   4.0404240e+02   1.6061620e+03
   4.0452450e+02   1.6870160e+03
   4.0500660e+02   1.7660660e+03
   4.0548870e+02   1.8405860e+03
   4.0597090e+02   1.9083600e+03
   4.0645300e+02   1.9714000e+03
   4.0693510e+02   2.0340060e+03
   4.0741720e+02   2.0976760e+03
   4.0789930e+02   2.1524890e+03
   4.0838140e+02   2.1966780e+03
   4.0886360e+02   2.2308810e+03
   4.0934570e+02   2.2590760e+03
   4.0982780e+02   2.2832800e+03
   4.1030990e+02   2.2949980e+03
   4.1079200e+02   2.2897840e+03
   4.1127410e+02   2.2679510e+03
   4.1175630e+02   2.2313360e+03
   4.1223840e+02   2.1811920e+03
   4.1272050e+02   2.1138880e+03
   4.1320260e+02   2.0164840e+03
   4.1368470e+02   1.8925880e+03
   4.1416680e+02   1.7644780e+03
   4.1464900e+02   1.6399230e+03
   4.1513110e+02   1.5199770e+03
   4.1561320e+02   1.4033040e+03
   4.1609530e+02   1.2881730e+03
   4.1657740e+02   1.1803950e+03
   4.1705950e+02   1.0818860e+03
   4.1754170e+02   9.9208260e+02
   4.1802380e+02   9.0793150e+02
   4.1850590e+02   8.2853050e+02
   4.1898800e+02   7.5515420e+02
   4.1947010e+02   6.8937630e+02
   4.1995220e+02   6.3069520e+02
   4.2043440e+02   5.7942920e+02
   4.2091650e+02   5.3792090e+02
   4.2139860e+02   5.0274790e+02
   4.2188070e+02   4.7075740e+02
   4.2236280e+02   4.4305610e+02
   4.2284490e+02   4.1694250e+02
   4.2332700e+02   3.9232900e+02
   4.2380910e+02   3.6923310e+02
   4.2429130e+02   3.4705470e+02
   4.2477340e+02   3.2829430e+02
   4.2525550e+02   3.0867770e+02
   4.2573760e+02   2.8581470e+02
   4.2621970e+02   2.5454390e+02
   4.2670180e+02   2.3247420e+02
   4.2718400e+02   2.2437400e+02
   4.2766610e+02   2.2261520e+02
   4.2814820e+02   2.1492350e+02
   4.2863030e+02   1.9815410e+02
   4.2911240e+02   1.8192370e+02
   4.2959450e+02   1.6854050e+02
   4.3007670e+02   1.5801540e+02
   4.3055880e+02   1.4963160e+02
   4.3104090e+02   1.4412910e+02
   4.3152300e+02   1.3902940e+02
   4.3200510e+02   1.3125510e+02
   4.3248720e+02   1.2067190e+02
   4.3296940e+02   1.1251370e+02
   4.3345150e+02   1.0817680e+02
   4.3393360e+02   1.0618040e+02
   4.3441570e+02   1.0287120e+02
   4.3489780e+02   9.8329010e+01
   4.3537990e+02   9.4574220e+01
   4.3586210e+02   9.4459410e+01
   4.3634420e+02   9.6031680e+01
   4.3682630e+02   9.4162480e+01
   4.3730840e+02   8.7949920e+01
   4.3779050e+02   8.0160490e+01
   4.3827260e+02   7.2755680e+01
   4.3875480e+02   6.5935610e+01
   4.3923690e+02   6.0162480e+01
   4.3971900e+02   5.5726930e+01
   4.4020110e+02   5.2354250e+01
   4.4068320e+02   4.9656800e+01
   4.4116530e+02   4.7638700e+01
   4.4164750e+02   4.7095180e+01
   4.4212960e+02   4.9984100e+01
   4.4261170e+02   5.3831600e+01
   4.4309380e+02   5.6395080e+01
   4.4357590e+02   5.7500760e+01
   4.4405800e+02   5.6745450e+01
   4.4454020e+02   5.1425200e+01
   4.4502230e+02   4.3714480e+01
   4.4550440e+02   4.0447390e+01
   4.4598650e+02   5.0586060e+01
   4.4646860e+02   5.9111540e+01
   4.4695070e+02   5.9175750e+01
   4.4743290e+02   4.6371610e+01
   4.4791500e+02   3.4964050e+01
   4.4839710e+02   2.2828950e+01
   4.4887920e+02   1.3253020e+01
   4.4936130e+02   1.0753050e+01
   4.4984340e+02   1.9883330e+01
   4.5032560e+02   2.7554660e+01
   4.5080770e+02   3.0864840e+01
   4.5128980e+02   3.0063480e+01
   4.5177190e+02   2.7436770e+01
   4.5225400e+02   2.1807500e+01
   4.5273610e+02   1.7302580e+01
   4.5321830e+02   1.9749600e+01
   4.5370040e+02   2.9716250e+01
   4.5418250e+02   2.9295810e+01
   4.5466460e+02   1.2918180e+01
   4.5514670e+02   9.1478880e+00
   4.5562880e+02   1.5989070e+01
   4.5611100e+02   8.6139830e+00
   4.5659310e+02   2.4780300e-01
   4.5707520e+02   3.5656430e+00
   4.5755730e+02   3.4430240e+00
   4.5803940e+02   4.6682130e+00
   4.5852150e+02   7.5664060e+00
   4.5900370e+02   9.8027340e+00
   4.5948580e+02   7.8634950e+00
   4.5996790e+02   3.9548950e+00
   4.6045000e+02   2.2225040e+00
   4.6093210e+02   7.0731810e+00
   4.6141420e+02   1.1468020e+01
   4.6189640e+02   9.8708800e+00
   4.6237850e+02   3.1492000e+00
   4.6286060e+02   1.3605500e+01
   4.6334270e+02   9.1195700e-01
   4.6382480e+02   6.3932190e+00
   4.6430690e+02   8.6016240e+00
   4.6478910e+02   9.5499570e+00
   4.6527120e+02   1.4193120e+00
   4.6575330e+02   3.8276370e+00
   4.6623540e+02   6.6725770e+00
   4.6671750e+02   5.1444400e+00
   4.6719960e+02   1.0067230e+01
   4.6768180e+02   1.5196230e+00
   4.6816390e+02   2.3964540e+00
   4.6864600e+02   8.1671750e+00
   4.6912810e+02   3.3359680e+00
   4.6961020e+02   1.7774960e+00
   4.7009230e+02   1.0821380e+01
   4.7057450e+02   4.8373400e-01
   4.7105660e+02   1.0209290e+01
   4.7153870e+02   1.5342500e+01
   4.7202080e+02   1.1133760e+01
   4.7250290e+02   2.3387150e+00
   4.7298500e+02   7.9217500e-01
   4.7346720e+02   7.3501280e+00
   4.7394930e+02   1.3538570e+01
   4.7443140e+02   1.3428530e+01
   4.7491350e+02   8.8410950e+00
   4.7539560e+02   1.1338500e+01
   4.7587770e+02   2.1897090e+01
   4.7635990e+02   3.2865880e+01
   4.7684200e+02   3.5558440e+01
   4.7732410e+02   3.2443600e+01
   4.7780620e+02   2.9770480e+01
   4.7828830e+02   2.7776280e+01
   4.7877040e+02   2.7666470e+01
   4.7925260e+02   3.3207610e+01
   4.7973470e+02   4.3223750e+01
   4.8021680e+02   5.1509800e+01
   4.8069890e+02   4.9464720e+01
   4.8118100e+02   4.6549380e+01
   4.8166310e+02   5.2423250e+01
   4.8214530e+02   7.2430240e+01
   4.8262740e+02   8.8184080e+01
   4.8310950e+02   8.7198760e+01
   4.8359160e+02   7.8911620e+01
   4.8407370e+02   7.5478060e+01
   4.8455580e+02   8.6085630e+01
   4.8503790e+02   9.4992800e+01
   4.8552010e+02   9.6111270e+01
   4.8600220e+02   8.9906800e+01
   4.8648430e+02   9.0523130e+01
   4.8696640e+02   1.0205450e+02
   4.8744850e+02   1.1690050e+02
   4.8793060e+02   1.3160250e+02
   4.8841280e+02   1.4722220e+02
   4.8889490e+02   1.5790210e+02
   4.8937700e+02   1.6228560e+02
   4.8985910e+02   1.6399460e+02
   4.9034120e+02   1.6959130e+02
   4.9082330e+02   1.7982930e+02
   4.9130550e+02   1.8953310e+02
   4.9178760e+02   1.9631320e+02
   4.9226970e+02   2.0094440e+02
   4.9275180e+02   2.0784410e+02
   4.9323390e+02   2.1712020e+02
   4.9371600e+02   2.2862700e+02
   4.9419820e+02   2.4430350e+02
   4.9468030e+02   2.6164130e+02
   4.9516240e+02   2.7327740e+02
   4.9564450e+02   2.7633240e+02
   4.9612660e+02   2.7760500e+02
   4.9660870e+02   2.8531020e+02
   4.9709090e+02   2.9726350e+02
   4.9757300e+02   3.0801430e+02
   4.9805510e+02   3.1507230e+02
   4.9853720e+02   3.1961580e+02
   4.9901930e+02   3.2249240e+02
   4.9950140e+02   3.2377760e+02
   4.9998360e+02   3.2272740e+02
   5.0046570e+02   3.1646270e+02
   5.0094780e+02   3.0943510e+02
   5.0142990e+02   3.0531370e+02
   5.0191200e+02   3.1165130e+02
   5.0239410e+02   3.1319590e+02
   5.0287630e+02   3.0316550e+02
   5.0335840e+02   2.8648830e+02
   5.0384050e+02   2.7786190e+02
   5.0432260e+02   2.8525210e+02
   5.0480470e+02   2.9019240e+02
   5.0528680e+02   2.8606040e+02
   5.0576900e+02   2.7189200e+02
   5.0625110e+02   2.5642800e+02
   5.0673320e+02   2.3823600e+02
   5.0721530e+02   2.2150770e+02
   5.0769740e+02   2.1242140e+02
   5.0817950e+02   2.1170250e+02
   5.0866170e+02   2.0619010e+02
   5.0914380e+02   1.9212160e+02
   5.0962590e+02   1.7358750e+02
   5.1010800e+02   1.5913230e+02
   5.1059010e+02   1.4849400e+02
   5.1107220e+02   1.3866930e+02
   5.1155440e+02   1.2525810e+02
   5.1203650e+02   1.1239840e+02
   5.1251860e+02   1.1005930e+02
   5.1300070e+02   1.1888120e+02
   5.1348280e+02   1.2493970e+02
   5.1396500e+02   1.1479840e+02
   5.1444710e+02   9.6805240e+01
   5.1492920e+02   8.1445190e+01
   5.1541130e+02   7.2713500e+01
   5.1589340e+02   6.6677760e+01
   5.1637550e+02   6.0913060e+01
   5.1685760e+02   5.6207430e+01
   5.1733970e+02   5.4918120e+01
   5.1782180e+02   6.1803650e+01
   5.1830400e+02   6.8687160e+01
   5.1878610e+02   7.2437130e+01
   5.1926820e+02   7.2576480e+01
   5.1975030e+02   6.9986020e+01
   5.2023240e+02   6.3180850e+01
   5.2071450e+02   5.3791320e+01
   5.2119670e+02   4.5817380e+01
   5.2167880e+02   3.8103610e+01
   5.2216090e+02   3.2592320e+01
   5.2264300e+02   2.9872070e+01
   5.2312510e+02   2.9608460e+01
   5.2360720e+02   2.5082950e+01
   5.2408940e+02   1.5493100e+01
   5.2457150e+02   8.2791440e+00
   5.2505360e+02   6.8524480e+00
   5.2553570e+02   1.1353640e+01
   5.2601780e+02   1.4705930e+01
   5.2649990e+02   1.6810850e+01
   5.2698210e+02   1.7777590e+01
   5.2746420e+02   1.7601530e+01
   5.2794630e+02   1.6572880e+01
   5.2842840e+02   1.4587070e+01
   5.2891050e+02   1.0883540e+01
   5.2939260e+02   8.1260680e+00
   5.2987480e+02   1.0205510e+01
   5.3035690e+02   1.5410920e+01
   5.3083900e+02   1.8948970e+01
   5.3132110e+02   1.7915920e+01
   5.3180320e+02   1.5370360e+01
   5.3228530e+02   1.3116550e+01
   5.3276750e+02   1.1513310e+01
   5.3324960e+02   8.9173280e+00
   5.3373170e+02   4.4555360e+00
   5.3421380e+02   8.3590700e-01
   5.3469590e+02   6.3052980e+00
   5.3517800e+02   1.5354550e+01
   5.3566020e+02   1.9013670e+01
   5.3614230e+02   1.3794070e+01
   5.3662440e+02   3.6453860e+00
   5.3710650e+02   8.6577997e-02
   5.3758860e+02   5.8671260e+00
   5.3807070e+02   1.0161800e+01
   5.3855290e+02   6.8756100e+00
   5.3903500e+02   3.0874940e+00
   5.3951710e+02   5.3611450e+00
   5.3999920e+02   1.1193540e+00
   5.4048130e+02   8.6979060e+00
   5.4096340e+02   1.0044770e+01
   5.4144560e+02   6.4342960e+00
   5.4192770e+02   1.4848940e+00
   5.4240980e+02   5.2528380e+00
   5.4289190e+02   1.0270200e+01
   5.4337400e+02   7.7581480e+00
   5.4385610e+02   9.7046003e-02
   5.4433830e+02   6.7915040e+00
   5.4482040e+02   1.1847170e+01
   5.4530250e+02   1.3764250e+01
   5.4578460e+02   1.0142210e+01
   5.4626670e+02   1.0484010e+00
   5.4674880e+02   6.9837650e+00
   5.4723100e+02   1.3505860e+01
   5.4771310e+02   1.6863770e+01
   5.4819520e+02   1.5731380e+01
   5.4867730e+02   4.0656740e+00
   5.4915940e+02   3.2190550e+00
   5.4964150e+02   3.1887510e+00
   5.5012370e+02   3.4783900e-01
   5.5060580e+02   7.4523900e-01
   5.5108790e+02   4.4462590e+00
   5.5157000e+02   6.9237670e+00
   5.5205210e+02   3.5251460e+00
   5.5253420e+02   4.5687870e+00
   5.5301640e+02   9.3886110e+00
   5.5349850e+02   1.0481140e+01
   5.5398060e+02   1.1069090e+01
   5.5446270e+02   1.3658510e+01
   5.5494480e+02   1.7797450e+01
   5.5542690e+02   2.2483280e+01
   5.5590910e+02   2.8440400e+01
   5.5639120e+02   3.0862550e+01
   5.5687330e+02   2.0328740e+01
   5.5735540e+02   2.6256410e+00
   5.5783750e+02   1.0388240e+01
   5.5831960e+02   1.1762820e+01
   5.5880180e+02   9.1669010e+00
   5.5928390e+02   7.4311830e+00
   5.5976600e+02   6.1518860e+00
   5.6024810e+02   3.6755070e+00
   5.6073020e+02   1.9122010e+00
   5.6121230e+02   7.8192750e+00
   5.6169450e+02   1.2736210e+01
   5.6217660e+02   1.6418270e+01
   5.6265870e+02   1.9323000e+01
   5.6314080e+02   2.1906490e+01
   5.6362290e+02   2.3395320e+01
   5.6410500e+02   2.3140010e+01
   5.6458720e+02   2.0995790e+01
   5.6506930e+02   1.7034180e+01
   5.6555140e+02   9.8693240e+00
   5.6603350e+02   1.8276370e+00
   5.6651560e+02   3.2971200e-01
   5.6699770e+02   3.9074100e+00
   5.6747990e+02   8.4241940e+00
   5.6796200e+02   9.5093990e+00
   5.6844410e+02   8.7038570e+00
   5.6892620e+02   1.2193120e+01
   5.6940830e+02   2.0031680e+01
   5.6989040e+02   2.7134280e+01
   5.7037260e+02   2.7622740e+01
   5.7085470e+02   2.5247740e+01
   5.7133680e+02   2.6124880e+01
   5.7181890e+02   3.2563960e+01
   5.7230100e+02   3.9178960e+01
   5.7278310e+02   4.1714360e+01
   5.7326530e+02   4.2259890e+01
   5.7374740e+02   4.4050350e+01
   5.7422950e+02   5.3198060e+01
   5.7471160e+02   5.8586980e+01
   5.7519370e+02   5.3893620e+01
   5.7567580e+02   4.0305110e+01
   5.7615800e+02   3.2274110e+01
   5.7664010e+02   3.2123600e+01
   5.7712220e+02   3.5271730e+01
   5.7760430e+02   4.0027770e+01
   5.7808640e+02   4.6844180e+01
   5.7856850e+02   5.4231080e+01
   5.7905070e+02   6.3408080e+01
   5.7953280e+02   7.0776980e+01
   5.8001490e+02   6.9923340e+01
   5.8049700e+02   6.1204650e+01
   5.8097910e+02   5.8133300e+01
   5.8146120e+02   6.5650570e+01
   5.8194340e+02   7.6901000e+01
   5.8242550e+02   7.8949890e+01
   5.8290760e+02   7.3814270e+01
   5.8338970e+02   6.9719180e+01
   5.8387180e+02   7.0402220e+01
   5.8435390e+02   7.4612550e+01
   5.8483610e+02   8.3409550e+01
   5.8531820e+02   9.6482240e+01
   5.8580030e+02   1.0595610e+02
   5.8628240e+02   1.0258580e+02
   5.8676450e+02   9.7295720e+01
   5.8724660e+02   9.8404850e+01
   5.8772880e+02   1.1089990e+02
   5.8821090e+02   1.2314170e+02
   5.8869300e+02   1.3345730e+02
   5.8917510e+02   1.4297740e+02
   5.8965720e+02   1.5352240e+02
   5.9013930e+02   1.6740390e+02
   5.9062150e+02   1.7731150e+02
   5.9110360e+02   1.8020730e+02
   5.9158570e+02   1.7846900e+02
   5.9206780e+02   1.8237030e+02
   5.9254990e+02   1.9253830e+02
   5.9303200e+02   2.0273610e+02
   5.9351420e+02   2.0826820e+02
   5.9399630e+02   2.1173070e+02
   5.9447840e+02   2.2188000e+02
   5.9496050e+02   2.3888950e+02
   5.9544260e+02   2.5699020e+02
   5.9592470e+02   2.7156570e+02
   5.9640690e+02   2.8490880e+02
   5.9688900e+02   3.0038010e+02
   5.9737110e+02   3.1957290e+02
   5.9785320e+02   3.3784480e+02
   5.9833530e+02   3.5331730e+02
   5.9881740e+02   3.6642520e+02
   5.9929960e+02   3.7763950e+02
   5.9978170e+02   3.7931570e+02
   6.0026380e+02   3.8681650e+02
   6.0074590e+02   4.0800390e+02
   6.0122800e+02   4.4169850e+02
   6.0171010e+02   4.6860620e+02
   6.0219230e+02   4.8447310e+02
   6.0267440e+02   4.9915270e+02
   6.0315650e+02   5.1759380e+02
   6.0363860e+02   5.4086330e+02
   6.0412070e+02   5.6477310e+02
   6.0460280e+02   5.8967570e+02
   6.0508500e+02   6.1285910e+02
   6.0556710e+02   6.2922960e+02
   6.0604920e+02   6.4030930e+02
   6.0653130e+02   6.5382090e+02
   6.0701340e+02   6.7098690e+02
   6.0749550e+02   6.9215710e+02
   6.0797770e+02   7.2485870e+02
   6.0845980e+02   7.6235860e+02
   6.0894190e+02   7.8822860e+02
   6.0942400e+02   7.8322530e+02
   6.0990610e+02   7.7363620e+02
   6.1038820e+02   7.7827220e+02
   6.1087040e+02   7.9588700e+02
   6.1135250e+02   8.0548880e+02
   6.1183460e+02   7.9892940e+02
   6.1231670e+02   7.8472310e+02
   6.1279880e+02   7.6708450e+02
   6.1328090e+02   7.4550950e+02
   6.1376310e+02   7.2173600e+02
   6.1424520e+02   6.9348970e+02
   6.1472730e+02   6.6551290e+02
   6.1520940e+02   6.4630650e+02
   6.1569150e+02   6.3835500e+02
   6.1617360e+02   6.1683950e+02
   6.1665580e+02   5.7355550e+02
   6.1713790e+02   5.2127330e+02
   6.1762000e+02   4.8515970e+02
   6.1810210e+02   4.6346660e+02
   6.1858420e+02   4.4465280e+02
   6.1906630e+02   4.2411580e+02
   6.1954850e+02   4.0267870e+02
   6.2003060e+02   3.8095540e+02
   6.2051270e+02   3.5902870e+02
   6.2099480e+02   3.3682160e+02
   6.2147690e+02   3.1136220e+02
   6.2195900e+02   2.8789060e+02
   6.2244120e+02   2.7023380e+02
   6.2292330e+02   2.5919890e+02
   6.2340540e+02   2.5222420e+02
   6.2388750e+02   2.5563500e+02
   6.2436960e+02   2.5903650e+02
   6.2485170e+02   2.5197020e+02
   6.2533390e+02   2.2610000e+02
   6.2581600e+02   2.0813060e+02
   6.2629810e+02   2.0353700e+02
   6.2678020e+02   2.0559580e+02
   6.2726230e+02   1.9901510e+02
   6.2774440e+02   1.8313130e+02
   6.2822660e+02   1.6769040e+02
   6.2870870e+02   1.5462120e+02
   6.2919080e+02   1.4534410e+02
   6.2967290e+02   1.4607400e+02
   6.3015500e+02   1.5568010e+02
   6.3063710e+02   1.6449430e+02
   6.3111930e+02   1.6587800e+02
   6.3160140e+02   1.6304920e+02
   6.3208350e+02   1.5892650e+02
   6.3256560e+02   1.5373350e+02
   6.3304770e+02   1.4799240e+02
   6.3352980e+02   1.3929210e+02
   6.3401200e+02   1.3150590e+02
   6.3449410e+02   1.2806880e+02
   6.3497620e+02   1.3385190e+02
   6.3545830e+02   1.3829390e+02
   6.3594040e+02   1.4093280e+02
   6.3642250e+02   1.4208500e+02
   6.3690470e+02   1.4198720e+02
   6.3738680e+02   1.3996990e+02
   6.3786890e+02   1.3885960e+02
   6.3835100e+02   1.3945920e+02
   6.3883310e+02   1.4140890e+02
   6.3931520e+02   1.4418350e+02
   6.3979730e+02   1.4771660e+02
   6.4027940e+02   1.5007430e+02
   6.4076150e+02   1.4992690e+02
   6.4124370e+02   1.4790480e+02
   6.4172580e+02   1.4411250e+02
   6.4220790e+02   1.3868650e+02
   6.4269000e+02   1.3467820e+02
   6.4317210e+02   1.3395300e+02
   6.4365420e+02   1.3569760e+02
   6.4413640e+02   1.3954060e+02
   6.4461850e+02   1.4653440e+02
   6.4510060e+02   1.5278940e+02
   6.4558270e+02   1.5645240e+02
   6.4606480e+02   1.5927250e+02
   6.4654690e+02   1.6323270e+02
   6.4702910e+02   1.6827030e+02
   6.4751120e+02   1.7474040e+02
   6.4799330e+02   1.8334520e+02
   6.4847540e+02   1.9301890e+02
   6.4895750e+02   2.0066710e+02
   6.4943960e+02   2.0630960e+02
   6.4992180e+02   2.1069230e+02
   6.5040390e+02   2.1448690e+02
   6.5088600e+02   2.1713070e+02
   6.5136810e+02   2.1701810e+02
   6.5185020e+02   2.1011590e+02
   6.5233230e+02   2.1769870e+02
   6.5281450e+02   2.2279070e+02
   6.5329660e+02   2.2552440e+02
   6.5377870e+02   2.1883950e+02
   6.5426080e+02   2.2431710e+02
   6.5474290e+02   2.2492050e+02
   6.5522500e+02   2.2532380e+02
   6.5570720e+02   2.3251370e+02
   6.5618930e+02   2.2719850e+02
   6.5667140e+02   2.3428030e+02
   6.5715350e+02   2.3641350e+02
   6.5763560e+02   2.4081160e+02
   6.5811770e+02   2.5244270e+02
   6.5859990e+02   2.5682540e+02
   6.5908200e+02   2.4729160e+02
   6.5956410e+02   2.3858800e+02
   6.6004620e+02   2.3465040e+02
   6.6052830e+02   2.3388810e+02
   6.6101040e+02   2.3491490e+02
   6.6149260e+02   2.3740740e+02
   6.6197470e+02   2.3772340e+02
   6.6245680e+02   2.3138320e+02
   6.6293890e+02   2.2246670e+02
   6.6342100e+02   2.1548870e+02
   6.6390310e+02   2.1114830e+02
   6.6438530e+02   2.0746940e+02
   6.6486740e+02   2.0452430e+02
   6.6534950e+02   2.0215310e+02
   6.6583160e+02   1.9988540e+02
   6.6631370e+02   1.9866880e+02
   6.6679580e+02   1.9695180e+02
   6.6727800e+02   1.9983430e+02
   6.6776010e+02   1.9930750e+02
   6.6824220e+02   1.9585600e+02
   6.6872430e+02   1.8022560e+02
   6.6920640e+02   1.8013640e+02
   6.6968850e+02   1.7393680e+02
   6.7017070e+02   1.6726180e+02
   6.7065280e+02   1.6956480e+02
   6.7113490e+02   1.5609550e+02
   6.7161700e+02   1.5855880e+02
   6.7209910e+02   1.4231230e+02
   6.7258120e+02   1.3202060e+02
   6.7306340e+02   1.2129640e+02
   6.7354550e+02   1.1104720e+02
   6.7402760e+02   1.0403580e+02
   6.7450970e+02   1.0539550e+02
   6.7499180e+02   1.0731920e+02
   6.7547390e+02   1.0375470e+02
   6.7595610e+02   9.4852110e+01
   6.7643820e+02   9.0681950e+01
   6.7692030e+02   9.7133970e+01
   6.7740240e+02   1.0420880e+02
   6.7788450e+02   1.0823850e+02
   6.7836660e+02   1.0949760e+02
   6.7884880e+02   1.0481170e+02
   6.7933090e+02   9.1936830e+01
   6.7981300e+02   7.9200560e+01
   6.8029510e+02   7.3584290e+01
   6.8077720e+02   7.4202090e+01
   6.8125930e+02   7.7012270e+01
   6.8174150e+02   8.2322330e+01
   6.8222360e+02   8.6252320e+01
   6.8270570e+02   8.3328980e+01
   6.8318780e+02   7.6432130e+01
   6.8366990e+02   7.0388490e+01
   6.8415200e+02   6.7502440e+01
   6.8463420e+02   6.4852600e+01
   6.8511630e+02   6.0231260e+01
   6.8559840e+02   5.5084290e+01
   6.8608050e+02   5.2461670e+01
   6.8656260e+02   5.4996280e+01
   6.8704470e+02   5.8232600e+01
   6.8752690e+02   6.2141910e+01
   6.8800900e+02   6.6209230e+01
   6.8849110e+02   6.6245610e+01
   6.8897320e+02   6.1487000e+01
   6.8945530e+02   5.7356750e+01
   6.8993740e+02   5.7821040e+01
   6.9041960e+02   6.1224370e+01
   6.9090170e+02   6.1978940e+01
   6.9138380e+02   6.0104550e+01
   6.9186590e+02   5.7191160e+01
   6.9234800e+02   5.2128850e+01
   6.9283010e+02   4.6967100e+01
   6.9331230e+02   4.3228090e+01
   6.9379440e+02   3.5715640e+01
   6.9427650e+02   4.0881770e+01
   6.9475860e+02   4.3056520e+01
   6.9524070e+02   4.2822690e+01
   6.9572280e+02   3.2954160e+01
   6.9620500e+02   3.5513240e+01
   6.9668710e+02   3.3113890e+01
   6.9716920e+02   3.0460510e+01
   6.9765130e+02   3.4722780e+01
   6.9813340e+02   2.6252500e+01
   6.9861550e+02   3.0401490e+01
   6.9909770e+02   2.9661010e+01
   6.9957980e+02   3.1146910e+01
   7.0006190e+02   2.7593810e+01
   7.0054400e+02   2.5541080e+01
   7.0102610e+02   2.8489260e+01
   7.0150820e+02   2.8665220e+01
   7.0199040e+02   2.4541500e+01
   7.0247250e+02   2.6204280e+01
   7.0295460e+02   1.7567260e+01
   7.0343670e+02   1.7877690e+01
   7.0391880e+02   2.2047970e+01
   7.0440090e+02   1.8895970e+01
   7.0488310e+02   1.9324520e+01
   7.0536520e+02   1.8355650e+01
   7.0584730e+02   1.5812260e+01
   7.0632940e+02   1.4257870e+01
   7.0681150e+02   1.4573580e+01
   7.0729360e+02   1.4751620e+01
   7.0777580e+02   1.3242160e+01
   7.0825790e+02   1.0260220e+01
   7.0874000e+02   7.8015140e+00
   7.0922210e+02   3.8136290e+00
   7.0970420e+02   5.9180600e+00
   7.1018630e+02   1.0958340e+01
   7.1066850e+02   1.1552250e+01
   7.1115060e+02   5.7024230e+00
   7.1163270e+02   6.4850003e-02
   7.1211480e+02   3.3988040e+00
   7.1259690e+02   7.2300720e+00
   7.1307900e+02   1.7731630e+00
   7.1356120e+02   1.2930360e+01
   7.1404330e+02   4.1754150e+00
   7.1452540e+02   4.7542110e+00
   7.1500750e+02   7.1206700e-01
   7.1548960e+02   6.1069030e+00
   7.1597170e+02   8.8874820e+00
   7.1645390e+02   2.3926700e+00
   7.1693600e+02   1.0476380e+00
   7.1741810e+02   7.7925110e+00
   7.1790020e+02   7.9395450e+00
   7.1838230e+02   8.0543210e+00
   7.1886440e+02   1.0800750e+01
   7.1934660e+02   1.3837920e+01
   7.1982870e+02   7.4625550e+00
   7.2031080e+02   3.6328430e+00
   7.2079290e+02   2.2280580e+00
   7.2127500e+02   1.0441770e+01
   7.2175710e+02   6.2568660e+00
   7.2223930e+02   7.0497440e+00
   7.2272140e+02   8.0711360e+00
   7.2320350e+02   2.1954040e+00
   7.2368560e+02   9.0784610e+00
   7.2416770e+02   3.3296510e+00
   7.2464980e+02   2.6349490e+00
   7.2513200e+02   3.6227400e-01
   7.2561410e+02   1.6476140e+00
   7.2609620e+02   2.1195680e+00
   7.2657830e+02   2.4042970e+00
   7.2706040e+02   1.5464480e+00
   7.2754250e+02   3.1031800e+00
   7.2802470e+02   7.1124300e-01
   7.2850680e+02   7.7134090e+00
   7.2898890e+02   5.3019410e+00
   7.2947100e+02   1.2661620e+01
   7.2995310e+02   2.8114810e+01
   7.3043520e+02   2.7140690e+01
   7.3091740e+02   1.7719880e+01
   7.3139950e+02   9.4788210e+00
   7.3188160e+02   2.8951110e+00
   7.3236370e+02   1.0482800e-01
   7.3284580e+02   3.2382510e+00
   7.3332790e+02   9.1201170e+00
   7.3381010e+02   1.1908910e+01
   7.3429220e+02   1.0751370e+01
   7.3477430e+02   1.0784210e+01
   7.3525640e+02   1.4369510e+01
   7.3573850e+02   1.8499850e+01
   7.3622060e+02   1.4296450e+01
   7.3670280e+02   3.5134890e+00
   7.3718490e+02   4.2062680e+00
   7.3766700e+02   1.4334720e+00
   7.3814910e+02   4.3845520e+00
   7.3863120e+02   7.1481020e+00
   7.3911330e+02   7.1746220e+00
   7.3959550e+02   5.8043520e+00
   7.4007760e+02   1.1084900e+00
   7.4055970e+02   2.5902400e+00
   7.4104180e+02   2.3642270e+00
   7.4152390e+02   1.5661010e+00
   7.4200600e+02   1.6475220e+00
   7.4248820e+02   5.0453800e+00
   7.4297030e+02   9.2294010e+00
   7.4345240e+02   3.6166990e+00
   7.4393450e+02   1.0429350e+01
   7.4441660e+02   1.8857910e+01
   7.4489870e+02   2.1592740e+01
   7.4538090e+02   1.9822140e+01
   7.4586300e+02   8.7114870e+00
   7.4634510e+02   3.6697690e+00
   7.4682720e+02   4.4389950e+00
   7.4730930e+02   3.1822810e+00
   7.4779140e+02   1.2001400e+01
   7.4827360e+02   2.0574040e+01
   7.4875570e+02   2.2890440e+01
   7.4923780e+02   2.2799700e-01
   7.4971990e+02   9.8067320e+00
   7.5020200e+02   6.4561160e+00
   7.5068410e+02   2.5699770e+00
   7.5116630e+02   1.6669830e+01
   7.5164840e+02   2.3906560e+00
   7.5213050e+02   1.1409730e+01
   7.5261260e+02   1.2083860e+01
   7.5309470e+02   1.8758060e+01
   7.5357680e+02   1.2423550e+01
   7.5405900e+02   1.0100490e+01
   7.5454110e+02   2.0779850e+01
   7.5502320e+02   2.4251890e+01
   7.5550530e+02   1.6400570e+01
   7.5598740e+02   2.3426610e+01
   7.5646950e+02   3.8575440e+00
   7.5695170e+02   7.6156920e+00
   7.5743380e+02   1.1321560e+01
   7.5791590e+02   2.2629060e+01
   7.5839800e+02   2.7827210e+01
   7.5888010e+02   2.1636380e+01
   7.5936220e+02   9.3334960e+00
   7.5984440e+02   5.1848140e+00
   7.6032650e+02   1.0036620e+01
   7.6080860e+02   1.5134400e+01
   7.6129070e+02   1.7481630e+01
   7.6177280e+02   1.8096800e+01
   7.6225490e+02   1.9696720e+01
   7.6273700e+02   2.1520940e+01
   7.6321910e+02   2.0502620e+01
   7.6370120e+02   9.7928470e+00
   7.6418330e+02   2.2436500e-01
   7.6466550e+02   1.7761000e-02
   7.6514760e+02   8.0652470e+00
   7.6562970e+02   1.5268370e+01
   7.6611180e+02   2.2235050e+01
   7.6659390e+02   2.5484010e+01
   7.6707600e+02   2.2249270e+01
   7.6755820e+02   1.3258670e+01
   7.6804030e+02   8.8340450e+00
   7.6852240e+02   9.6005250e+00
   7.6900450e+02   1.0926330e+01
   7.6948660e+02   9.9085690e+00
   7.6996880e+02   7.5490720e+00
   7.7045090e+02   8.3670650e+00
   7.7093300e+02   1.2845830e+01
   7.7141510e+02   1.4527040e+01
   7.7189720e+02   5.8210450e+00
   7.7237930e+02   2.8041990e+00
   7.7286150e+02   5.6585700e-01
   7.7334360e+02   1.5675290e+01
   7.7382570e+02   2.7226440e+01
   7.7430780e+02   3.0396850e+01
   7.7478990e+02   2.9984680e+01
   7.7527200e+02   2.8308780e+01
   7.7575420e+02   2.6015690e+01
   7.7623630e+02   2.0926390e+01
   7.7671840e+02   1.1994450e+01
   7.7720050e+02   3.6842040e+00
   7.7768260e+02   2.1102910e+00
   7.7816470e+02   4.9962770e+00
   7.7864690e+02   6.2797240e+00
   7.7912900e+02   4.0525510e+00
   7.7961110e+02   3.1172490e+00
   7.8009320e+02   6.2005000e+00
   7.8057530e+02   1.1717040e+01
   7.8105740e+02   1.8758610e+01
   7.8153960e+02   2.9450200e+01
   7.8202170e+02   3.5534180e+01
   7.8250380e+02   3.2599060e+01
   7.8298590e+02   2.7573490e+01
   7.8346800e+02   2.8211120e+01
   7.8395010e+02   3.6052980e+01
   7.8443230e+02   3.9910220e+01
   7.8491440e+02   3.7389220e+01
   7.8539650e+02   3.2170410e+01
   7.8587860e+02   2.7008730e+01
   7.8636070e+02   2.2111330e+01
   7.8684280e+02   1.8948490e+01
   7.8732500e+02   1.7346620e+01
   7.8780710e+02   1.9186890e+01
   7.8828920e+02   2.9339900e+01
   7.8877130e+02   4.2944700e+01
   7.8925340e+02   5.2914000e+01
   7.8973550e+02   5.3742490e+01
   7.9021770e+02   5.5840700e+01
   7.9069980e+02   6.2159060e+01
   7.9118190e+02   6.9333070e+01
   7.9166400e+02   7.0685610e+01
   7.9214610e+02   6.5539180e+01
   7.9262820e+02   6.1233460e+01
   7.9311040e+02   5.8956600e+01
   7.9359250e+02   5.9572690e+01
   7.9407460e+02   6.7510990e+01
   7.9455670e+02   7.9452270e+01
   7.9503880e+02   8.6847530e+01
   7.9552090e+02   8.0341610e+01
   7.9600310e+02   7.5362850e+01
   7.9648520e+02   8.2295720e+01
   7.9696730e+02   9.6376100e+01
   7.9744940e+02   1.0474960e+02
   7.9793150e+02   1.0311840e+02
   7.9841360e+02   9.9536930e+01
   7.9889580e+02   9.4784670e+01
   7.9937790e+02   9.0122680e+01
   7.9986000e+02   8.8839050e+01
   8.0034210e+02   9.0519410e+01
   8.0082420e+02   9.3131710e+01
   8.0130630e+02   9.6197140e+01
   8.0178850e+02   1.0059970e+02
   8.0227060e+02   1.0830620e+02
   8.0275270e+02   1.1792750e+02
   8.0323480e+02   1.2525680e+02
   8.0371690e+02   1.2680980e+02
   8.0419900e+02   1.2643180e+02
   8.0468120e+02   1.2651760e+02
   8.0516330e+02   1.2698820e+02
   8.0564540e+02   1.2633380e+02
   8.0612750e+02   1.2178940e+02
   8.0660960e+02   1.2036050e+02
   8.0709170e+02   1.2481890e+02
   8.0757390e+02   1.3425320e+02
   8.0805600e+02   1.4274840e+02
   8.0853810e+02   1.5021390e+02
   8.0902020e+02   1.5652600e+02
   8.0950230e+02   1.6162540e+02
   8.0998440e+02   1.6512810e+02
   8.1046660e+02   1.6393950e+02
   8.1094870e+02   1.5901460e+02
   8.1143080e+02   1.5500980e+02
   8.1191290e+02   1.5156770e+02
   8.1239500e+02   1.5174580e+02
   8.1287710e+02   1.5884120e+02
   8.1335930e+02   1.7172810e+02
   8.1384140e+02   1.7909560e+02
   8.1432350e+02   1.7979100e+02
   8.1480560e+02   1.7838000e+02
   8.1528770e+02   1.7527280e+02
   8.1576980e+02   1.7196560e+02
   8.1625200e+02   1.7567020e+02
   8.1673410e+02   1.8531020e+02
   8.1721620e+02   1.9204280e+02
   8.1769830e+02   1.8638210e+02
   8.1818040e+02   1.7856990e+02
   8.1866250e+02   1.7705080e+02
   8.1914470e+02   1.8173970e+02
   8.1962680e+02   1.8566110e+02
   8.2010890e+02   1.9003910e+02
   8.2059100e+02   1.9013710e+02
   8.2107310e+02   1.8154740e+02
   8.2155520e+02   1.6541950e+02
   8.2203740e+02   1.6008720e+02
   8.2251950e+02   1.6685430e+02
   8.2300160e+02   1.7630490e+02
   8.2348370e+02   1.8394890e+02
   8.2396580e+02   1.8935300e+02
   8.2444790e+02   1.9161230e+02
   8.2493010e+02   1.9074770e+02
   8.2541220e+02   1.8699370e+02
   8.2589430e+02   1.7550160e+02
   8.2637640e+02   1.6547580e+02
   8.2685850e+02   1.6341880e+02
   8.2734060e+02   1.7024290e+02
   8.2782280e+02   1.7440090e+02
   8.2830490e+02   1.7541210e+02
   8.2878700e+02   1.7446720e+02
   8.2926910e+02   1.7125720e+02
   8.2975120e+02   1.6626650e+02
   8.3023330e+02   1.6449800e+02
   8.3071550e+02   1.6630790e+02
   8.3119760e+02   1.6651090e+02
   8.3167970e+02   1.5140720e+02
   8.3216180e+02   1.5992000e+02
   8.3264390e+02   1.6401680e+02
   8.3312600e+02   1.6391220e+02
   8.3360820e+02   1.4540920e+02
   8.3409030e+02   1.4994480e+02
   8.3457240e+02   1.4524580e+02
   8.3505450e+02   1.4014230e+02
   8.3553660e+02   1.4788980e+02
   8.3601870e+02   1.3197090e+02
   8.3650090e+02   1.3953870e+02
   8.3698300e+02   1.3773290e+02
   8.3746510e+02   1.4021790e+02
   8.3794720e+02   1.3343320e+02
   8.3842930e+02   1.3263100e+02
   8.3891140e+02   1.3416380e+02
   8.3939360e+02   1.3430630e+02
   8.3987570e+02   1.3203500e+02
   8.4035780e+02   1.2801270e+02
   8.4083990e+02   1.2294680e+02
   8.4132200e+02   1.1686080e+02
   8.4180410e+02   1.0743320e+02
   8.4228630e+02   8.9453120e+01
   8.4276840e+02   7.6394040e+01
   8.4325050e+02   7.6607790e+01
   8.4373260e+02   8.7948120e+01
   8.4421470e+02   9.4012700e+01
   8.4469680e+02   9.4746460e+01
   8.4517900e+02   9.0596250e+01
   8.4566110e+02   7.8441650e+01
   8.4614320e+02   6.3653140e+01
   8.4662530e+02   5.0512330e+01
   8.4710740e+02   3.9837460e+01
   8.4758950e+02   3.5744450e+01
   8.4807170e+02   4.6925480e+01
   8.4855380e+02   5.8053890e+01
   8.4903590e+02   6.2848450e+01
   8.4951800e+02   6.1829650e+01
   8.5000010e+02   5.9929690e+01
   8.5048220e+02   5.6914310e+01
   8.5096440e+02   5.4162720e+01
   8.5144650e+02   5.3086980e+01
   8.5192860e+02   5.2447450e+01
   8.5241070e+02   4.7281860e+01
   8.5289280e+02   3.8930480e+01
   8.5337490e+02   3.4090580e+01
   8.5385710e+02   4.3605770e+01
   8.5433920e+02   5.1406250e+01
   8.5482130e+02   4.4188600e+01
   8.5530340e+02   2.4841250e+01
   8.5578550e+02   1.8827210e+01
   8.5626760e+02   3.6612430e+01
   8.5674980e+02   4.9670960e+01
   8.5723190e+02   4.7943300e+01
   8.5771400e+02   3.4991760e+01
   8.5819610e+02   2.3472720e+01
   8.5867820e+02   1.2844790e+01
   8.5916030e+02   9.2248540e+00
   8.5964250e+02   2.2720950e+01
   8.6012460e+02   3.8684570e+01
   8.6060670e+02   3.9764830e+01
   8.6108880e+02   3.0299680e+01
   8.6157090e+02   2.3655520e+01
   8.6205300e+02   2.7389830e+01
   8.6253520e+02   3.0747380e+01
   8.6301730e+02   3.0876590e+01
   8.6349940e+02   2.8548770e+01
   8.6398150e+02   2.6834410e+01
   8.6446360e+02   2.6074950e+01
   8.6494570e+02   2.2802730e+01
   8.6542790e+02   1.4224850e+01
   8.6591000e+02   4.9570920e+00
   8.6639210e+02   1.6235960e+00
   8.6687420e+02   3.7318120e+00
   8.6735630e+02   9.4733890e+00
   8.6783840e+02   2.5014100e+01
   8.6832060e+02   3.6445310e+01
   8.6880270e+02   3.5134030e+01
   8.6928480e+02   2.5954710e+01
   8.6976690e+02   2.0532840e+01
   8.7024900e+02   2.0862490e+01
   8.7073110e+02   1.9919430e+01
   8.7121330e+02   1.5887760e+01
   8.7169540e+02   1.0997190e+01
   8.7217750e+02   9.5405270e+00
   8.7265960e+02   1.0762450e+01
   8.7314170e+02   1.2900820e+01
   8.7362380e+02   1.5840880e+01
   8.7410600e+02   1.8624880e+01
   8.7458810e+02   2.1551450e+01
   8.7507020e+02   2.3487920e+01
   8.7555230e+02   2.2919310e+01
   8.7603440e+02   1.3741940e+01
   8.7651650e+02   1.0003660e+01
   8.7699870e+02   1.4442500e+01
   8.7748080e+02   2.2186100e+01
   8.7796290e+02   2.7032710e+01
   8.7844500e+02   2.9015080e+01
   8.7892710e+02   2.7209660e+01
   8.7940920e+02   2.0473940e+01
   8.7989140e+02   1.4468320e+01
   8.8037350e+02   1.6797490e+01
   8.8085560e+02   2.2634400e+01
   8.8133770e+02   2.5697510e+01
   8.8181980e+02   2.3871700e+01
   8.8230190e+02   2.0788510e+01
   8.8278410e+02   1.3350650e+01
   8.8326620e+02   8.1409300e+00
   8.8374830e+02   1.3048340e+01
   8.8423040e+02   3.0917240e+01
   8.8471250e+02   3.3865230e+01
   8.8519460e+02   1.8226930e+01
   8.8567680e+02   2.5112300e+00
   8.8615880e+02   8.9491580e+00
   8.8664090e+02   2.6206180e+01
   8.8712300e+02   3.6962590e+01
   8.8760520e+02   3.8747500e+01
   8.8808730e+02   3.6681950e+01
   8.8856940e+02   3.2635130e+01
   8.8905150e+02   2.5585270e+01
   8.8953360e+02   1.2265320e+01
   8.9001570e+02   9.8070680e+00
   8.9049790e+02   1.4938420e+01
   8.9098000e+02   7.6898200e-01
   8.9146210e+02   1.8159970e+01
   8.9194420e+02   2.2219670e+01
   8.9242630e+02   1.7863340e+01
   8.9290840e+02   1.7775700e+01
   8.9339060e+02   2.1829160e+01
   8.9387270e+02   2.4557560e+01
   8.9435480e+02   2.2939330e+01
   8.9483690e+02   1.8917540e+01
   8.9531900e+02   1.0701780e+01
   8.9580110e+02   1.0992430e+00
   8.9628330e+02   1.1690060e+00
   8.9676540e+02   1.6721500e+01
   8.9724750e+02   3.1185910e+01
   8.9772960e+02   3.2661440e+01
   8.9821170e+02   2.4308110e+01
   8.9869380e+02   1.2005980e+01
   8.9917600e+02   2.7037960e+00
   8.9965810e+02   1.0872800e+01
   9.0014020e+02   2.0404050e+00
   9.0062230e+02   9.6525880e+00
   9.0110440e+02   1.5514890e+01
   9.0158650e+02   1.6555540e+01
   9.0206870e+02   1.5854130e+01
   9.0255080e+02   1.2823850e+01
   9.0303290e+02   9.5794070e+00
   9.0351500e+02   5.6058960e+00
   9.0399710e+02   2.5314330e+00
   9.0447920e+02   8.0274660e+00
   9.0496140e+02   2.0217770e+01
   9.0544350e+02   2.5853210e+01
   9.0592560e+02   1.7559020e+01
   9.0640770e+02   7.5029910e+00
   9.0688980e+02   6.3154300e+00
   9.0737190e+02   1.0299380e+01
   9.0785410e+02   1.3823300e+01
   9.0833620e+02   1.6421510e+01
   9.0881830e+02   1.7172120e+01
   9.0930040e+02   1.5677490e+01
   9.0978250e+02   1.2758850e+01
   9.1026460e+02   8.7360840e+00
   9.1074680e+02   3.8072510e+00
   9.1122890e+02   1.0855290e+01
   9.1171100e+02   4.4667970e+00
   9.1219310e+02   1.3626650e+01
   9.1267520e+02   1.6101380e+01
   9.1315730e+02   6.5633540e+00
   9.1363950e+02   3.0123290e+00
   9.1412160e+02   3.2318100e-01
   9.1460370e+02   4.1884160e+00
   9.1508580e+02   9.9285280e+00
   9.1556790e+02   9.1097410e+00
   9.1605000e+02   4.9210820e+00
   9.1653220e+02   6.2436520e+00
   9.1701430e+02   1.3410520e+01
   9.1749640e+02   7.1433110e+00
   9.1797850e+02   4.8641970e+00
   9.1846060e+02   1.5586430e+01
   9.1894270e+02   1.9103270e+01
   9.1942490e+02   1.1298770e+01
   9.1990700e+02   1.8377320e+01
   9.2038910e+02   1.0906370e+00
   9.2087120e+02   3.3558960e+00
   9.2135330e+02   1.8124330e+01
   9.2183540e+02   1.1448300e+01
   9.2231760e+02   1.8840760e+01
   9.2279970e+02   2.0659480e+01
   9.2328180e+02   2.5731810e+00
   9.2376390e+02   1.7737370e+01
   9.2424600e+02   1.9232480e+01
   9.2472810e+02   1.3920900e+00
   9.2521030e+02   2.0210080e+01
   9.2569240e+02   5.0109250e+00
   9.2617450e+02   2.1853640e+00
   9.2665660e+02   9.3281860e+00
   9.2713870e+02   6.8349610e+00
   9.2762080e+02   1.8482120e+01
   9.2810300e+02   1.5588130e+01
   9.2858510e+02   1.2158690e+01
   9.2906720e+02   1.5034610e+01
   9.2954930e+02   1.4373170e+00
   9.3003140e+02   1.6564580e+01
   9.3051350e+02   1.1412230e+01
   9.3099570e+02   1.6326110e+01
   9.3147780e+02   2.3521000e+01
   9.3195990e+02   1.3424500e+01
   9.3244200e+02   2.2339290e+01
   9.3292410e+02   1.9121090e+00
   9.3340630e+02   5.4413450e+00
   9.3388840e+02   6.3842770e+00
   9.3437050e+02   2.3291500e+01
   9.3485260e+02   4.2561650e+00
   9.3533470e+02   7.5759280e+00
   9.3581680e+02   2.0305660e+01
   9.3629900e+02   1.8016360e+01
   9.3678110e+02   2.2814150e+01
   9.3726320e+02   2.7766910e+01
   9.3774530e+02   2.6782410e+01
   9.3822740e+02   1.9429990e+01
   9.3870950e+02   1.4198000e+01
   9.3919170e+02   1.4316530e+01
   9.3967380e+02   1.6807500e+01
   9.4015590e+02   2.1091130e+01
   9.4063800e+02   2.6845890e+01
   9.4112010e+02   3.2051570e+01
   9.4160220e+02   3.6762080e+01
   9.4208440e+02   3.8333310e+01
   9.4256650e+02   3.1896000e+01
   9.4304860e+02   2.4465640e+01
   9.4353070e+02   2.6650820e+01
   9.4401280e+02   3.5114140e+01
   9.4449490e+02   4.0675350e+01
   9.4497710e+02   3.7428220e+01
   9.4545920e+02   3.4515440e+01
   9.4594130e+02   3.3844120e+01
   9.4642340e+02   3.4526670e+01
   9.4690550e+02   3.5199520e+01
   9.4738760e+02   3.5882690e+01
   9.4786980e+02   3.5284420e+01
   9.4835190e+02   3.2940670e+01
   9.4883400e+02   1.8507690e+01
   9.4931610e+02   3.3292720e+01
   9.4979820e+02   4.1241820e+01
   9.5028030e+02   4.2720150e+01
   9.5076250e+02   1.9222530e+01
   9.5124460e+02   2.7971800e+01
   9.5172670e+02   2.3905640e+01
   9.5220880e+02   1.9431210e+01
   9.5269090e+02   3.2868530e+01
   9.5317300e+02   1.3087950e+01
   9.5365520e+02   2.6106810e+01
   9.5413730e+02   2.5963750e+01
   9.5461940e+02   3.1836730e+01
   9.5510150e+02   2.4704160e+01
   9.5558360e+02   2.1585880e+01
   9.5606570e+02   3.1473390e+01
   9.5654790e+02   3.4156430e+01
   9.5703000e+02   2.5463870e+01
   9.5751210e+02   3.1297060e+01
   9.5799420e+02   1.0909120e+01
   9.5847630e+02   1.3890750e+01
   9.5895840e+02   2.6937680e+01
   9.5944060e+02   1.8943790e+01
   9.5992270e+02   2.5414180e+01
   9.6040480e+02   2.6372990e+01
   9.6088690e+02   2.2911990e+00
   9.6136900e+02   1.6173030e+01
   9.6185110e+02   1.6345210e+01
   9.6233330e+02   1.4765010e+01
   9.6281540e+02   1.4262760e+01
   9.6329750e+02   1.7323730e+01
   9.6377960e+02   1.7785160e+01
   9.6426170e+02   1.4382750e+01
   9.6474380e+02   9.6892090e+00
   9.6522600e+02   6.7509770e+00
   9.6570810e+02   5.4497070e+00
   9.6619020e+02   5.4265140e+00
   9.6667230e+02   6.6238400e+00
   9.6715440e+02   9.2171630e+00
   9.6763650e+02   1.7919070e+01
   9.6811870e+02   2.4850040e+01
   9.6860080e+02   2.0865970e+01
   9.6908290e+02   2.0330200e+00
   9.6956500e+02   5.3438720e+00
   9.7004710e+02   1.7403560e+00
   9.7052920e+02   9.9149170e+00
   9.7101140e+02   1.0977360e+01
   9.7149350e+02   7.8623660e+00
   9.7197560e+02   7.7194210e+00
   9.7245770e+02   9.5468750e+00
   9.7293980e+02   9.4647830e+00
   9.7342190e+02   1.7492700e-01
   9.7390410e+02   6.5236820e+00
   9.7438620e+02   4.0162960e+00
   9.7486830e+02   4.2885130e+00
   9.7535040e+02   9.3666990e+00
   9.7583250e+02   1.0705570e+01
   9.7631460e+02   1.1295230e+01
   9.7679680e+02   1.2118960e+01
   9.7727890e+02   1.1404050e+01
   9.7776100e+02   3.5509030e+00
   9.7824310e+02   7.0200810e+00
   9.7872520e+02   1.1145940e+01
   9.7920730e+02   4.7570190e+00
   9.7968950e+02   2.0469970e+00
   9.8017160e+02   7.0897830e+00
   9.8065370e+02   9.9397580e+00
   9.8113580e+02   9.4072880e+00
   9.8161790e+02   5.2877200e+00
   9.8210000e+02   4.9251100e+00
   9.8258220e+02   8.8132320e+00
   9.8306430e+02   1.0184390e+01
   9.8354640e+02   1.5155030e+00
   9.8402850e+02   1.4976680e+01
   9.8451060e+02   1.3281010e+01
   9.8499270e+02   9.6313500e-01
   9.8547490e+02   7.8635250e+00
   9.8595700e+02   1.0484070e+01
   9.8643910e+02   2.1185550e+01
   9.8692120e+02   1.3474180e+01
   9.8740330e+02   4.6234740e+00
   9.8788540e+02   1.3814030e+01
   9.8836760e+02   1.4499210e+01
   9.8884970e+02   1.0129580e+01
   9.8933180e+02   1.5712280e+00
   9.8981390e+02   1.0101200e+01
   9.9029600e+02   9.7204600e-01
   9.9077810e+02   1.7507390e+01
   9.9126030e+02   2.0179630e+01
   9.9174240e+02   9.3676760e+00
   9.9222450e+02   2.0298710e+01
   9.9270660e+02   7.0671390e+00
   9.9318870e+02   1.2943970e+01
   9.9367080e+02   2.8105960e+01
   9.9415300e+02   3.7164550e+01
   9.9463510e+02   3.2336790e+01
   9.9511720e+02   1.4423650e+01
   9.9559930e+02   3.4600800e-01
   9.9608140e+02   8.2886003e-02
   9.9656350e+02   4.6205440e+00
   9.9704570e+02   8.0262450e+00
   9.9752780e+02   1.0113400e+01
   9.9800990e+02   1.0844060e+01
   9.9849200e+02   9.8790280e+00
   9.9897410e+02   9.0623780e+00
   9.9945620e+02   8.6423950e+00
   9.9993840e+02   9.2479250e+00
   1.0004200e+03   1.3741330e+01
   1.0009030e+03   1.9700070e+01
   1.0013850e+03   2.2004700e+01
   1.0018670e+03   1.5012270e+01
   1.0023490e+03   1.1068790e+01
   1.0028310e+03   1.7432250e+01
   1.0033130e+03   2.4306270e+01
   1.0037950e+03   2.1452450e+01
   1.0042770e+03   8.3312990e+00
   1.0047600e+03   2.2888180e+00
   1.0052420e+03   4.3494260e+00
   1.0057240e+03   6.4860840e+00
   1.0062060e+03   1.6223140e+00
   1.0066880e+03   9.9586790e+00
   1.0071700e+03   5.7940670e+00
   1.0076520e+03   1.0471740e+01
   1.0081340e+03   1.7138000e+01
   1.0086160e+03   6.2164310e+00
   1.0090990e+03   3.5205080e+00
   1.0095810e+03   6.5866090e+00
   1.0100630e+03   4.8654170e+00
   1.0105450e+03   3.2330930e+00
   1.0110270e+03   1.1494750e+00
   1.0115090e+03   3.8339230e+00
   1.0119910e+03   1.4807310e+01
   1.0124730e+03   2.4508730e+01
   1.0129550e+03   2.7122380e+01
   1.0134380e+03   2.7159910e+01
   1.0139200e+03   3.0808470e+01
   1.0144020e+03   4.1259460e+01
   1.0148840e+03   4.3078610e+01
   1.0153660e+03   3.3947020e+01
   1.0158480e+03   2.6151000e+01
   1.0163300e+03   3.3810610e+01
   1.0168120e+03   4.8547360e+01
   1.0172940e+03   5.6278080e+01
   1.0177770e+03   5.6959900e+01
   1.0182590e+03   5.7617310e+01
   1.0187410e+03   6.5485720e+01
   1.0192230e+03   6.7506470e+01
   1.0197050e+03   5.4540530e+01
   1.0201870e+03   3.4704280e+01
   1.0206690e+03   3.5908870e+01
   1.0211510e+03   5.6650390e+01
   1.0216340e+03   7.5761410e+01
   1.0221160e+03   8.7637700e+01
   1.0225980e+03   9.3592900e+01
   1.0230800e+03   8.9078550e+01
   1.0235620e+03   8.1959780e+01
   1.0240440e+03   8.2718320e+01
   1.0245260e+03   9.8928650e+01
   1.0250080e+03   1.0927140e+02
   1.0254900e+03   1.1221420e+02
   1.0259730e+03   1.1344020e+02
   1.0264550e+03   1.1675430e+02
   1.0269370e+03   1.2186110e+02
   1.0274190e+03   1.3033390e+02
   1.0279010e+03   1.4211520e+02
   1.0283830e+03   1.4888790e+02
   1.0288650e+03   1.4030160e+02
   1.0293470e+03   1.3252800e+02
   1.0298300e+03   1.3445260e+02
   1.0303120e+03   1.4190840e+02
   1.0307940e+03   1.4383640e+02
   1.0312760e+03   1.3933000e+02
   1.0317580e+03   1.3906790e+02
   1.0322400e+03   1.4684270e+02
   1.0327220e+03   1.5806690e+02
   1.0332040e+03   1.7081150e+02
   1.0336870e+03   1.8132130e+02
   1.0341690e+03   1.8318570e+02
   1.0346510e+03   1.6949750e+02
   1.0351330e+03   1.6713010e+02
   1.0356150e+03   1.8550900e+02
   1.0360970e+03   2.0122060e+02
   1.0365790e+03   1.9663540e+02
   1.0370610e+03   1.7869280e+02
   1.0375430e+03   1.7906750e+02
   1.0380260e+03   1.9469040e+02
   1.0385080e+03   2.0921150e+02
   1.0389900e+03   2.1767460e+02
   1.0394720e+03   2.1863740e+02
   1.0399540e+03   2.0267370e+02
   1.0404360e+03   1.8140400e+02
   1.0409180e+03   1.7972030e+02
   1.0414000e+03   2.0197500e+02
   1.0418820e+03   2.1838510e+02
   1.0423650e+03   2.2589530e+02
   1.0428470e+03   2.2881440e+02
   1.0433290e+03   2.2735580e+02
   1.0438110e+03   2.2381540e+02
   1.0442930e+03   2.2406750e+02
   1.0447750e+03   2.3125340e+02
   1.0452570e+03   2.3173880e+02
   1.0457390e+03   2.1527920e+02
   1.0462220e+03   2.0123180e+02
   1.0467040e+03   1.9873960e+02
   1.0471860e+03   2.0466410e+02
   1.0476680e+03   2.0906870e+02
   1.0481500e+03   2.1284560e+02
   1.0486320e+03   2.1368070e+02
   1.0491140e+03   2.0855190e+02
   1.0495960e+03   2.0249010e+02
   1.0500780e+03   1.9674410e+02
   1.0505610e+03   1.9440490e+02
   1.0510430e+03   1.9780900e+02
   1.0515250e+03   2.0893470e+02
   1.0520070e+03   2.1516050e+02
   1.0524890e+03   2.1566500e+02
   1.0529710e+03   2.1224190e+02
   1.0534530e+03   2.0137630e+02
   1.0539350e+03   1.9047170e+02
   1.0544170e+03   1.9265530e+02
   1.0549000e+03   2.0707180e+02
   1.0553820e+03   2.1511730e+02
   1.0558640e+03   2.0690020e+02
   1.0563460e+03   1.9859940e+02
   1.0568280e+03   1.9510760e+02
   1.0573100e+03   1.9322660e+02
   1.0577920e+03   1.8154790e+02
   1.0582740e+03   1.6394160e+02
   1.0587570e+03   1.5705260e+02
   1.0592390e+03   1.6829710e+02
   1.0597210e+03   1.8314220e+02
   1.0602030e+03   1.9837190e+02
   1.0606850e+03   2.0922010e+02
   1.0611670e+03   2.1010380e+02
   1.0616490e+03   1.9888210e+02
   1.0621310e+03   1.9452060e+02
   1.0626140e+03   1.9763790e+02
   1.0630960e+03   2.0074000e+02
   1.0635780e+03   1.9631070e+02
   1.0640600e+03   1.9076400e+02
   1.0645420e+03   1.9365800e+02
   1.0650240e+03   2.0275900e+02
   1.0655060e+03   2.0904710e+02
   1.0659880e+03   2.0936130e+02
   1.0664700e+03   2.0741630e+02
   1.0669530e+03   2.0356430e+02
   1.0674350e+03   1.9730600e+02
   1.0679170e+03   1.8558420e+02
   1.0683990e+03   1.7108700e+02
   1.0688810e+03   1.6363350e+02
   1.0693630e+03   1.6469220e+02
   1.0698450e+03   1.6812460e+02
   1.0703270e+03   1.7204700e+02
   1.0708090e+03   1.7585160e+02
   1.0712920e+03   1.7933000e+02
   1.0717740e+03   1.8237040e+02
   1.0722560e+03   1.8518900e+02
   1.0727380e+03   1.8782880e+02
   1.0732200e+03   1.8660160e+02
   1.0737020e+03   1.7829640e+02
   1.0741840e+03   1.6897440e+02
   1.0746660e+03   1.6531460e+02
   1.0751480e+03   1.6464060e+02
   1.0756310e+03   1.6324980e+02
   1.0761130e+03   1.5870940e+02
   1.0765950e+03   1.5769990e+02
   1.0770770e+03   1.6175820e+02
   1.0775590e+03   1.6536190e+02
   1.0780410e+03   1.6289760e+02
   1.0785230e+03   1.5698490e+02
   1.0790050e+03   1.5083450e+02
   1.0794880e+03   1.4579850e+02
   1.0799700e+03   1.4843210e+02
   1.0804520e+03   1.7635510e+02
   1.0809340e+03   1.9306650e+02
   1.0814160e+03   1.8431120e+02
   1.0818980e+03   1.6331740e+02
   1.0823800e+03   1.5290810e+02
   1.0828620e+03   1.5228630e+02
   1.0833440e+03   1.5387260e+02
   1.0838270e+03   1.5650870e+02
   1.0843090e+03   1.6047490e+02
   1.0847910e+03   1.6828640e+02
   1.0852730e+03   1.7571950e+02
   1.0857550e+03   1.7839700e+02
   1.0862370e+03   1.7639470e+02
   1.0867190e+03   1.7848030e+02
   1.0872010e+03   1.8645530e+02
   1.0876830e+03   1.8633470e+02
   1.0881660e+03   1.6725070e+02
   1.0886480e+03   1.4504160e+02
   1.0891300e+03   1.4272870e+02
   1.0896120e+03   1.5332540e+02
   1.0900940e+03   1.6613160e+02
   1.0905760e+03   1.8504430e+02
   1.0910580e+03   1.9191800e+02
   1.0915400e+03   1.8188020e+02
   1.0920230e+03   1.6804390e+02
   1.0925050e+03   1.5798830e+02
   1.0929870e+03   1.5304690e+02
   1.0934690e+03   1.6279220e+02
   1.0939510e+03   1.8374470e+02
   1.0944330e+03   1.9776180e+02
   1.0949150e+03   1.8629170e+02
   1.0953970e+03   1.7652970e+02
   1.0958800e+03   1.8118130e+02
   1.0963620e+03   1.9389510e+02
   1.0968440e+03   2.0396720e+02
   1.0973260e+03   2.0977950e+02
   1.0978080e+03   2.0514200e+02
   1.0982900e+03   1.8795680e+02
   1.0987720e+03   1.7422790e+02
   1.0992540e+03   1.8319480e+02
   1.0997360e+03   1.9699850e+02
   1.1002190e+03   1.9931190e+02
   1.1007010e+03   1.8932860e+02
   1.1011830e+03   1.8697080e+02
   1.1016650e+03   1.9438340e+02
   1.1021470e+03   2.0100460e+02
   1.1026290e+03   2.0027000e+02
   1.1031110e+03   1.9784270e+02
   1.1035930e+03   2.0387130e+02
   1.1040750e+03   2.1259830e+02
   1.1045580e+03   2.1372510e+02
   1.1050400e+03   1.9992130e+02
   1.1055220e+03   1.8911650e+02
   1.1060040e+03   1.8303420e+02
   1.1064860e+03   1.7990140e+02
   1.1069680e+03   1.7853570e+02
   1.1074500e+03   1.7844260e+02
   1.1079320e+03   1.7964030e+02
   1.1084150e+03   1.8171750e+02
   1.1088970e+03   1.8207460e+02
   1.1093790e+03   1.7844580e+02
   1.1098610e+03   1.7379430e+02
   1.1103430e+03   1.6760750e+02
   1.1108250e+03   1.6217280e+02
   1.1113070e+03   1.6141890e+02
   1.1117890e+03   1.6521000e+02
   1.1122710e+03   1.6714310e+02
   1.1127540e+03   1.6545520e+02
   1.1132360e+03   1.6166230e+02
   1.1137180e+03   1.5249950e+02
   1.1142000e+03   1.4549810e+02
   1.1146820e+03   1.4858920e+02
   1.1151640e+03   1.5934490e+02
   1.1156460e+03   1.6419600e+02
   1.1161280e+03   1.6275470e+02
   1.1166100e+03   1.5757410e+02
   1.1170930e+03   1.4812880e+02
   1.1175750e+03   1.3824050e+02
   1.1180570e+03   1.3128030e+02
   1.1185390e+03   1.2717770e+02
   1.1190210e+03   1.1665880e+02
   1.1195030e+03   1.2506090e+02
   1.1199850e+03   1.2875600e+02
   1.1204670e+03   1.2802840e+02
   1.1209500e+03   1.0947560e+02
   1.1214320e+03   1.1389530e+02
   1.1219140e+03   1.0902820e+02
   1.1223960e+03   1.0205220e+02
   1.1228780e+03   1.0412850e+02
   1.1233600e+03   1.0622030e+02
   1.1238420e+03   1.0606680e+02
   1.1243240e+03   1.0214020e+02
   1.1248070e+03   9.0794980e+01
   1.1252890e+03   8.0725280e+01
   1.1257710e+03   8.2052800e+01
   1.1262530e+03   9.1701780e+01
   1.1267350e+03   9.0654660e+01
   1.1272170e+03   8.0170170e+01
   1.1276990e+03   7.3826780e+01
   1.1281810e+03   8.5520080e+01
   1.1286630e+03   9.6017460e+01
   1.1291460e+03   9.5640560e+01
   1.1296280e+03   8.9450260e+01
   1.1301100e+03   8.6133730e+01
   1.1305920e+03   8.5548220e+01
   1.1310740e+03   7.7370360e+01
   1.1315560e+03   5.9578800e+01
   1.1320380e+03   4.4839780e+01
   1.1325200e+03   4.5680970e+01
   1.1330020e+03   3.2468140e+01
   1.1334850e+03   4.1663270e+01
   1.1339670e+03   4.6040710e+01
   1.1344490e+03   4.5837520e+01
   1.1349310e+03   2.7788880e+01
   1.1354130e+03   3.2766720e+01
   1.1358950e+03   2.8581240e+01
   1.1363770e+03   2.4076350e+01
   1.1368590e+03   3.2401980e+01
   1.1373420e+03   1.7010070e+01
   1.1378240e+03   2.5096860e+01
   1.1383060e+03   2.3811580e+01
   1.1387880e+03   2.6787110e+01
   1.1392700e+03   2.0430970e+01
   1.1397520e+03   1.6944760e+01
   1.1402340e+03   2.2786990e+01
   1.1407160e+03   2.3472960e+01
   1.1411980e+03   1.6000550e+01
   1.1416810e+03   1.9093690e+01
   1.1421630e+03   2.4549870e+01
   1.1426450e+03   2.7776490e+01
   1.1431270e+03   2.6194760e+01
   1.1436090e+03   1.6354370e+01
   1.1440910e+03   7.8927610e+00
   1.1445730e+03   1.3092290e+01
   1.1450550e+03   2.5409060e+01
   1.1455370e+03   2.0085570e+01
   1.1460200e+03   3.9874300e-01
   1.1465020e+03   1.4890750e+01
   1.1469840e+03   1.7135680e+01
   1.1474660e+03   1.3329900e+01
   1.1479480e+03   2.3194580e+00
   1.1484300e+03   1.0082150e+01
   1.1489120e+03   1.7018310e+01
   1.1493940e+03   1.8440550e+01
   1.1498770e+03   1.2512450e+01
   1.1503590e+03   6.9567900e-01
   1.1508410e+03   1.1347170e+01
   1.1513230e+03   1.1874450e+01
   1.1518050e+03   9.5300290e+00
   1.1522870e+03   5.8198240e+00
   1.1527690e+03   2.8294680e+00
   1.1532510e+03   9.8968510e+00
   1.1537340e+03   2.6388240e+01
   1.1542160e+03   2.7433900e+01
   1.1546980e+03   5.0061040e+00
   1.1551800e+03   1.8371220e+01
   1.1556620e+03   2.3114990e+01
   1.1561440e+03   2.2182250e+01
   1.1566260e+03   2.9270510e+01
   1.1571080e+03   4.2973020e+01
   1.1575900e+03   3.8996830e+01
   1.1580730e+03   1.6080440e+01
   1.1585550e+03   5.6821290e+00
   1.1590370e+03   2.2215820e+01
   1.1595190e+03   2.7527830e+01
   1.1600010e+03   2.4278560e+00
   1.1604830e+03   3.0754880e+01
   1.1609650e+03   4.1595950e+01
   1.1614470e+03   2.0974370e+01
   1.1619290e+03   1.4606320e+01
   1.1624120e+03   2.5732540e+01
   1.1628940e+03   3.2925050e+01
   1.1633760e+03   1.9745240e+01
   1.1638580e+03   1.7275390e+00
   1.1643400e+03   1.3771970e+00
   1.1648220e+03   1.1171020e+01
   1.1653040e+03   1.5958500e+01
   1.1657860e+03   6.8854980e+00
   1.1662690e+03   4.7589110e+00
   1.1667510e+03   1.1393190e+01
   1.1672330e+03   2.0605220e+01
   1.1677150e+03   3.2294310e+01
   1.1681970e+03   4.0711670e+01
   1.1686790e+03   3.0895510e+01
   1.1691610e+03   8.5440670e+00
   1.1696430e+03   5.3917240e+00
   1.1701250e+03   1.8162840e+00
   1.1706080e+03   7.9538570e+00
   1.1710900e+03   1.0193360e+01
   1.1715720e+03   1.1982180e+01
   1.1720540e+03   1.9369020e+01
   1.1725360e+03   2.9043460e+01
   1.1730180e+03   3.1390260e+01
   1.1735000e+03   2.6808350e+01
   1.1739820e+03   2.8971560e+01
   1.1744640e+03   5.3191410e+01
   1.1749470e+03   7.0666260e+01
   1.1754290e+03   7.3296260e+01
   1.1759110e+03   6.7954710e+01
   1.1763930e+03   6.6524660e+01
   1.1768750e+03   6.7045780e+01
   1.1773570e+03   6.2320560e+01
   1.1778390e+03   5.0353520e+01
   1.1783210e+03   4.4341670e+01
   1.1788040e+03   5.7989870e+01
   1.1792860e+03   6.9401370e+01
   1.1797680e+03   6.9436770e+01
   1.1802500e+03   6.1968260e+01
   1.1807320e+03   5.6082520e+01
   1.1812140e+03   5.1945070e+01
   1.1816960e+03   5.0172730e+01
   1.1821780e+03   5.1176390e+01
   1.1826610e+03   5.3699710e+01
   1.1831430e+03   5.9040650e+01
   1.1836250e+03   6.3755000e+01
   1.1841070e+03   6.6018070e+01
   1.1845890e+03   6.5662350e+01
   1.1850710e+03   6.4656740e+01
   1.1855530e+03   6.2830200e+01
   1.1860350e+03   5.8886600e+01
   1.1865170e+03   5.0375490e+01
   1.1870000e+03   4.3275150e+01
   1.1874820e+03   4.1397710e+01
   1.1879640e+03   4.1484620e+01
   1.1884460e+03   4.3912840e+01
   1.1889280e+03   4.6671390e+01
   1.1894100e+03   3.9372440e+01
   1.1898920e+03   2.3937260e+01
   1.1903740e+03   1.7442260e+01
   1.1908560e+03   3.4619380e+01
   1.1913390e+03   5.6886110e+01
   1.1918210e+03   8.5349000e+01
   1.1923030e+03   1.0670720e+02
   1.1927850e+03   1.0082900e+02
   1.1932670e+03   6.6541750e+01
   1.1937490e+03   5.0769900e+01
   1.1942310e+03   5.4405520e+01
   1.1947130e+03   6.0884030e+01
   1.1951950e+03   5.9353760e+01
   1.1956780e+03   5.7554570e+01
   1.1961600e+03   6.0335690e+01
   1.1966420e+03   6.3515500e+01
   1.1971240e+03   6.0883420e+01
   1.1976060e+03   5.0004270e+01
   1.1980880e+03   5.0076780e+01
   1.1985700e+03   6.1479250e+01
   1.1990520e+03   7.0977290e+01
   1.1995350e+03   6.0035520e+01
   1.2000170e+03   4.4974490e+01
   1.2004990e+03   4.9218020e+01
   1.2009810e+03   6.3746580e+01
   1.2014630e+03   7.2816410e+01
   1.2019450e+03   7.6136470e+01
   1.2024270e+03   7.2078490e+01
   1.2029090e+03   6.3510380e+01
   1.2033910e+03   5.7712040e+01
   1.2038740e+03   5.5963010e+01
   1.2043560e+03   5.2889160e+01
   1.2048380e+03   3.9329830e+01
   1.2053200e+03   1.9711300e+01
   1.2058020e+03   1.2260990e+01
   1.2062840e+03   1.7031370e+01
   1.2067660e+03   2.5314330e+01
   1.2072480e+03   3.5903200e+01
   1.2077300e+03   4.1041990e+01
   1.2082130e+03   3.2525630e+01
   1.2086950e+03   2.2466190e+01
   1.2091770e+03   2.4972170e+01
   1.2096590e+03   3.7369260e+01
   1.2101410e+03   3.4039430e+01
   1.2106230e+03   1.4091310e+01
   1.2111050e+03   9.9028320e+00
   1.2115870e+03   3.7844600e+01
   1.2120700e+03   6.6005130e+01
   1.2125520e+03   6.2774170e+01
   1.2130340e+03   4.6848140e+01
   1.2135160e+03   3.3958860e+01
   1.2139980e+03   2.4977420e+01
   1.2144800e+03   2.7829710e+01
   1.2149620e+03   4.3278690e+01
   1.2154440e+03   4.9311280e+01
   1.2159270e+03   3.1610470e+01
   1.2164090e+03   1.1756230e+01
   1.2168910e+03   9.6319580e+00
   1.2173730e+03   1.5685910e+01
   1.2178550e+03   1.9961910e+01
   1.2183370e+03   2.2521480e+01
   1.2188190e+03   1.6477420e+01
   1.2193010e+03   7.2180200e-01
   1.2197830e+03   7.9570310e+00
   1.2202660e+03   3.4766850e+00
   1.2207480e+03   2.0448000e+01
   1.2212300e+03   3.6669800e+01
   1.2217120e+03   4.7949710e+01
   1.2221940e+03   4.8005130e+01
   1.2226760e+03   3.4314330e+01
   1.2231580e+03   3.2913700e+01
   1.2236400e+03   4.4622920e+01
   1.2241220e+03   4.9001100e+01
   1.2246050e+03   2.1071780e+01
   1.2250870e+03   6.3400880e+00
   1.2255690e+03   8.3413090e+00
   1.2260510e+03   4.9721680e+00
   1.2265330e+03   2.0208980e+01
   1.2270150e+03   3.8304930e+01
   1.2274970e+03   4.0967040e+01
   1.2279790e+03   2.8489260e+01
   1.2284620e+03   1.6745730e+01
   1.2289440e+03   2.4457030e+01
   1.2294260e+03   3.3883790e+01
   1.2299080e+03   3.2278080e+01
   1.2303900e+03   2.5467160e+01
   1.2308720e+03   2.1158080e+01
   1.2313540e+03   1.7358890e+01
   1.2318360e+03   2.1759640e+01
   1.2323180e+03   3.4275390e+01
   1.2328010e+03   4.0077390e+01
   1.2332830e+03   3.8899900e+01
   1.2337650e+03   3.9909670e+01
   1.2342470e+03   5.3682740e+01
   1.2347290e+03   6.9735720e+01
   1.2352110e+03   6.6735470e+01
   1.2356930e+03   3.4463500e+01
   1.2361750e+03   1.9140500e+01
   1.2366570e+03   1.7403560e+01
   1.2371400e+03   1.9346800e+01
   1.2376220e+03   2.5985840e+01
   1.2381040e+03   3.1637700e+01
   1.2385860e+03   3.1937990e+01
   1.2390680e+03   3.0605220e+01
   1.2395500e+03   3.3099850e+01
   1.2400320e+03   3.7417360e+01
   1.2405140e+03   3.0529790e+01
   1.2409970e+03   1.0969730e+01
   1.2414790e+03   1.6732180e+00
   1.2419610e+03   1.9059570e+01
   1.2424430e+03   3.9398070e+01
   1.2429250e+03   4.0608640e+01
   1.2434070e+03   3.0212650e+01
   1.2438890e+03   1.9322140e+01
   1.2443710e+03   1.9083980e+01
   1.2448540e+03   1.2445800e+01
   1.2453360e+03   0.0000000e+00
   1.5000000e+03   0.0000000e+00
