   1.0000000e+02   0.0000000e+00
   1.2027400e+02   0.0000000e+00
   1.2075600e+02   1.9734000e+01
   1.2123800e+02   7.9289000e+01
   1.2172000e+02   1.6370400e+02
   1.2220200e+02   2.6355300e+02
   1.2268400e+02   3.9559700e+02
   1.2316600e+02   5.2771300e+02
   1.2364800e+02   6.4355200e+02
   1.2413100e+02   7.4001500e+02
   1.2461300e+02   7.8943800e+02
   1.2509500e+02   7.9568900e+02
   1.2557700e+02   7.0544400e+02
   1.2605900e+02   5.8993700e+02
   1.2654100e+02   4.6884400e+02
   1.2702300e+02   3.5050700e+02
   1.2750500e+02   2.4218800e+02
   1.2798800e+02   1.4484800e+02
   1.2847000e+02   6.4965000e+01
   1.2895200e+02   7.7020000e+00
   1.2943400e+02   2.7375000e+01
   1.2991600e+02   4.0405000e+01
   1.3039800e+02   2.1262000e+01
   1.3088000e+02   1.6462000e+01
   1.3136200e+02   4.1812000e+01
   1.3184400e+02   5.4134000e+01
   1.3232700e+02   5.7971000e+01
   1.3280900e+02   5.4587000e+01
   1.3329100e+02   4.4875000e+01
   1.3377300e+02   3.8137000e+01
   1.3425500e+02   3.7882000e+01
   1.3473700e+02   4.3084000e+01
   1.3521900e+02   4.7753000e+01
   1.3570100e+02   5.0844000e+01
   1.3618400e+02   5.7380000e+01
   1.3666600e+02   7.3918000e+01
   1.3714800e+02   1.0108200e+02
   1.3763000e+02   1.3202300e+02
   1.3811200e+02   1.6388500e+02
   1.3859400e+02   1.9699500e+02
   1.3907600e+02   2.3455200e+02
   1.3955800e+02   2.7460900e+02
   1.4004000e+02   3.2190600e+02
   1.4052300e+02   3.7783200e+02
   1.4100500e+02   4.3642200e+02
   1.4148700e+02   5.2328600e+02
   1.4196900e+02   6.4856400e+02
   1.4245100e+02   8.1555100e+02
   1.4293300e+02   9.9673900e+02
   1.4341500e+02   1.2193950e+03
   1.4389700e+02   1.4286490e+03
   1.4438000e+02   1.5501450e+03
   1.4486200e+02   1.5776680e+03
   1.4534400e+02   1.5266210e+03
   1.4582600e+02   1.3830010e+03
   1.4630800e+02   1.1254240e+03
   1.4679000e+02   8.9212200e+02
   1.4727200e+02   6.8166600e+02
   1.4775400e+02   4.9749300e+02
   1.4823600e+02   3.4681800e+02
   1.4871900e+02   2.3400300e+02
   1.4920100e+02   1.5137700e+02
   1.4968300e+02   1.0407600e+02
   1.5016500e+02   1.0388500e+02
   1.5064700e+02   9.6816000e+01
   1.5112900e+02   7.4691000e+01
   1.5161100e+02   4.8208000e+01
   1.5209300e+02   3.0905000e+01
   1.5257500e+02   2.0244000e+01
   1.5305800e+02   2.1404000e+01
   1.5354000e+02   3.8430000e+01
   1.5402200e+02   7.6042000e+01
   1.5450400e+02   1.1173300e+02
   1.5498600e+02   1.3960600e+02
   1.5546800e+02   1.6550600e+02
   1.5595000e+02   1.9657700e+02
   1.5643200e+02   2.1701900e+02
   1.5691500e+02   2.5817300e+02
   1.5739700e+02   3.3569100e+02
   1.5787900e+02   4.5837600e+02
   1.5836100e+02   5.8175000e+02
   1.5884300e+02   6.8110500e+02
   1.5932500e+02   7.8041100e+02
   1.5980700e+02   9.1135300e+02
   1.6028900e+02   1.0967480e+03
   1.6077100e+02   1.3038700e+03
   1.6125400e+02   1.5136080e+03
   1.6173600e+02   1.7174890e+03
   1.6221800e+02   1.9615790e+03
   1.6270000e+02   2.2660090e+03
   1.6318200e+02   2.6218500e+03
   1.6366400e+02   3.0180420e+03
   1.6414600e+02   3.4277260e+03
   1.6462800e+02   3.8954590e+03
   1.6511100e+02   4.4677770e+03
   1.6559300e+02   5.1679730e+03
   1.6607500e+02   5.8508480e+03
   1.6655700e+02   6.4759850e+03
   1.6703900e+02   7.0360090e+03
   1.6752100e+02   7.5148310e+03
   1.6800300e+02   7.8525740e+03
   1.6848500e+02   8.1407800e+03
   1.6896700e+02   8.4970210e+03
   1.6944900e+02   8.9567020e+03
   1.6993200e+02   9.2389100e+03
   1.7041400e+02   9.2038590e+03
   1.7089600e+02   8.8634120e+03
   1.7137800e+02   8.2378520e+03
   1.7186000e+02   7.1094360e+03
   1.7234200e+02   5.8120950e+03
   1.7282400e+02   4.6597700e+03
   1.7330700e+02   3.6555800e+03
   1.7378900e+02   2.8151870e+03
   1.7427100e+02   2.1758800e+03
   1.7475300e+02   1.7085080e+03
   1.7523500e+02   1.3607110e+03
   1.7571700e+02   1.1472220e+03
   1.7619900e+02   1.0185640e+03
   1.7668100e+02   9.1686800e+02
   1.7716300e+02   8.4145800e+02
   1.7764500e+02   7.9482700e+02
   1.7812800e+02   7.9191700e+02
   1.7861000e+02   8.2208700e+02
   1.7909200e+02   8.5542200e+02
   1.7957400e+02   8.6711700e+02
   1.8005600e+02   8.7667000e+02
   1.8053800e+02   9.1600200e+02
   1.8102000e+02   9.8597700e+02
   1.8150300e+02   1.0813070e+03
   1.8198500e+02   1.1940690e+03
   1.8246700e+02   1.3269200e+03
   1.8294900e+02   1.4937970e+03
   1.8343100e+02   1.7310010e+03
   1.8391300e+02   2.0006170e+03
   1.8439500e+02   2.2330400e+03
   1.8487700e+02   2.4299320e+03
   1.8535900e+02   2.5541360e+03
   1.8584200e+02   2.5447710e+03
   1.8632400e+02   2.4165190e+03
   1.8680600e+02   2.2370320e+03
   1.8728800e+02   1.9974080e+03
   1.8777000e+02   1.7278900e+03
   1.8825200e+02   1.5214560e+03
   1.8873400e+02   1.3778190e+03
   1.8921600e+02   1.2851060e+03
   1.8969800e+02   1.2326710e+03
   1.9018100e+02   1.2206150e+03
   1.9066300e+02   1.2506920e+03
   1.9114500e+02   1.3328170e+03
   1.9162700e+02   1.4571980e+03
   1.9210900e+02   1.5796030e+03
   1.9259100e+02   1.6960350e+03
   1.9307300e+02   1.8420100e+03
   1.9355500e+02   2.0551120e+03
   1.9403800e+02   2.3345940e+03
   1.9452000e+02   2.6588430e+03
   1.9500200e+02   3.0189080e+03
   1.9548400e+02   3.4173500e+03
   1.9596600e+02   3.9079940e+03
   1.9644800e+02   4.5127130e+03
   1.9693000e+02   5.0975470e+03
   1.9741200e+02   5.5679950e+03
   1.9789400e+02   5.9266760e+03
   1.9837600e+02   6.0847670e+03
   1.9885900e+02   6.0067610e+03
   1.9934100e+02   5.7132120e+03
   1.9982300e+02   5.2521450e+03
   2.0030500e+02   4.5815860e+03
   2.0078700e+02   3.9057470e+03
   2.0126900e+02   3.3978700e+03
   2.0175100e+02   3.0757030e+03
   2.0223400e+02   2.8209620e+03
   2.0271600e+02   2.6264080e+03
   2.0319800e+02   2.4804860e+03
   2.0368000e+02   2.3350110e+03
   2.0416200e+02   2.1941290e+03
   2.0464400e+02   2.0408870e+03
   2.0512600e+02   1.8573400e+03
   2.0560800e+02   1.6374190e+03
   2.0609000e+02   1.4178900e+03
   2.0657200e+02   1.1965900e+03
   2.0705500e+02   9.8005200e+02
   2.0753700e+02   7.9668900e+02
   2.0801900e+02   6.5110400e+02
   2.0850100e+02   5.2654500e+02
   2.0898300e+02   4.1154500e+02
   2.0946500e+02   3.0390200e+02
   2.0994700e+02   2.1395800e+02
   2.1043000e+02   1.4405600e+02
   2.1091200e+02   9.0706000e+01
   2.1139400e+02   4.2270000e+01
   2.1187600e+02   1.6150000e+00
   2.1235800e+02   3.9731000e+01
   2.1284000e+02   7.2192000e+01
   2.1332200e+02   9.9968000e+01
   2.1380400e+02   1.1689100e+02
   2.1428600e+02   1.2017500e+02
   2.1476800e+02   1.1336800e+02
   2.1525100e+02   1.0628000e+02
   2.1573300e+02   9.9061000e+01
   2.1621500e+02   9.1065000e+01
   2.1669700e+02   8.2526000e+01
   2.1717900e+02   7.4916000e+01
   2.1766100e+02   6.2696000e+01
   2.1814300e+02   4.7387000e+01
   2.1862500e+02   2.6696000e+01
   2.1910800e+02   6.9100000e+00
   2.1959000e+02   6.0593000e+01
   2.2007200e+02   1.1289200e+02
   2.2055400e+02   1.5225100e+02
   2.2103600e+02   1.6941100e+02
   2.2151800e+02   2.0686000e+02
   2.2200000e+02   2.6688100e+02
   2.2248200e+02   3.4516700e+02
   2.2296400e+02   4.3925800e+02
   2.2344700e+02   5.6054300e+02
   2.2392900e+02   6.7306100e+02
   2.2441100e+02   7.6624500e+02
   2.2489300e+02   8.3918400e+02
   2.2537500e+02   8.9378000e+02
   2.2585700e+02   9.3288900e+02
   2.2633900e+02   9.5072800e+02
   2.2682100e+02   9.3575800e+02
   2.2730300e+02   8.7378000e+02
   2.2778600e+02   8.0730700e+02
   2.2826800e+02   7.4919000e+02
   2.2875000e+02   7.0091500e+02
   2.2923200e+02   6.4352100e+02
   2.2971400e+02   5.6845400e+02
   2.3019600e+02   4.9186400e+02
   2.3067800e+02   4.3191000e+02
   2.3116100e+02   3.9940700e+02
   2.3164300e+02   3.6037000e+02
   2.3212500e+02   3.0314300e+02
   2.3260700e+02   2.2594600e+02
   2.3308900e+02   1.6619900e+02
   2.3357100e+02   1.2609500e+02
   2.3405300e+02   1.0104900e+02
   2.3453500e+02   8.9839000e+01
   2.3501700e+02   1.0302300e+02
   2.3549900e+02   1.0842200e+02
   2.3598200e+02   9.7768000e+01
   2.3646400e+02   7.2396000e+01
   2.3694600e+02   5.5488000e+01
   2.3742800e+02   5.1063000e+01
   2.3791000e+02   5.0370000e+01
   2.3839200e+02   4.5354000e+01
   2.3887400e+02   2.5710000e+01
   2.3935700e+02   2.3721000e+01
   2.3983900e+02   4.9674000e+01
   2.4032100e+02   9.7426000e+01
   2.4080300e+02   1.2954300e+02
   2.4128500e+02   1.2024300e+02
   2.4176700e+02   1.2979400e+02
   2.4224900e+02   2.0317500e+02
   2.4273100e+02   4.0957800e+02
   2.4321300e+02   5.3056300e+02
   2.4369500e+02   5.3059200e+02
   2.4417800e+02   4.4179600e+02
   2.4466000e+02   3.6387900e+02
   2.4514200e+02   2.9271500e+02
   2.4562400e+02   2.3850800e+02
   2.4610600e+02   2.0665900e+02
   2.4658800e+02   2.0203800e+02
   2.4707000e+02   2.0913300e+02
   2.4755200e+02   2.3221200e+02
   2.4803500e+02   2.6492600e+02
   2.4851700e+02   2.9315200e+02
   2.4899900e+02   3.1075900e+02
   2.4948100e+02   3.3432500e+02
   2.4996300e+02   3.7201100e+02
   2.5044500e+02   4.2851800e+02
   2.5092700e+02   4.7600000e+02
   2.5140900e+02   5.0247200e+02
   2.5189100e+02   5.2889400e+02
   2.5237400e+02   5.9071400e+02
   2.5285600e+02   7.1068800e+02
   2.5333800e+02   8.2117700e+02
   2.5382000e+02   8.9266100e+02
   2.5430200e+02   9.1509200e+02
   2.5478400e+02   1.0010940e+03
   2.5526600e+02   1.1939110e+03
   2.5574800e+02   1.4050100e+03
   2.5623100e+02   1.5370130e+03
   2.5671300e+02   1.5768070e+03
   2.5719500e+02   1.5673160e+03
   2.5767700e+02   1.5029730e+03
   2.5815900e+02   1.3857220e+03
   2.5864100e+02   1.2917620e+03
   2.5912300e+02   1.2272030e+03
   2.5960500e+02   1.1773430e+03
   2.6008700e+02   1.1309000e+03
   2.6057000e+02   1.0882820e+03
   2.6105200e+02   1.0489100e+03
   2.6153400e+02   1.0126970e+03
   2.6201600e+02   9.7969500e+02
   2.6249800e+02   9.5075600e+02
   2.6298000e+02   9.2293100e+02
   2.6346200e+02   9.0465300e+02
   2.6394400e+02   9.0075000e+02
   2.6442700e+02   9.1057500e+02
   2.6490900e+02   9.3857200e+02
   2.6539100e+02   9.9176000e+02
   2.6587300e+02   1.0604310e+03
   2.6635500e+02   1.1163040e+03
   2.6683700e+02   1.1507830e+03
   2.6731900e+02   1.1908650e+03
   2.6780100e+02   1.2500470e+03
   2.6828400e+02   1.3311990e+03
   2.6876600e+02   1.4182740e+03
   2.6924800e+02   1.5134270e+03
   2.6973000e+02   1.6110750e+03
   2.7021200e+02   1.6988930e+03
   2.7069400e+02   1.7747830e+03
   2.7117600e+02   1.8455690e+03
   2.7165800e+02   1.9228030e+03
   2.7214000e+02   2.0103360e+03
   2.7262200e+02   2.0441870e+03
   2.7310500e+02   2.0191980e+03
   2.7358700e+02   1.9482540e+03
   2.7406900e+02   1.8446010e+03
   2.7455100e+02   1.7042380e+03
   2.7503300e+02   1.5414380e+03
   2.7551500e+02   1.3496440e+03
   2.7599700e+02   1.1349380e+03
   2.7647900e+02   9.4483300e+02
   2.7696200e+02   7.8007000e+02
   2.7744400e+02   6.4152800e+02
   2.7792600e+02   5.3619900e+02
   2.7840800e+02   4.6652300e+02
   2.7889000e+02   4.0473600e+02
   2.7937200e+02   3.4539900e+02
   2.7985400e+02   2.8911400e+02
   2.8033600e+02   2.3258900e+02
   2.8081900e+02   1.7225400e+02
   2.8130100e+02   1.2938500e+02
   2.8178300e+02   1.3128700e+02
   2.8226500e+02   1.7867800e+02
   2.8274700e+02   2.0215600e+02
   2.8322900e+02   1.8789200e+02
   2.8371100e+02   1.5348200e+02
   2.8419300e+02   1.3906800e+02
   2.8467500e+02   1.4632400e+02
   2.8515800e+02   1.5006100e+02
   2.8564000e+02   1.3472700e+02
   2.8612200e+02   1.0175800e+02
   2.8660400e+02   6.2759000e+01
   2.8708600e+02   1.3975000e+01
   2.8756800e+02   2.7744000e+01
   2.8805000e+02   2.9369000e+01
   2.8853200e+02   7.5130000e+00
   2.8901400e+02   4.1821000e+01
   2.8949700e+02   5.2409000e+01
   2.8997900e+02   4.5164000e+01
   2.9046100e+02   4.2776000e+01
   2.9094300e+02   4.4841000e+01
   2.9142500e+02   5.4533000e+01
   2.9190700e+02   7.7703000e+01
   2.9238900e+02   1.1262200e+02
   2.9287100e+02   1.5027300e+02
   2.9335300e+02   1.8686100e+02
   2.9383600e+02   2.2487300e+02
   2.9431800e+02   2.7273700e+02
   2.9480000e+02   3.3026300e+02
   2.9528200e+02   3.8712500e+02
   2.9576400e+02   4.3466100e+02
   2.9624600e+02   4.7472800e+02
   2.9672800e+02   5.1390300e+02
   2.9721100e+02   5.5244100e+02
   2.9769300e+02   5.9250000e+02
   2.9817500e+02   6.3907400e+02
   2.9865700e+02   6.9135200e+02
   2.9913900e+02   7.4495200e+02
   2.9962100e+02   7.9577500e+02
   3.0010300e+02   8.4675800e+02
   3.0058500e+02   9.0503800e+02
   3.0106700e+02   9.7435800e+02
   3.0154900e+02   1.0418840e+03
   3.0203200e+02   1.0984850e+03
   3.0251400e+02   1.1430300e+03
   3.0299600e+02   1.1730070e+03
   3.0347800e+02   1.1800060e+03
   3.0396000e+02   1.1750080e+03
   3.0444200e+02   1.1717060e+03
   3.0492400e+02   1.1707820e+03
   3.0540600e+02   1.1705140e+03
   3.0588900e+02   1.1697880e+03
   3.0637100e+02   1.1686670e+03
   3.0685300e+02   1.1674540e+03
   3.0733500e+02   1.1736880e+03
   3.0781700e+02   1.1743500e+03
   3.0829900e+02   1.1526700e+03
   3.0878100e+02   1.1115140e+03
   3.0926300e+02   1.0718870e+03
   3.0974600e+02   1.0525830e+03
   3.1022800e+02   1.0383230e+03
   3.1071000e+02   1.0120060e+03
   3.1119200e+02   9.6684400e+02
   3.1167400e+02   9.1462200e+02
   3.1215600e+02   8.5594900e+02
   3.1263800e+02   7.9341600e+02
   3.1312000e+02   7.3509200e+02
   3.1360200e+02   6.8285700e+02
   3.1408500e+02   6.4115700e+02
   3.1456700e+02   6.1262000e+02
   3.1504900e+02   5.9815500e+02
   3.1553100e+02   5.9953300e+02
   3.1601300e+02   6.3411200e+02
   3.1649500e+02   6.7954000e+02
   3.1697700e+02   7.0168200e+02
   3.1745900e+02   6.5644200e+02
   3.1794100e+02   6.1306000e+02
   3.1842400e+02   6.1151800e+02
   3.1890600e+02   6.5719800e+02
   3.1938800e+02   7.0189800e+02
   3.1987000e+02   7.1753200e+02
   3.2035200e+02   7.2518500e+02
   3.2083400e+02   7.4514100e+02
   3.2131600e+02   7.9272900e+02
   3.2179800e+02   8.4726500e+02
   3.2228000e+02   9.0656600e+02
   3.2276300e+02   9.6949200e+02
   3.2324500e+02   1.0284400e+03
   3.2372700e+02   1.0860140e+03
   3.2420900e+02   1.1370520e+03
   3.2469100e+02   1.1783920e+03
   3.2517300e+02   1.2043740e+03
   3.2565500e+02   1.2286020e+03
   3.2613800e+02   1.2560540e+03
   3.2662000e+02   1.2821560e+03
   3.2710200e+02   1.2970850e+03
   3.2758400e+02   1.2937140e+03
   3.2806600e+02   1.2861560e+03
   3.2854800e+02   1.2797590e+03
   3.2903000e+02   1.2770340e+03
   3.2951200e+02   1.2638670e+03
   3.2999400e+02   1.2313170e+03
   3.3047700e+02   1.1933660e+03
   3.3095900e+02   1.1658010e+03
   3.3144100e+02   1.1470560e+03
   3.3192300e+02   1.1391580e+03
   3.3240500e+02   1.1415330e+03
   3.3288700e+02   1.1544520e+03
   3.3336900e+02   1.1848710e+03
   3.3385100e+02   1.2438310e+03
   3.3433300e+02   1.3086370e+03
   3.3481600e+02   1.3628300e+03
   3.3529800e+02   1.3992800e+03
   3.3578000e+02   1.4389740e+03
   3.3626200e+02   1.4846320e+03
   3.3674400e+02   1.5342070e+03
   3.3722600e+02   1.5838970e+03
   3.3770800e+02   1.6369220e+03
   3.3819000e+02   1.6826330e+03
   3.3867200e+02   1.7154640e+03
   3.3915500e+02   1.7332590e+03
   3.3963700e+02   1.7519240e+03
   3.4011900e+02   1.7781700e+03
   3.4060100e+02   1.7956710e+03
   3.4108300e+02   1.7758720e+03
   3.4156500e+02   1.7141870e+03
   3.4204700e+02   1.6454660e+03
   3.4252900e+02   1.5782490e+03
   3.4301200e+02   1.5128210e+03
   3.4349400e+02   1.4595100e+03
   3.4397600e+02   1.4192730e+03
   3.4445800e+02   1.3815980e+03
   3.4494000e+02   1.3339820e+03
   3.4542200e+02   1.2775580e+03
   3.4590400e+02   1.2257130e+03
   3.4638600e+02   1.1793800e+03
   3.4686800e+02   1.1421810e+03
   3.4735100e+02   1.1269860e+03
   3.4783300e+02   1.1329500e+03
   3.4831500e+02   1.1417080e+03
   3.4879700e+02   1.1395930e+03
   3.4927900e+02   1.1308300e+03
   3.4976100e+02   1.1316890e+03
   3.5024300e+02   1.1467130e+03
   3.5072500e+02   1.1575810e+03
   3.5120800e+02   1.1373340e+03
   3.5169000e+02   1.0931720e+03
   3.5217200e+02   1.0489940e+03
   3.5265400e+02   1.0220640e+03
   3.5313600e+02   9.9874500e+02
   3.5361800e+02   9.5470400e+02
   3.5410000e+02   8.9056900e+02
   3.5458200e+02   8.2967700e+02
   3.5506500e+02   8.0010900e+02
   3.5554700e+02   7.8379400e+02
   3.5602900e+02   7.5425900e+02
   3.5651100e+02   6.9913600e+02
   3.5699300e+02   6.3535300e+02
   3.5747500e+02   5.7625300e+02
   3.5795700e+02   5.2007900e+02
   3.5843900e+02   4.6106100e+02
   3.5892100e+02   3.8616900e+02
   3.5940400e+02   3.1311300e+02
   3.5988600e+02   2.5734100e+02
   3.6036800e+02   2.2363100e+02
   3.6085000e+02   1.9667100e+02
   3.6133200e+02   1.6607500e+02
   3.6181400e+02   1.3798000e+02
   3.6229600e+02   1.2119700e+02
   3.6277800e+02   1.3716000e+02
   3.6326000e+02   1.4856700e+02
   3.6374300e+02   1.3562000e+02
   3.6422500e+02   9.8043000e+01
   3.6470700e+02   6.4119000e+01
   3.6518900e+02   4.5669000e+01
   3.6567100e+02   3.1461000e+01
   3.6615300e+02   1.3629000e+01
   3.6663500e+02   2.1474000e+01
   3.6711700e+02   4.6218000e+01
   3.6759900e+02   5.1911000e+01
   3.6808200e+02   4.3950000e+01
   3.6856400e+02   3.9228000e+01
   3.6904600e+02   4.8861000e+01
   3.6952800e+02   5.3038000e+01
   3.7001000e+02   4.2057000e+01
   3.7049200e+02   4.4450000e+00
   3.7097400e+02   1.6375000e+01
   3.7145700e+02   1.4407000e+01
   3.7193900e+02   1.0020000e+00
   3.7242100e+02   2.0652000e+01
   3.7290300e+02   5.5007000e+01
   3.7338500e+02   7.5139000e+01
   3.7386700e+02   7.0618000e+01
   3.7434900e+02   4.3355000e+01
   3.7483100e+02   2.4367000e+01
   3.7531300e+02   1.4126000e+01
   3.7579600e+02   1.1849000e+01
   3.7627800e+02   2.1940000e+01
   3.7676000e+02   5.0944000e+01
   3.7724200e+02   5.8760000e+01
   3.7772400e+02   3.5082000e+01
   3.7820600e+02   4.1710000e+00
   3.7868800e+02   2.3247000e+01
   3.7917000e+02   1.9447000e+01
   3.7965200e+02   1.2499000e+01
   3.8013500e+02   1.1140000e+01
   3.8061700e+02   1.4684000e+01
   3.8109900e+02   1.6181000e+01
   3.8158100e+02   1.5428000e+01
   3.8206300e+02   1.3668000e+01
   3.8254500e+02   1.0459000e+01
   3.8302700e+02   6.6030000e+00
   3.8350900e+02   8.2190000e+00
   3.8399100e+02   2.0083000e+01
   3.8447400e+02   3.5037000e+01
   3.8495600e+02   3.5398000e+01
   3.8543800e+02   2.3214000e+01
   3.8592000e+02   1.6059000e+01
   3.8640200e+02   3.6434000e+01
   3.8688400e+02   6.7988000e+01
   3.8736600e+02   7.7654000e+01
   3.8784800e+02   5.7201000e+01
   3.8833100e+02   3.3484000e+01
   3.8881300e+02   3.3942000e+01
   3.8929500e+02   5.0463000e+01
   3.8977700e+02   6.6506000e+01
   3.9025900e+02   7.8479000e+01
   3.9074100e+02   8.3962000e+01
   3.9122300e+02   7.7269000e+01
   3.9170500e+02   5.9303000e+01
   3.9218800e+02   4.3611000e+01
   3.9267000e+02   3.7742000e+01
   3.9315200e+02   3.7758000e+01
   3.9363400e+02   3.9984000e+01
   3.9411600e+02   4.2475000e+01
   3.9459800e+02   4.8731000e+01
   3.9508000e+02   6.2156000e+01
   3.9556200e+02   8.0383000e+01
   3.9604400e+02   9.7868000e+01
   3.9652600e+02   1.1554000e+02
   3.9700900e+02   1.2995900e+02
   3.9749100e+02   1.3967300e+02
   3.9797300e+02   1.4403000e+02
   3.9845500e+02   1.4569400e+02
   3.9893700e+02   1.4515300e+02
   3.9941900e+02   1.4198100e+02
   3.9990100e+02   1.3558600e+02
   4.0038400e+02   1.1549500e+02
   4.0086600e+02   1.0506100e+02
   4.0134800e+02   1.0800400e+02
   4.0183000e+02   1.2316700e+02
   4.0231200e+02   1.4467800e+02
   4.0279400e+02   1.8263300e+02
   4.0327600e+02   2.1370500e+02
   4.0375800e+02   2.2293400e+02
   4.0424000e+02   1.9622500e+02
   4.0472300e+02   1.9443900e+02
   4.0520500e+02   2.2746300e+02
   4.0568700e+02   2.7430700e+02
   4.0616900e+02   3.0069200e+02
   4.0665100e+02   3.0129400e+02
   4.0713300e+02   3.0543100e+02
   4.0761500e+02   3.2127900e+02
   4.0809700e+02   3.4764700e+02
   4.0857900e+02   3.7838600e+02
   4.0906200e+02   4.1306100e+02
   4.0954400e+02   4.5475100e+02
   4.1002600e+02   5.1004400e+02
   4.1050800e+02   5.7633700e+02
   4.1099000e+02   6.3654500e+02
   4.1147200e+02   6.8484600e+02
   4.1195400e+02   7.3342700e+02
   4.1243600e+02   7.9857900e+02
   4.1291800e+02   8.7938600e+02
   4.1340100e+02   9.7076000e+02
   4.1388300e+02   1.0728540e+03
   4.1436500e+02   1.1825440e+03
   4.1484700e+02   1.2864640e+03
   4.1532900e+02   1.3841850e+03
   4.1581100e+02   1.5016840e+03
   4.1629300e+02   1.6716310e+03
   4.1677500e+02   1.8695260e+03
   4.1725800e+02   2.0601450e+03
   4.1774000e+02   2.2244220e+03
   4.1822200e+02   2.3906040e+03
   4.1870400e+02   2.5581520e+03
   4.1918600e+02   2.7395370e+03
   4.1966800e+02   2.9604130e+03
   4.2015000e+02   3.2352070e+03
   4.2063200e+02   3.5536130e+03
   4.2111500e+02   3.9146520e+03
   4.2159700e+02   4.3161990e+03
   4.2207900e+02   4.7570150e+03
   4.2256100e+02   5.2302440e+03
   4.2304300e+02   5.7423660e+03
   4.2352500e+02   6.3001680e+03
   4.2400700e+02   6.9479770e+03
   4.2448900e+02   7.5904240e+03
   4.2497100e+02   8.2685210e+03
   4.2545300e+02   8.9513090e+03
   4.2593600e+02   9.4452630e+03
   4.2641800e+02   9.8170860e+03
   4.2690000e+02   9.9321550e+03
   4.2738200e+02   9.7131770e+03
   4.2786400e+02   9.0793730e+03
   4.2834600e+02   8.3653980e+03
   4.2882800e+02   7.5189580e+03
   4.2931000e+02   6.6396080e+03
   4.2979300e+02   5.8499250e+03
   4.3027500e+02   5.1404680e+03
   4.3075700e+02   4.5286910e+03
   4.3123900e+02   4.0317940e+03
   4.3172100e+02   3.6404140e+03
   4.3220300e+02   3.3233710e+03
   4.3268500e+02   3.0808470e+03
   4.3316700e+02   2.8888710e+03
   4.3365000e+02   2.7300500e+03
   4.3413200e+02   2.6041840e+03
   4.3461400e+02   2.5227700e+03
   4.3509600e+02   2.4921490e+03
   4.3557800e+02   2.4998270e+03
   4.3606000e+02   2.5380500e+03
   4.3654200e+02   2.6007860e+03
   4.3702400e+02   2.6661280e+03
   4.3750600e+02   2.7182420e+03
   4.3798900e+02   2.7700760e+03
   4.3847100e+02   2.8390840e+03
   4.3895300e+02   2.9266250e+03
   4.3943500e+02   3.0406010e+03
   4.3991700e+02   3.1788980e+03
   4.4039900e+02   3.3487020e+03
   4.4088100e+02   3.5568630e+03
   4.4136300e+02   3.8020940e+03
   4.4184500e+02   4.0946580e+03
   4.4232800e+02   4.4501330e+03
   4.4281000e+02   4.8533160e+03
   4.4329200e+02   5.2914680e+03
   4.4377400e+02   5.7354490e+03
   4.4425600e+02   6.2358620e+03
   4.4473800e+02   6.8417290e+03
   4.4522000e+02   7.5473890e+03
   4.4570200e+02   8.2333020e+03
   4.4618500e+02   8.9922610e+03
   4.4666700e+02   9.6311210e+03
   4.4714900e+02   1.0041008e+04
   4.4763100e+02   1.0220601e+04
   4.4811300e+02   1.0149602e+04
   4.4859500e+02   9.7578270e+03
   4.4907700e+02   9.1416150e+03
   4.4955900e+02   8.4581460e+03
   4.5004200e+02   7.6594110e+03
   4.5052400e+02   6.8626310e+03
   4.5100600e+02   6.0820680e+03
   4.5148800e+02   5.3135990e+03
   4.5197000e+02   4.6434350e+03
   4.5245200e+02   4.0747550e+03
   4.5293400e+02   3.5857300e+03
   4.5341600e+02   3.1757700e+03
   4.5389800e+02   2.8466520e+03
   4.5438000e+02   2.5427460e+03
   4.5486300e+02   2.2630890e+03
   4.5534500e+02   2.0097050e+03
   4.5582700e+02   1.7981670e+03
   4.5630900e+02   1.6254600e+03
   4.5679100e+02   1.4737610e+03
   4.5727300e+02   1.3346250e+03
   4.5775500e+02   1.2103590e+03
   4.5823700e+02   1.1057200e+03
   4.5872000e+02   1.0218860e+03
   4.5920200e+02   9.4555100e+02
   4.5968400e+02   8.6480700e+02
   4.6016600e+02   7.8612700e+02
   4.6064800e+02   7.2252100e+02
   4.6113000e+02   6.7919200e+02
   4.6161200e+02   6.4187500e+02
   4.6209400e+02   5.9825300e+02
   4.6257700e+02   5.5234100e+02
   4.6305900e+02   5.1091400e+02
   4.6354100e+02   4.7717800e+02
   4.6402300e+02   4.4794500e+02
   4.6450500e+02   4.2275600e+02
   4.6498700e+02   4.0116700e+02
   4.6546900e+02   3.7974900e+02
   4.6595100e+02   3.5601200e+02
   4.6643400e+02   3.3303600e+02
   4.6691600e+02   3.1269500e+02
   4.6739800e+02   2.9488900e+02
   4.6788000e+02   2.8032200e+02
   4.6836200e+02   2.7490400e+02
   4.6884400e+02   2.7113000e+02
   4.6932600e+02   2.5642300e+02
   4.6980800e+02   2.2124900e+02
   4.7029000e+02   1.8986900e+02
   4.7077200e+02   1.6681400e+02
   4.7125500e+02   1.5212600e+02
   4.7173700e+02   1.5196700e+02
   4.7221900e+02   1.7417100e+02
   4.7270100e+02   1.9258300e+02
   4.7318300e+02   1.8630200e+02
   4.7366500e+02   1.5335900e+02
   4.7414700e+02   1.2416600e+02
   4.7462900e+02   1.0100900e+02
   4.7511200e+02   8.2355000e+01
   4.7559400e+02   6.3773000e+01
   4.7607600e+02   4.6280000e+01
   4.7655800e+02   3.9859000e+01
   4.7704000e+02   5.7233000e+01
   4.7752200e+02   8.2245000e+01
   4.7800400e+02   8.0806000e+01
   4.7848600e+02   5.5545000e+01
   4.7896900e+02   2.9245000e+01
   4.7945100e+02   2.0644000e+01
   4.7993300e+02   1.9040000e+01
   4.8041500e+02   9.4570000e+00
   4.8089700e+02   1.2406000e+01
   4.8137900e+02   3.2651000e+01
   4.8186100e+02   4.6433000e+01
   4.8234300e+02   5.1501000e+01
   4.8282500e+02   4.4844000e+01
   4.8330800e+02   4.7561000e+01
   4.8379000e+02   2.5858000e+01
   4.8427200e+02   3.3163000e+01
   4.8475400e+02   1.8905000e+01
   4.8523600e+02   7.4200000e-01
   4.8571800e+02   3.7901000e+01
   4.8620000e+02   6.7208000e+01
   4.8668200e+02   7.3668000e+01
   4.8716400e+02   4.4947000e+01
   4.8764700e+02   3.0735000e+01
   4.8812900e+02   3.5328000e+01
   4.8861100e+02   5.1114000e+01
   4.8909300e+02   7.1956000e+01
   4.8957500e+02   1.0348100e+02
   4.9005700e+02   1.2508000e+02
   4.9053900e+02   1.3236700e+02
   4.9102100e+02   1.2785900e+02
   4.9150400e+02   1.1597900e+02
   4.9198600e+02   9.5051000e+01
   4.9246800e+02   7.8871000e+01
   4.9295000e+02   7.7340000e+01
   4.9343200e+02   8.8010000e+01
   4.9391400e+02   9.9285000e+01
   4.9439600e+02   1.1196800e+02
   4.9487800e+02   1.1641200e+02
   4.9536100e+02   9.2257000e+01
   4.9584300e+02   5.2233000e+01
   4.9632500e+02   3.0469000e+01
   4.9680700e+02   4.1182000e+01
   4.9728900e+02   6.1151000e+01
   4.9777100e+02   6.9885000e+01
   4.9825300e+02   6.9264000e+01
   4.9873500e+02   6.4132000e+01
   4.9921700e+02   5.4760000e+01
   4.9969900e+02   4.3437000e+01
   5.0018200e+02   3.3063000e+01
   5.0066400e+02   2.3792000e+01
   5.0114600e+02   3.2396000e+01
   5.0162800e+02   2.3656000e+01
   5.0211000e+02   5.8685000e+01
   5.0259200e+02   8.9582000e+01
   5.0307400e+02   1.1040200e+02
   5.0355600e+02   1.3378200e+02
   5.0403900e+02   1.5718200e+02
   5.0452100e+02   1.8492100e+02
   5.0500300e+02   2.2221800e+02
   5.0548500e+02   2.5678100e+02
   5.0596700e+02   3.2333400e+02
   5.0644900e+02   4.3847600e+02
   5.0693100e+02   5.9577400e+02
   5.0741300e+02   7.4933100e+02
   5.0789600e+02   9.1243600e+02
   5.0837800e+02   1.0353030e+03
   5.0886000e+02   1.0552830e+03
   5.0934200e+02   9.7846000e+02
   5.0982400e+02   9.8117400e+02
   5.1030600e+02   1.0789240e+03
   5.1078800e+02   1.2257820e+03
   5.1127000e+02   1.3785850e+03
   5.1175200e+02   1.5362870e+03
   5.1223500e+02   1.6950420e+03
   5.1271700e+02   1.8416860e+03
   5.1319900e+02   2.0043190e+03
   5.1368100e+02   2.2157770e+03
   5.1416300e+02   2.4720370e+03
   5.1464500e+02   2.7566180e+03
   5.1512700e+02   3.0766910e+03
   5.1560900e+02   3.4102350e+03
   5.1609100e+02   3.7499060e+03
   5.1657400e+02   4.0972150e+03
   5.1705600e+02   4.4143900e+03
   5.1753800e+02   4.7608250e+03
   5.1802000e+02   5.0286370e+03
   5.1850200e+02   5.1323880e+03
   5.1898400e+02   5.0199500e+03
   5.1946600e+02   4.7882590e+03
   5.1994800e+02   4.2454990e+03
   5.2043000e+02   3.6213590e+03
   5.2091300e+02   3.3959350e+03
   5.2139500e+02   3.9057860e+03
   5.2187700e+02   4.2775470e+03
   5.2235900e+02   4.2623010e+03
   5.2284100e+02   3.8831340e+03
   5.2332300e+02   3.4514470e+03
   5.2380500e+02   2.9198360e+03
   5.2428700e+02   2.4786270e+03
   5.2477000e+02   2.2798150e+03
   5.2525200e+02   2.3167800e+03
   5.2573400e+02   2.4211320e+03
   5.2621600e+02   2.5842100e+03
   5.2669800e+02   2.8002620e+03
   5.2718000e+02   3.0651880e+03
   5.2766200e+02   3.3789550e+03
   5.2814400e+02   3.7467840e+03
   5.2862700e+02   4.1906750e+03
   5.2910900e+02   4.6636740e+03
   5.2959100e+02   5.1247970e+03
   5.3007300e+02   5.5661010e+03
   5.3055500e+02   5.9475700e+03
   5.3103700e+02   6.2995870e+03
   5.3151900e+02   6.5424190e+03
   5.3200100e+02   6.6148590e+03
   5.3248400e+02   6.5101010e+03
   5.3296600e+02   6.2678940e+03
   5.3344800e+02   5.8260450e+03
   5.3393000e+02   5.2986460e+03
   5.3441200e+02   4.7667240e+03
   5.3489400e+02   4.1990120e+03
   5.3537600e+02   3.6881080e+03
   5.3585800e+02   3.2320170e+03
   5.3634000e+02   2.8362270e+03
   5.3682300e+02   2.5227610e+03
   5.3730500e+02   2.3049600e+03
   5.3778700e+02   2.1376260e+03
   5.3826900e+02   2.0132450e+03
   5.3875100e+02   1.9269970e+03
   5.3923300e+02   1.8470970e+03
   5.3971500e+02   1.7707530e+03
   5.4019700e+02   1.7162020e+03
   5.4067900e+02   1.7065430e+03
   5.4116200e+02   1.7349790e+03
   5.4164400e+02   1.7527110e+03
   5.4212600e+02   1.7544890e+03
   5.4260800e+02   1.7515380e+03
   5.4309000e+02   1.7500660e+03
   5.4357200e+02   1.7514110e+03
   5.4405400e+02   1.7624710e+03
   5.4453600e+02   1.7922530e+03
   5.4501800e+02   1.8277170e+03
   5.4550100e+02   1.8626800e+03
   5.4598300e+02   1.8916840e+03
   5.4646500e+02   1.9033800e+03
   5.4694700e+02   1.8743340e+03
   5.4742900e+02   1.8426560e+03
   5.4791100e+02   1.8287490e+03
   5.4839300e+02   1.8349410e+03
   5.4887500e+02   1.8405190e+03
   5.4935700e+02   1.8509290e+03
   5.4984000e+02   1.8539080e+03
   5.5032200e+02   1.8390020e+03
   5.5080400e+02   1.7843550e+03
   5.5128600e+02   1.7612190e+03
   5.5176800e+02   1.7839280e+03
   5.5225000e+02   1.8230400e+03
   5.5273200e+02   1.8372070e+03
   5.5321400e+02   1.8232280e+03
   5.5369700e+02   1.8185210e+03
   5.5417900e+02   1.8316810e+03
   5.5466100e+02   1.8542930e+03
   5.5514300e+02   1.8676150e+03
   5.5562500e+02   1.8729850e+03
   5.5610700e+02   1.8826520e+03
   5.5658900e+02   1.9041610e+03
   5.5707100e+02   1.9345390e+03
   5.5755400e+02   1.9705820e+03
   5.5803600e+02   2.0118960e+03
   5.5851800e+02   2.0535940e+03
   5.5900000e+02   2.0807430e+03
   5.5948200e+02   2.1113520e+03
   5.5996400e+02   2.1677540e+03
   5.6044600e+02   2.2667840e+03
   5.6092800e+02   2.3614240e+03
   5.6141100e+02   2.4230000e+03
   5.6189300e+02   2.4718430e+03
   5.6237500e+02   2.5347240e+03
   5.6285700e+02   2.6196490e+03
   5.6333900e+02   2.7156450e+03
   5.6382100e+02   2.8214080e+03
   5.6430300e+02   2.9369320e+03
   5.6478500e+02   3.0638690e+03
   5.6526700e+02   3.2009270e+03
   5.6575000e+02   3.3466690e+03
   5.6623200e+02   3.5011170e+03
   5.6671400e+02   3.6629930e+03
   5.6719600e+02   3.8268670e+03
   5.6767800e+02   3.9864190e+03
   5.6816000e+02   4.1687480e+03
   5.6864200e+02   4.4045730e+03
   5.6912400e+02   4.6836870e+03
   5.6960600e+02   4.9812200e+03
   5.7008900e+02   5.2921180e+03
   5.7057100e+02   5.6152330e+03
   5.7105300e+02   5.9327970e+03
   5.7153500e+02   6.2599480e+03
   5.7201700e+02   6.6223550e+03
   5.7249900e+02   7.0544320e+03
   5.7298100e+02   7.5008450e+03
   5.7346300e+02   7.9495000e+03
   5.7394500e+02   8.3873900e+03
   5.7442800e+02   8.7861520e+03
   5.7491000e+02   9.1447870e+03
   5.7539200e+02   9.4494120e+03
   5.7587400e+02   9.6955270e+03
   5.7635600e+02   9.8848970e+03
   5.7683800e+02   9.9895930e+03
   5.7732000e+02   9.9720210e+03
   5.7780200e+02   9.9087330e+03
   5.7828400e+02   9.8423970e+03
   5.7876700e+02   9.7653340e+03
   5.7924900e+02   9.7070530e+03
   5.7973100e+02   9.6584870e+03
   5.8021300e+02   9.6442710e+03
   5.8069500e+02   9.7061310e+03
   5.8117700e+02   9.8422770e+03
   5.8165900e+02   1.0015245e+04
   5.8214100e+02   1.0224733e+04
   5.8262400e+02   1.0451256e+04
   5.8310600e+02   1.0679004e+04
   5.8358800e+02   1.0898204e+04
   5.8407000e+02   1.1070372e+04
   5.8455200e+02   1.1159968e+04
   5.8503400e+02   1.1195784e+04
   5.8551600e+02   1.1206520e+04
   5.8599800e+02   1.1192528e+04
   5.8648100e+02   1.1134867e+04
   5.8696300e+02   1.1018625e+04
   5.8744500e+02   1.0859758e+04
   5.8792700e+02   1.0658913e+04
   5.8840900e+02   1.0388212e+04
   5.8889100e+02   1.0153151e+04
   5.8937300e+02   9.9482150e+03
   5.8985500e+02   9.7932860e+03
   5.9033800e+02   9.7078630e+03
   5.9082000e+02   9.6809860e+03
   5.9130200e+02   9.7451910e+03
   5.9178400e+02   9.9024220e+03
   5.9226600e+02   1.0156940e+04
   5.9274800e+02   1.0546331e+04
   5.9323000e+02   1.1083276e+04
   5.9371200e+02   1.1636947e+04
   5.9419400e+02   1.2197039e+04
   5.9467700e+02   1.2723236e+04
   5.9515900e+02   1.3138496e+04
   5.9564100e+02   1.3439407e+04
   5.9612300e+02   1.3546883e+04
   5.9660500e+02   1.3394779e+04
   5.9708700e+02   1.3021945e+04
   5.9756900e+02   1.2445113e+04
   5.9805100e+02   1.1653796e+04
   5.9853300e+02   1.0788594e+04
   5.9901600e+02   9.8491370e+03
   5.9949800e+02   8.9116060e+03
   5.9998000e+02   8.0481810e+03
   6.0046200e+02   7.2627420e+03
   6.0094400e+02   6.5496130e+03
   6.0142600e+02   5.9228360e+03
   6.0190800e+02   5.3729110e+03
   6.0239000e+02   4.8920840e+03
   6.0287200e+02   4.5005110e+03
   6.0335500e+02   4.1472130e+03
   6.0383700e+02   3.8198390e+03
   6.0431900e+02   3.5260460e+03
   6.0480100e+02   3.2745210e+03
   6.0528300e+02   3.0657080e+03
   6.0576500e+02   2.8832630e+03
   6.0624700e+02   2.6987070e+03
   6.0672900e+02   2.5325320e+03
   6.0721100e+02   2.4541210e+03
   6.0769400e+02   2.4653790e+03
   6.0817600e+02   2.5335390e+03
   6.0865800e+02   2.7649850e+03
   6.0914000e+02   2.9858900e+03
   6.0962200e+02   2.9181500e+03
   6.1010400e+02   2.4321200e+03
   6.1058600e+02   1.9536160e+03
   6.1106800e+02   1.7068300e+03
   6.1155100e+02   1.5979750e+03
   6.1203300e+02   1.5121950e+03
   6.1251500e+02   1.4223510e+03
   6.1299700e+02   1.3553520e+03
   6.1347900e+02   1.3233010e+03
   6.1396100e+02   1.3155450e+03
   6.1444300e+02   1.3099740e+03
   6.1492500e+02   1.3132550e+03
   6.1540700e+02   1.3044000e+03
   6.1589000e+02   1.2724480e+03
   6.1637200e+02   1.2225600e+03
   6.1685400e+02   1.1913130e+03
   6.1733600e+02   1.1814350e+03
   6.1781800e+02   1.1642050e+03
   6.1830000e+02   1.1164670e+03
   6.1878200e+02   1.0464980e+03
   6.1926500e+02   9.7642800e+02
   6.1974700e+02   9.0612200e+02
   6.2022900e+02   8.4263400e+02
   6.2071100e+02   7.9441700e+02
   6.2119300e+02   7.5516700e+02
   6.2167500e+02   7.1853300e+02
   6.2215700e+02   6.8567000e+02
   6.2263900e+02   6.4764400e+02
   6.2312100e+02   5.9420200e+02
   6.2360400e+02   5.3532200e+02
   6.2408600e+02   4.8366400e+02
   6.2456800e+02   4.3306800e+02
   6.2505000e+02   4.0076300e+02
   6.2553200e+02   3.9426500e+02
   6.2601400e+02   4.0645400e+02
   6.2649600e+02   4.1853100e+02
   6.2697800e+02   4.3291100e+02
   6.2746000e+02   4.3825200e+02
   6.2794300e+02   4.1771900e+02
   6.2842500e+02   3.8517100e+02
   6.2890700e+02   4.3210900e+02
   6.2938900e+02   5.6092600e+02
   6.2987100e+02   6.6628500e+02
   6.3035300e+02   6.4626200e+02
   6.3083500e+02   5.5762400e+02
   6.3131700e+02   5.0827900e+02
   6.3179900e+02   5.0648500e+02
   6.3228200e+02   5.2304800e+02
   6.3276400e+02   5.4756300e+02
   6.3324600e+02   5.7429000e+02
   6.3372800e+02   5.9880700e+02
   6.3421000e+02   6.2507700e+02
   6.3469200e+02   6.3887900e+02
   6.3517400e+02   6.2876300e+02
   6.3565600e+02   6.0637100e+02
   6.3613800e+02   5.8839000e+02
   6.3662100e+02   5.8482700e+02
   6.3710300e+02   5.6837400e+02
   6.3758500e+02   5.2763800e+02
   6.3806700e+02   4.7557700e+02
   6.3854900e+02   4.4976200e+02
   6.3903100e+02   4.5524700e+02
   6.3951300e+02   4.5304300e+02
   6.3999500e+02   4.2588500e+02
   6.4047800e+02   3.8102800e+02
   6.4096000e+02   3.3781500e+02
   6.4144200e+02   2.9614700e+02
   6.4192400e+02   2.5684400e+02
   6.4240600e+02   2.1918900e+02
   6.4288800e+02   1.8530600e+02
   6.4337000e+02   1.6230800e+02
   6.4385200e+02   1.5078900e+02
   6.4433400e+02   1.2947400e+02
   6.4481700e+02   7.4547000e+01
   6.4529900e+02   1.3836000e+01
   6.4578100e+02   3.0658000e+01
   6.4626300e+02   5.1241000e+01
   6.4674500e+02   6.5292000e+01
   6.4722700e+02   7.2714000e+01
   6.4770900e+02   7.5763000e+01
   6.4819200e+02   7.5304000e+01
   6.4867400e+02   6.7880000e+01
   6.4915600e+02   6.9811000e+01
   6.4963800e+02   8.6171000e+01
   6.5012000e+02   1.0903800e+02
   6.5060200e+02   1.2520800e+02
   6.5108400e+02   1.3445100e+02
   6.5156600e+02   1.3618700e+02
   6.5204800e+02   1.2377200e+02
   6.5253100e+02   1.0978700e+02
   6.5301300e+02   1.1806300e+02
   6.5349500e+02   1.4255400e+02
   6.5397700e+02   1.5960200e+02
   6.5445900e+02   1.4796200e+02
   6.5494100e+02   1.3123200e+02
   6.5542300e+02   1.2433000e+02
   6.5590500e+02   1.2816400e+02
   6.5638800e+02   1.3161100e+02
   6.5687000e+02   1.4137200e+02
   6.5735200e+02   1.4202600e+02
   6.5783400e+02   1.2242100e+02
   6.5831600e+02   7.3934000e+01
   6.5879800e+02   4.3289000e+01
   6.5928000e+02   3.5636000e+01
   6.5976200e+02   3.6180000e+01
   6.6024400e+02   3.0956000e+01
   6.6072700e+02   2.0151000e+01
   6.6120900e+02   1.4046000e+01
   6.6169100e+02   1.5536000e+01
   6.6217300e+02   1.5995000e+01
   6.6265500e+02   2.2313000e+01
   6.6313700e+02   2.0502000e+01
   6.6361900e+02   4.2812000e+01
   6.6410100e+02   6.2183000e+01
   6.6458300e+02   7.8312000e+01
   6.6506600e+02   8.6185000e+01
   6.6554800e+02   9.1040000e+01
   6.6603000e+02   1.0369500e+02
   6.6651200e+02   1.4171100e+02
   6.6699400e+02   1.7283600e+02
   6.6747600e+02   1.8116900e+02
   6.6795800e+02   1.7269400e+02
   6.6844000e+02   1.7593700e+02
   6.6892200e+02   1.9106400e+02
   6.6940500e+02   2.1781000e+02
   6.6988700e+02   2.6028300e+02
   6.7036900e+02   3.1592800e+02
   6.7085100e+02   3.5901000e+02
   6.7133300e+02   3.8828400e+02
   6.7181500e+02   4.2241700e+02
   6.7229700e+02   4.8720900e+02
   6.7277900e+02   5.6469300e+02
   6.7326100e+02   6.1443300e+02
   6.7374400e+02   6.3137600e+02
   6.7422600e+02   6.4451000e+02
   6.7470800e+02   6.6718400e+02
   6.7519000e+02   7.0049100e+02
   6.7567200e+02   7.4846000e+02
   6.7615400e+02   8.2816000e+02
   6.7663600e+02   8.8822400e+02
   6.7711900e+02   8.9051700e+02
   6.7760100e+02   8.7956100e+02
   6.7808300e+02   9.0947400e+02
   6.7856500e+02   1.0128510e+03
   6.7904700e+02   1.0823000e+03
   6.7952900e+02   1.0969090e+03
   6.8001100e+02   1.0815090e+03
   6.8049300e+02   1.0891760e+03
   6.8097500e+02   1.1195820e+03
   6.8145800e+02   1.1330530e+03
   6.8194000e+02   1.1073540e+03
   6.8242200e+02   1.0670310e+03
   6.8290400e+02   1.0511790e+03
   6.8338600e+02   1.0559950e+03
   6.8386800e+02   1.0681060e+03
   6.8435000e+02   1.0871200e+03
   6.8483200e+02   1.1054770e+03
   6.8531500e+02   1.1199760e+03
   6.8579700e+02   1.1299630e+03
   6.8627900e+02   1.1318760e+03
   6.8676100e+02   1.1196620e+03
   6.8724300e+02   1.1035390e+03
   6.8772500e+02   1.0846430e+03
   6.8820700e+02   1.0612670e+03
   6.8868900e+02   1.0537610e+03
   6.8917100e+02   1.0639700e+03
   6.8965400e+02   1.0864390e+03
   6.9013600e+02   1.1223170e+03
   6.9061800e+02   1.1702050e+03
   6.9110000e+02   1.2075960e+03
   6.9158200e+02   1.2324140e+03
   6.9206400e+02   1.2531300e+03
   6.9254600e+02   1.2784170e+03
   6.9302800e+02   1.3050900e+03
   6.9351000e+02   1.3276950e+03
   6.9399300e+02   1.3435820e+03
   6.9447500e+02   1.3595220e+03
   6.9495700e+02   1.3814960e+03
   6.9543900e+02   1.4047590e+03
   6.9592100e+02   1.4234660e+03
   6.9640300e+02   1.4305070e+03
   6.9688500e+02   1.4401270e+03
   6.9736700e+02   1.4497400e+03
   6.9784900e+02   1.4643560e+03
   6.9833200e+02   1.4979360e+03
   6.9881400e+02   1.5586590e+03
   6.9929600e+02   1.6048500e+03
   6.9977800e+02   1.6231410e+03
   7.0026000e+02   1.6228520e+03
   7.0074200e+02   1.6213480e+03
   7.0122400e+02   1.6199920e+03
   7.0170600e+02   1.6281490e+03
   7.0218800e+02   1.6662190e+03
   7.0267100e+02   1.7058730e+03
   7.0315300e+02   1.7123780e+03
   7.0363500e+02   1.6891740e+03
   7.0411700e+02   1.6634860e+03
   7.0459900e+02   1.6455850e+03
   7.0508100e+02   1.6311400e+03
   7.0556300e+02   1.6209140e+03
   7.0604500e+02   1.6159880e+03
   7.0652800e+02   1.6016310e+03
   7.0701000e+02   1.5711340e+03
   7.0749200e+02   1.5382370e+03
   7.0797400e+02   1.5128120e+03
   7.0845600e+02   1.4967790e+03
   7.0893800e+02   1.4675330e+03
   7.0942000e+02   1.4249310e+03
   7.0990200e+02   1.3740560e+03
   7.1038500e+02   1.3146190e+03
   7.1086700e+02   1.2492700e+03
   7.1134900e+02   1.1866490e+03
   7.1183100e+02   1.1293560e+03
   7.1231300e+02   1.0701770e+03
   7.1279500e+02   9.9665100e+02
   7.1327700e+02   9.2002800e+02
   7.1375900e+02   8.5411300e+02
   7.1424200e+02   8.2019000e+02
   7.1472400e+02   7.6711100e+02
   7.1520600e+02   6.6741000e+02
   7.1568800e+02   5.5494400e+02
   7.1617000e+02   4.6887500e+02
   7.1665200e+02   4.1494000e+02
   7.1713400e+02   3.6923800e+02
   7.1761600e+02   3.2928800e+02
   7.1809800e+02   2.9509500e+02
   7.1858100e+02   2.6867500e+02
   7.1906300e+02   2.4892700e+02
   7.1954500e+02   2.2938400e+02
   7.2002700e+02   2.0838800e+02
   7.2050900e+02   1.8755100e+02
   7.2099100e+02   1.6710400e+02
   7.2147300e+02   1.4747600e+02
   7.2195500e+02   1.3004800e+02
   7.2243700e+02   1.1637600e+02
   7.2292000e+02   1.0412800e+02
   7.2340200e+02   8.9958000e+01
   7.2388400e+02   7.5511000e+01
   7.2436600e+02   7.1149000e+01
   7.2484800e+02   8.9914000e+01
   7.2533000e+02   9.8699000e+01
   7.2581200e+02   8.0288000e+01
   7.2629400e+02   3.9881000e+01
   7.2677600e+02   2.4662000e+01
   7.2725900e+02   3.6604000e+01
   7.2774100e+02   5.7108000e+01
   7.2822300e+02   7.9733000e+01
   7.2870500e+02   1.0084600e+02
   7.2918700e+02   1.1098600e+02
   7.2966900e+02   1.1023800e+02
   7.3015100e+02   1.0450400e+02
   7.3063300e+02   9.3765000e+01
   7.3111500e+02   8.2209000e+01
   7.3159800e+02   7.2191000e+01
   7.3208000e+02   6.3033000e+01
   7.3256200e+02   6.0788000e+01
   7.3304400e+02   7.8086000e+01
   7.3352600e+02   9.3138000e+01
   7.3400800e+02   9.2928000e+01
   7.3449000e+02   7.4507000e+01
   7.3497200e+02   4.6491000e+01
   7.3545500e+02   1.6170000e+00
   7.3593700e+02   3.3267000e+01
   7.3641900e+02   1.8962000e+01
   7.3690100e+02   3.1802000e+01
   7.3738300e+02   6.4458000e+01
   7.3786500e+02   6.8335000e+01
   7.3834700e+02   6.3745000e+01
   7.3882900e+02   6.7865000e+01
   7.3931200e+02   7.5877000e+01
   7.3979400e+02   8.0882000e+01
   7.4027600e+02   7.5051000e+01
   7.4075800e+02   7.5663000e+01
   7.4124000e+02   9.7020000e+01
   7.4172200e+02   1.2406200e+02
   7.4220400e+02   1.3337400e+02
   7.4268600e+02   1.1286800e+02
   7.4316900e+02   1.0340000e+02
   7.4365100e+02   1.1341300e+02
   7.4413300e+02   1.3317200e+02
   7.4461500e+02   1.3924900e+02
   7.4509700e+02   1.3386000e+02
   7.4557900e+02   1.4483100e+02
   7.4606100e+02   1.9090700e+02
   7.4654300e+02   2.4359100e+02
   7.4702500e+02   2.6332100e+02
   7.4750800e+02   2.6014300e+02
   7.4799000e+02   2.5849000e+02
   7.4847200e+02   2.6432300e+02
   7.4895400e+02   2.7839000e+02
   7.4943600e+02   3.0160600e+02
   7.4991800e+02   3.3379700e+02
   7.5040000e+02   3.7283100e+02
   7.5088200e+02   4.1828900e+02
   7.5136400e+02   4.7126000e+02
   7.5184700e+02   5.3583200e+02
   7.5232900e+02   6.0731200e+02
   7.5281100e+02   6.5736000e+02
   7.5329300e+02   6.8481800e+02
   7.5377500e+02   7.2154800e+02
   7.5425700e+02   8.0006000e+02
   7.5473900e+02   8.9207500e+02
   7.5522100e+02   9.4306800e+02
   7.5570300e+02   9.6074300e+02
   7.5618600e+02   9.8820800e+02
   7.5666800e+02   1.0601500e+03
   7.5715000e+02   1.1356390e+03
   7.5763200e+02   1.1916730e+03
   7.5811400e+02   1.2252350e+03
   7.5859600e+02   1.2592600e+03
   7.5907800e+02   1.2971810e+03
   7.5956000e+02   1.3331150e+03
   7.6004200e+02   1.3665230e+03
   7.6052500e+02   1.3972710e+03
   7.6100700e+02   1.4122340e+03
   7.6148900e+02   1.4095350e+03
   7.6197100e+02   1.4050470e+03
   7.6245300e+02   1.4155490e+03
   7.6293500e+02   1.4320200e+03
   7.6341700e+02   1.4375800e+03
   7.6389900e+02   1.4309590e+03
   7.6438200e+02   1.4152930e+03
   7.6486400e+02   1.3726810e+03
   7.6534600e+02   1.3352380e+03
   7.6582800e+02   1.3354710e+03
   7.6631000e+02   1.4015730e+03
   7.6679200e+02   1.4297020e+03
   7.6727400e+02   1.3893310e+03
   7.6775600e+02   1.3326060e+03
   7.6823900e+02   1.2998560e+03
   7.6872100e+02   1.2951390e+03
   7.6920300e+02   1.2813170e+03
   7.6968500e+02   1.2544530e+03
   7.7016700e+02   1.2317120e+03
   7.7064900e+02   1.2382180e+03
   7.7113100e+02   1.2610970e+03
   7.7161300e+02   1.2718860e+03
   7.7209600e+02   1.2640160e+03
   7.7257800e+02   1.2504610e+03
   7.7306000e+02   1.2340180e+03
   7.7354200e+02   1.2192420e+03
   7.7402400e+02   1.2118380e+03
   7.7450600e+02   1.2254200e+03
   7.7498800e+02   1.2228280e+03
   7.7547000e+02   1.1905720e+03
   7.7595200e+02   1.1531090e+03
   7.7643500e+02   1.1455690e+03
   7.7691700e+02   1.1742600e+03
   7.7739900e+02   1.1724770e+03
   7.7788100e+02   1.1199490e+03
   7.7836300e+02   1.0579740e+03
   7.7884500e+02   1.0336650e+03
   7.7932700e+02   1.0426630e+03
   7.7980900e+02   1.0818080e+03
   7.8029100e+02   1.1784080e+03
   7.8077400e+02   1.2497380e+03
   7.8125600e+02   1.2290820e+03
   7.8173800e+02   1.1538900e+03
   7.8222000e+02   1.0797600e+03
   7.8270200e+02   1.0098140e+03
   7.8318400e+02   9.5412500e+02
   7.8366600e+02   9.1777600e+02
   7.8414800e+02   8.9423800e+02
   7.8463000e+02   8.7047300e+02
   7.8511300e+02   8.4512500e+02
   7.8559500e+02   8.2759300e+02
   7.8607700e+02   8.2479800e+02
   7.8655900e+02   8.2181400e+02
   7.8704100e+02   7.8900000e+02
   7.8752300e+02   7.4139300e+02
   7.8800500e+02   7.0627000e+02
   7.8848700e+02   6.9839200e+02
   7.8896900e+02   6.9927400e+02
   7.8945200e+02   6.9215600e+02
   7.8993400e+02   6.8966100e+02
   7.9041600e+02   7.1902000e+02
   7.9089800e+02   7.0422500e+02
   7.9138000e+02   6.2299400e+02
   7.9186200e+02   6.4833800e+02
   7.9234400e+02   6.4234700e+02
   7.9282600e+02   5.1346500e+02
   7.9330900e+02   5.4626200e+02
   7.9379100e+02   5.3353300e+02
   7.9427300e+02   4.6667000e+02
   7.9475500e+02   4.6377100e+02
   7.9523700e+02   4.5485400e+02
   7.9571900e+02   4.3996900e+02
   7.9620100e+02   4.1895700e+02
   7.9668300e+02   3.7910600e+02
   7.9716600e+02   3.4645800e+02
   7.9764800e+02   3.4024300e+02
   7.9813000e+02   3.5130400e+02
   7.9861200e+02   3.4324400e+02
   7.9909400e+02   3.0188700e+02
   7.9957600e+02   2.6855400e+02
   8.0005800e+02   2.5672300e+02
   8.0054000e+02   2.5829200e+02
   8.0102300e+02   2.4541800e+02
   8.0150500e+02   2.2024200e+02
   8.0198700e+02   2.0588300e+02
   8.0246900e+02   2.1474800e+02
   8.0295100e+02   2.3835500e+02
   8.0343300e+02   2.8898000e+02
   8.0391500e+02   3.4874200e+02
   8.0439700e+02   3.6210000e+02
   8.0487900e+02   2.6077100e+02
   8.0536200e+02   1.5954400e+02
   8.0584400e+02   9.5250000e+01
   8.0632600e+02   6.3566000e+01
   8.0680800e+02   5.2014000e+01
   8.0729000e+02   6.9035000e+01
   8.0777200e+02   8.0374000e+01
   8.0825400e+02   7.0340000e+01
   8.0873600e+02   4.9054000e+01
   8.0921800e+02   4.8706000e+01
   8.0970100e+02   6.5457000e+01
   8.1018300e+02   7.6402000e+01
   8.1066500e+02   6.2730000e+01
   8.1114700e+02   4.3358000e+01
   8.1162900e+02   3.7030000e+01
   8.1211100e+02   3.9422000e+01
   8.1259300e+02   3.2156000e+01
   8.1307500e+02   1.4072000e+01
   8.1355700e+02   4.2402000e+01
   8.1404000e+02   3.0075000e+01
   8.1452200e+02   1.3613000e+01
   8.1500400e+02   3.9547000e+01
   8.1548600e+02   4.6115000e+01
   8.1596800e+02   4.7137000e+01
   8.1645000e+02   4.7983000e+01
   8.1693200e+02   4.7672000e+01
   8.1741400e+02   3.5172000e+01
   8.1789600e+02   1.7018000e+01
   8.1837900e+02   2.0375000e+01
   8.1886100e+02   9.9303000e+01
   8.1934300e+02   1.6809200e+02
   8.1982500e+02   1.6233100e+02
   8.2030700e+02   9.5119000e+01
   8.2078900e+02   4.9787000e+01
   8.2127100e+02   3.8947000e+01
   8.2175300e+02   3.9854000e+01
   8.2223600e+02   5.3508000e+01
   8.2271800e+02   7.2340000e+01
   8.2320000e+02   5.4399000e+01
   8.2368200e+02   6.1204000e+01
   8.2416400e+02   4.2487000e+01
   8.2464600e+02   4.6697000e+01
   8.2512800e+02   3.1437000e+01
   8.2561000e+02   2.0648000e+01
   8.2609300e+02   1.2118000e+01
   8.2657500e+02   1.6230000e+00
   8.2705700e+02   3.8179000e+01
   8.2753900e+02   6.5663000e+01
   8.2802100e+02   6.4627000e+01
   8.2850300e+02   4.3027000e+01
   8.2898500e+02   3.4066000e+01
   8.2946700e+02   4.3588000e+01
   8.2995000e+02   4.6858000e+01
   8.3043200e+02   3.0946000e+01
   8.3091400e+02   5.4340000e+00
   8.3139600e+02   2.2990000e+00
   8.3187800e+02   5.5800000e+00
   8.3236000e+02   1.8828000e+01
   8.3284200e+02   4.5133000e+01
   8.3332400e+02   6.3222000e+01
   8.3380700e+02   4.5216000e+01
   8.3428900e+02   3.5000000e+00
   8.3477100e+02   1.8190000e+01
   8.3525300e+02   1.2823000e+01
   8.3573500e+02   3.7550000e+01
   8.3621700e+02   4.4516000e+01
   8.3669900e+02   3.6169000e+01
   8.3718100e+02   4.6749000e+01
   8.3766300e+02   1.7334000e+01
   8.3814600e+02   3.7038000e+01
   8.3862800e+02   2.6544000e+01
   8.3911000e+02   2.4060000e+00
   8.3959200e+02   1.5167000e+01
   8.4007400e+02   2.5639000e+01
   8.4055600e+02   2.7459000e+01
   8.4103800e+02   7.3320000e+00
   8.4152000e+02   8.2460000e+00
   8.4200200e+02   5.0310000e+00
   8.4248500e+02   1.1441000e+01
   8.4296700e+02   2.5190000e+01
   8.4344900e+02   4.2126000e+01
   8.4393100e+02   3.7355000e+01
   8.4441300e+02   7.1870000e+00
   8.4489500e+02   6.3802000e+01
   8.4537700e+02   5.6274000e+01
   8.4585900e+02   1.7420000e+00
   8.4634100e+02   4.1992000e+01
   8.4682400e+02   2.7797000e+01
   8.4730600e+02   1.9390000e+00
   8.4778800e+02   2.3888000e+01
   8.4827000e+02   3.8060000e+01
   8.4875200e+02   4.4461000e+01
   8.4923400e+02   3.1224000e+01
   8.4971600e+02   2.6622000e+01
   8.5019800e+02   4.5369000e+01
   8.5068000e+02   6.8186000e+01
   8.5116300e+02   4.6614000e+01
   8.5164500e+02   6.9475000e+01
   8.5212700e+02   7.1453000e+01
   8.5260900e+02   8.4318000e+01
   8.5309100e+02   7.9623000e+01
   8.5357300e+02   8.4383000e+01
   8.5405500e+02   9.1875000e+01
   8.5453700e+02   8.8698000e+01
   8.5502000e+02   5.3796000e+01
   8.5550200e+02   2.8933000e+01
   8.5598400e+02   3.8228000e+01
   8.5646600e+02   6.2276000e+01
   8.5694800e+02   6.8956000e+01
   8.5743000e+02   4.5575000e+01
   8.5791200e+02   4.6410000e+01
   8.5839400e+02   8.6931000e+01
   8.5887700e+02   1.3482300e+02
   8.5935900e+02   1.3506000e+02
   8.5984100e+02   1.0028500e+02
   8.6032300e+02   6.9667000e+01
   8.6080500e+02   5.0289000e+01
   8.6128700e+02   4.4194000e+01
   8.6176900e+02   5.9100000e+01
   8.6225100e+02   8.5251000e+01
   8.6273400e+02   1.1094700e+02
   8.6321600e+02   1.4104300e+02
   8.6369800e+02   1.5963200e+02
   8.6418000e+02   1.6213900e+02
   8.6466200e+02   1.5917100e+02
   8.6514400e+02   1.6227900e+02
   8.6562600e+02   1.7107800e+02
   8.6610800e+02   1.8325800e+02
   8.6659000e+02   1.9990700e+02
   8.6707300e+02   2.1270400e+02
   8.6755500e+02   2.0547200e+02
   8.6803700e+02   1.8778800e+02
   8.6851900e+02   1.7318600e+02
   8.6900100e+02   1.6388400e+02
   8.6948300e+02   1.6559700e+02
   8.6996500e+02   1.9104200e+02
   8.7044700e+02   2.1994400e+02
   8.7092900e+02   2.3931000e+02
   8.7141200e+02   2.4793800e+02
   8.7189400e+02   2.4536200e+02
   8.7237600e+02   2.3043400e+02
   8.7285800e+02   2.1712800e+02
   8.7334000e+02   2.1228500e+02
   8.7382200e+02   2.1657000e+02
   8.7430400e+02   2.3940500e+02
   8.7478600e+02   2.8298100e+02
   8.7526800e+02   3.1685300e+02
   8.7575100e+02   3.2109700e+02
   8.7623300e+02   3.1127000e+02
   8.7671500e+02   2.9486900e+02
   8.7719700e+02   2.7235300e+02
   8.7767900e+02   2.6751700e+02
   8.7816100e+02   2.8474000e+02
   8.7864300e+02   3.0217300e+02
   8.7912500e+02   3.0650200e+02
   8.7960700e+02   3.0106900e+02
   8.8009000e+02   2.9420400e+02
   8.8057200e+02   2.8657400e+02
   8.8105400e+02   2.8456500e+02
   8.8153600e+02   2.9121400e+02
   8.8201800e+02   3.0195100e+02
   8.8250000e+02   3.2723500e+02
   8.8298200e+02   3.6588000e+02
   8.8346400e+02   3.7190200e+02
   8.8394700e+02   3.0567400e+02
   8.8442900e+02   2.6125300e+02
   8.8491100e+02   2.0887300e+02
   8.8539300e+02   3.9962200e+02
   8.8587500e+02   4.3776200e+02
   8.8635700e+02   4.6110900e+02
   8.8683900e+02   4.7045800e+02
   8.8732100e+02   4.2416700e+02
   8.8780400e+02   4.4971900e+02
   8.8828600e+02   4.4637600e+02
   8.8876800e+02   4.5845200e+02
   8.8925000e+02   4.6701300e+02
   8.8973200e+02   4.6302700e+02
   8.9021400e+02   4.5828600e+02
   8.9069600e+02   4.5019100e+02
   8.9117800e+02   4.4535000e+02
   8.9166100e+02   4.6805100e+02
   8.9214300e+02   5.1836700e+02
   8.9262500e+02   5.4848900e+02
   8.9310700e+02   5.4025000e+02
   8.9358900e+02   5.2163700e+02
   8.9407100e+02   5.3321400e+02
   8.9455300e+02   5.6073800e+02
   8.9503500e+02   5.7850900e+02
   8.9551700e+02   5.6157500e+02
   8.9600000e+02   5.5071100e+02
   8.9648200e+02   5.6037700e+02
   8.9696400e+02   5.8072800e+02
   8.9744600e+02   5.9726400e+02
   8.9792800e+02   6.0761100e+02
   8.9841000e+02   6.3034400e+02
   8.9889200e+02   6.7331400e+02
   8.9937400e+02   7.0533600e+02
   8.9985600e+02   6.7125000e+02
   9.0033900e+02   6.0622900e+02
   9.0082100e+02   5.7679000e+02
   9.0130300e+02   6.0805900e+02
   9.0178500e+02   6.3375100e+02
   9.0226700e+02   6.2094100e+02
   9.0274900e+02   5.8890700e+02
   9.0323100e+02   5.5766700e+02
   9.0371300e+02   5.2551100e+02
   9.0419500e+02   5.1605500e+02
   9.0467800e+02   5.3194700e+02
   9.0516000e+02   5.5156300e+02
   9.0564200e+02   5.5961800e+02
   9.0612400e+02   5.5740800e+02
   9.0660600e+02   5.4125000e+02
   9.0708800e+02   5.1277800e+02
   9.0757000e+02   4.9638000e+02
   9.0805200e+02   5.2830700e+02
   9.0853400e+02   5.5561900e+02
   9.0901700e+02   5.3455200e+02
   9.0949900e+02   4.6468200e+02
   9.0998100e+02   4.4597900e+02
   9.1046300e+02   4.9508400e+02
   9.1094500e+02   5.4334200e+02
   9.1142700e+02   5.5590300e+02
   9.1190900e+02   5.4132700e+02
   9.1239100e+02   5.1893200e+02
   9.1287400e+02   4.9044500e+02
   9.1335600e+02   4.6632800e+02
   9.1383800e+02   4.5875200e+02
   9.1432000e+02   4.5266300e+02
   9.1480200e+02   4.3998500e+02
   9.1528400e+02   4.2054200e+02
   9.1576600e+02   3.9597200e+02
   9.1624800e+02   3.5971600e+02
   9.1673100e+02   3.3573400e+02
   9.1721300e+02   3.3376000e+02
   9.1769500e+02   3.4251900e+02
   9.1817700e+02   3.3777500e+02
   9.1865900e+02   3.2162000e+02
   9.1914100e+02   3.0344900e+02
   9.1962300e+02   2.9330200e+02
   9.2010500e+02   2.7155700e+02
   9.2058800e+02   2.0548200e+02
   9.2107000e+02   1.2550000e+02
   9.2155200e+02   8.0169000e+01
   9.2203400e+02   9.7820000e+01
   9.2251600e+02   1.0691100e+02
   9.2299800e+02   1.0581900e+02
   9.2348000e+02   9.1051000e+01
   9.2396200e+02   8.5688000e+01
   9.2444400e+02   6.8726000e+01
   9.2492700e+02   5.2913000e+01
   9.2540900e+02   3.5930000e+01
   9.2589100e+02   1.0631000e+01
   9.2637300e+02   1.8720000e+00
   9.2685500e+02   3.0080000e+00
   9.2733700e+02   9.2630000e+00
   9.2781900e+02   2.2209000e+01
   9.2830100e+02   3.2269000e+01
   9.2878300e+02   3.6524000e+01
   9.2926600e+02   4.3007000e+01
   9.2974800e+02   6.2400000e+01
   9.3023000e+02   9.0407000e+01
   9.3071200e+02   9.6215000e+01
   9.3119400e+02   8.0873000e+01
   9.3167600e+02   6.2845000e+01
   9.3215800e+02   5.6672000e+01
   9.3264000e+02   5.1333000e+01
   9.3312200e+02   3.3600000e+01
   9.3360500e+02   5.2370000e+00
   9.3408700e+02   3.5330000e+00
   9.3456900e+02   2.0904000e+01
   9.3505100e+02   4.1423000e+01
   9.3553300e+02   4.4832000e+01
   9.3601500e+02   3.7271000e+01
   9.3649700e+02   3.7684000e+01
   9.3697900e+02   4.4594000e+01
   9.3746100e+02   4.9520000e+01
   9.3794400e+02   5.3063000e+01
   9.3842600e+02   4.8034000e+01
   9.3890800e+02   4.8800000e+01
   9.3939000e+02   5.1509000e+01
   9.3987200e+02   4.3015000e+01
   9.4035400e+02   5.1592000e+01
   9.4083600e+02   5.1089000e+01
   9.4131800e+02   3.8276000e+01
   9.4180100e+02   2.2991000e+01
   9.4228300e+02   2.0674000e+01
   9.4276500e+02   2.8773000e+01
   9.4324700e+02   3.3382000e+01
   9.4372900e+02   2.9999000e+01
   9.4421100e+02   3.3745000e+01
   9.4469300e+02   6.3291000e+01
   9.4517500e+02   1.0117400e+02
   9.4565700e+02   1.2978500e+02
   9.4614000e+02   1.4170400e+02
   9.4662200e+02   1.6175000e+02
   9.4710400e+02   1.9509200e+02
   9.4758600e+02   2.2572500e+02
   9.4806800e+02   2.3572900e+02
   9.4855000e+02   2.3202200e+02
   9.4903200e+02   2.5101000e+02
   9.4951500e+02   2.9125000e+02
   9.4999700e+02   3.2611000e+02
   9.5047900e+02   3.3299000e+02
   9.5096100e+02   3.3338400e+02
   9.5144300e+02   3.3886600e+02
   9.5192500e+02   3.5048900e+02
   9.5240700e+02   3.6941300e+02
   9.5288900e+02   3.9951200e+02
   9.5337100e+02   4.2647700e+02
   9.5385400e+02   4.4305700e+02
   9.5433600e+02   4.5635400e+02
   9.5481800e+02   4.8051600e+02
   9.5530000e+02   5.1568400e+02
   9.5578200e+02   5.6404400e+02
   9.5626400e+02   6.4028500e+02
   9.5674600e+02   7.1143800e+02
   9.5722800e+02   7.5414600e+02
   9.5771000e+02   7.8245200e+02
   9.5819300e+02   8.1907800e+02
   9.5867500e+02   8.6076800e+02
   9.5915700e+02   9.2558400e+02
   9.5963900e+02   1.0228120e+03
   9.6012100e+02   1.1212130e+03
   9.6060300e+02   1.1835210e+03
   9.6108500e+02   1.2184260e+03
   9.6156700e+02   1.2344540e+03
   9.6204900e+02   1.2264160e+03
   9.6253200e+02   1.2571770e+03
   9.6301400e+02   1.3921930e+03
   9.6349600e+02   1.5532520e+03
   9.6397800e+02   1.6833780e+03
   9.6446000e+02   1.7793890e+03
   9.6494200e+02   1.8780350e+03
   9.6542400e+02   1.9758630e+03
   9.6590600e+02   2.0896060e+03
   9.6638800e+02   2.2294340e+03
   9.6687100e+02   2.3906670e+03
   9.6735300e+02   2.5623300e+03
   9.6783500e+02   2.7470000e+03
   9.6831700e+02   2.9641260e+03
   9.6879900e+02   3.2312470e+03
   9.6928100e+02   3.5206870e+03
   9.6976300e+02   3.8200220e+03
   9.7024500e+02   4.1348950e+03
   9.7072800e+02   4.4603850e+03
   9.7121000e+02   4.7966840e+03
   9.7169200e+02   5.1826040e+03
   9.7217400e+02   5.6309330e+03
   9.7265600e+02   6.1366800e+03
   9.7313800e+02   6.7187860e+03
   9.7362000e+02   7.3519520e+03
   9.7410200e+02   7.9685650e+03
   9.7458400e+02   8.5192440e+03
   9.7506700e+02   9.1458030e+03
   9.7554900e+02   9.9009410e+03
   9.7603100e+02   1.0714577e+04
   9.7651300e+02   1.1529243e+04
   9.7699500e+02   1.2341608e+04
   9.7747700e+02   1.3156126e+04
   9.7795900e+02   1.3971259e+04
   9.7844200e+02   1.4810834e+04
   9.7892400e+02   1.5721998e+04
   9.7940600e+02   1.6660721e+04
   9.7988800e+02   1.7586951e+04
   9.8037000e+02   1.8496080e+04
   9.8085200e+02   1.9350408e+04
   9.8133400e+02   2.0151896e+04
   9.8181600e+02   2.0895074e+04
   9.8229800e+02   2.1591186e+04
   9.8278100e+02   2.2218059e+04
   9.8326300e+02   2.2703812e+04
   9.8374500e+02   2.3051686e+04
   9.8422700e+02   2.3277008e+04
   9.8470900e+02   2.3374463e+04
   9.8519100e+02   2.3366293e+04
   9.8567300e+02   2.3243525e+04
   9.8615500e+02   2.3032299e+04
   9.8663800e+02   2.2773242e+04
   9.8712000e+02   2.2449912e+04
   9.8760200e+02   2.2112756e+04
   9.8808400e+02   2.1746082e+04
   9.8856600e+02   2.1416154e+04
   9.8904800e+02   2.1213447e+04
   9.8953000e+02   2.1113316e+04
   9.9001200e+02   2.1032025e+04
   9.9049400e+02   2.0954484e+04
   9.9097700e+02   2.0960412e+04
   9.9145900e+02   2.1096373e+04
   9.9194100e+02   2.1331605e+04
   9.9242300e+02   2.1643475e+04
   9.9290500e+02   2.2029861e+04
   9.9338700e+02   2.2528102e+04
   9.9386900e+02   2.3148543e+04
   9.9435100e+02   2.3844201e+04
   9.9483300e+02   2.4583635e+04
   9.9531600e+02   2.5389857e+04
   9.9579800e+02   2.6285771e+04
   9.9628000e+02   2.7278129e+04
   9.9676200e+02   2.8358381e+04
   9.9724400e+02   2.9568021e+04
   9.9772600e+02   3.0822396e+04
   9.9820800e+02   3.2093576e+04
   9.9869000e+02   3.3415336e+04
   9.9917200e+02   3.4847375e+04
   9.9965500e+02   3.6395859e+04
   1.0001370e+03   3.7959105e+04
   1.0006190e+03   3.9513516e+04
   1.0011010e+03   4.0966652e+04
   1.0015830e+03   4.2283719e+04
   1.0020650e+03   4.3401809e+04
   1.0025470e+03   4.4298332e+04
   1.0030290e+03   4.5007234e+04
   1.0035120e+03   4.5254977e+04
   1.0039940e+03   4.5003180e+04
   1.0044760e+03   4.4363902e+04
   1.0049580e+03   4.3400918e+04
   1.0054400e+03   4.2104336e+04
   1.0059220e+03   4.0403547e+04
   1.0064040e+03   3.8318496e+04
   1.0068860e+03   3.6111105e+04
   1.0073680e+03   3.3772383e+04
   1.0078510e+03   3.1479197e+04
   1.0083330e+03   2.9302461e+04
   1.0088150e+03   2.7236320e+04
   1.0092970e+03   2.5277609e+04
   1.0097790e+03   2.3387156e+04
   1.0102610e+03   2.1666482e+04
   1.0107430e+03   2.0139809e+04
   1.0112250e+03   1.8777891e+04
   1.0117080e+03   1.7611262e+04
   1.0121900e+03   1.6602748e+04
   1.0126720e+03   1.5681730e+04
   1.0131540e+03   1.4849513e+04
   1.0136360e+03   1.4070581e+04
   1.0141180e+03   1.3331305e+04
   1.0146000e+03   1.2644043e+04
   1.0150820e+03   1.2009448e+04
   1.0155640e+03   1.1436616e+04
   1.0160470e+03   1.0912910e+04
   1.0165290e+03   1.0438758e+04
   1.0170110e+03   1.0001001e+04
   1.0174930e+03   9.5913630e+03
   1.0179750e+03   9.2073600e+03
   1.0184570e+03   8.8401970e+03
   1.0189390e+03   8.4955050e+03
   1.0194210e+03   8.1843600e+03
   1.0199040e+03   7.8924880e+03
   1.0203860e+03   7.6646240e+03
   1.0208680e+03   7.5279030e+03
   1.0213500e+03   7.4358840e+03
   1.0218320e+03   7.2987290e+03
   1.0223140e+03   7.1278840e+03
   1.0227960e+03   6.9761610e+03
   1.0232780e+03   6.8615910e+03
   1.0237600e+03   6.7439210e+03
   1.0242430e+03   6.5949150e+03
   1.0247250e+03   6.4329490e+03
   1.0252070e+03   6.2728760e+03
   1.0256890e+03   6.1136620e+03
   1.0261710e+03   5.9662510e+03
   1.0266530e+03   5.8327010e+03
   1.0271350e+03   5.7047910e+03
   1.0276170e+03   5.5765320e+03
   1.0280990e+03   5.4491770e+03
   1.0285820e+03   5.3297510e+03
   1.0290640e+03   5.2146370e+03
   1.0295460e+03   5.0864750e+03
   1.0300280e+03   4.9412210e+03
   1.0305100e+03   4.7791090e+03
   1.0309920e+03   4.5966380e+03
   1.0314740e+03   4.3998380e+03
   1.0319560e+03   4.2107680e+03
   1.0324380e+03   4.0257900e+03
   1.0329210e+03   3.8080520e+03
   1.0334030e+03   3.5477330e+03
   1.0338850e+03   3.2641260e+03
   1.0343670e+03   2.9422790e+03
   1.0348490e+03   2.6221340e+03
   1.0353310e+03   2.3418470e+03
   1.0358130e+03   2.1110120e+03
   1.0362950e+03   1.9005570e+03
   1.0367780e+03   1.7050300e+03
   1.0372600e+03   1.5398350e+03
   1.0377420e+03   1.4325690e+03
   1.0382240e+03   1.3572240e+03
   1.0387060e+03   1.2465480e+03
   1.0391880e+03   1.1079100e+03
   1.0396700e+03   9.7979300e+02
   1.0401520e+03   8.8283300e+02
   1.0406350e+03   7.9479800e+02
   1.0411170e+03   6.9979400e+02
   1.0415990e+03   6.4170200e+02
   1.0420810e+03   5.5889100e+02
   1.0425630e+03   5.4259400e+02
   1.0430450e+03   5.2336700e+02
   1.0435270e+03   4.9545500e+02
   1.0440090e+03   4.5556200e+02
   1.0444910e+03   3.8430000e+02
   1.0449740e+03   3.0837800e+02
   1.0454560e+03   2.5701600e+02
   1.0459380e+03   2.3828500e+02
   1.0464200e+03   2.3412800e+02
   1.0469020e+03   2.5331800e+02
   1.0473840e+03   2.6559600e+02
   1.0478660e+03   2.4896400e+02
   1.0483480e+03   2.1424100e+02
   1.0488300e+03   2.0221400e+02
   1.0493130e+03   2.0539600e+02
   1.0497950e+03   1.9356000e+02
   1.0502770e+03   1.2340700e+02
   1.0507590e+03   6.7441000e+01
   1.0512410e+03   6.6169000e+01
   1.0517230e+03   9.2445000e+01
   1.0522050e+03   1.0983900e+02
   1.0526870e+03   1.1865300e+02
   1.0531700e+03   1.0994200e+02
   1.0536520e+03   7.9548000e+01
   1.0541340e+03   4.9448000e+01
   1.0546160e+03   4.7604000e+01
   1.0550980e+03   5.4674000e+01
   1.0555800e+03   4.5990000e+01
   1.0560620e+03   1.5719000e+01
   1.0565440e+03   2.5370000e+00
   1.0570260e+03   1.9337000e+01
   1.0575090e+03   3.2444000e+01
   1.0579910e+03   2.7345000e+01
   1.0584730e+03   8.3690000e+00
   1.0589550e+03   1.6581000e+01
   1.0594370e+03   4.5157000e+01
   1.0599190e+03   6.8375000e+01
   1.0604010e+03   8.8429000e+01
   1.0608830e+03   9.5123000e+01
   1.0613650e+03   7.4213000e+01
   1.0618480e+03   4.3665000e+01
   1.0623300e+03   2.2341000e+01
   1.0628120e+03   9.8540000e+00
   1.0632940e+03   1.4031000e+01
   1.0637760e+03   3.7081000e+01
   1.0642580e+03   5.8532000e+01
   1.0647400e+03   5.1840000e+01
   1.0652220e+03   4.0141000e+01
   1.0657050e+03   5.2736000e+01
   1.0661870e+03   8.9975000e+01
   1.0666690e+03   1.0781000e+02
   1.0671510e+03   9.4869000e+01
   1.0676330e+03   7.9615000e+01
   1.0681150e+03   6.9849000e+01
   1.0685970e+03   6.3396000e+01
   1.0690790e+03   5.3919000e+01
   1.0695620e+03   4.3920000e+01
   1.0700440e+03   4.1932000e+01
   1.0705260e+03   5.9402000e+01
   1.0710080e+03   6.6831000e+01
   1.0714900e+03   4.3879000e+01
   1.0719720e+03   1.2673000e+01
   1.0724540e+03   9.3050000e+00
   1.0729360e+03   2.0997000e+01
   1.0734180e+03   3.3523000e+01
   1.0739010e+03   4.6680000e+01
   1.0743830e+03   6.8278000e+01
   1.0748650e+03   1.0795400e+02
   1.0753470e+03   1.5471000e+02
   1.0758290e+03   1.9399800e+02
   1.0763110e+03   2.3088400e+02
   1.0767930e+03   2.8864600e+02
   1.0772750e+03   3.7375000e+02
   1.0777570e+03   4.5970600e+02
   1.0782400e+03   5.3249300e+02
   1.0787220e+03   6.2315000e+02
   1.0792040e+03   8.0510300e+02
   1.0796860e+03   1.0315750e+03
   1.0801680e+03   1.2096410e+03
   1.0806500e+03   1.3094440e+03
   1.0811320e+03   1.4124670e+03
   1.0816150e+03   1.5333670e+03
   1.0820970e+03   1.6794870e+03
   1.0825790e+03   1.8635660e+03
   1.0830610e+03   2.0786760e+03
   1.0835430e+03   2.2828740e+03
   1.0840250e+03   2.4741540e+03
   1.0845070e+03   2.6188830e+03
   1.0849890e+03   2.7052490e+03
   1.0854710e+03   2.7333620e+03
   1.0859530e+03   2.6957830e+03
   1.0864360e+03   2.5993900e+03
   1.0869180e+03   2.4587340e+03
   1.0874000e+03   2.2653460e+03
   1.0878820e+03   2.0607050e+03
   1.0883640e+03   1.8434770e+03
   1.0888460e+03   1.6361930e+03
   1.0893280e+03   1.4707870e+03
   1.0898100e+03   1.3268390e+03
   1.0902930e+03   1.1726180e+03
   1.0907750e+03   1.0064240e+03
   1.0912570e+03   8.7340300e+02
   1.0917390e+03   7.9483900e+02
   1.0922210e+03   7.2895900e+02
   1.0927030e+03   6.6397500e+02
   1.0931850e+03   6.0327600e+02
   1.0936670e+03   5.4405200e+02
   1.0941500e+03   4.9615900e+02
   1.0946320e+03   5.0342100e+02
   1.0951140e+03   6.2218600e+02
   1.0955960e+03   6.9706200e+02
   1.0960780e+03   6.1955000e+02
   1.0965600e+03   4.9227400e+02
   1.0970420e+03   3.9585100e+02
   1.0975240e+03   3.2975700e+02
   1.0980060e+03   3.0350400e+02
   1.0984890e+03   3.1761100e+02
   1.0989710e+03   3.2992900e+02
   1.0994530e+03   2.9971100e+02
   1.0999350e+03   2.6639000e+02
   1.1004170e+03   2.6696400e+02
   1.1008990e+03   2.9250700e+02
   1.1013810e+03   3.1358700e+02
   1.1018630e+03   3.3355900e+02
   1.1023450e+03   3.3138500e+02
   1.1028280e+03   2.9760400e+02
   1.1033100e+03   2.6010200e+02
   1.1037920e+03   2.6152700e+02
   1.1042740e+03   2.8134200e+02
   1.1047560e+03   2.8161100e+02
   1.1052380e+03   2.5367500e+02
   1.1057200e+03   2.4516300e+02
   1.1062020e+03   2.9225700e+02
   1.1066850e+03   3.2666000e+02
   1.1071670e+03   3.1482800e+02
   1.1076490e+03   2.7378100e+02
   1.1081310e+03   2.6448800e+02
   1.1086130e+03   2.8046300e+02
   1.1090950e+03   2.9533000e+02
   1.1095770e+03   2.9845100e+02
   1.1100590e+03   3.0122200e+02
   1.1105420e+03   2.9392500e+02
   1.1110240e+03   2.9254100e+02
   1.1115060e+03   3.1905800e+02
   1.1119880e+03   3.7859000e+02
   1.1124700e+03   4.2132200e+02
   1.1129520e+03   4.4554200e+02
   1.1134340e+03   4.7173300e+02
   1.1139160e+03   5.1778200e+02
   1.1143980e+03   5.7053400e+02
   1.1148800e+03   6.2061900e+02
   1.1153630e+03   6.6754900e+02
   1.1158450e+03   7.1089500e+02
   1.1163270e+03   7.4494000e+02
   1.1168090e+03   7.9158500e+02
   1.1172910e+03   8.5308300e+02
   1.1177730e+03   9.3168200e+02
   1.1182550e+03   1.0405340e+03
   1.1187370e+03   1.1649390e+03
   1.1192200e+03   1.2794740e+03
   1.1197020e+03   1.3729000e+03
   1.1201840e+03   1.5066840e+03
   1.1206660e+03   1.6908220e+03
   1.1211480e+03   1.9127130e+03
   1.1216300e+03   2.1763850e+03
   1.1221120e+03   2.4684560e+03
   1.1225940e+03   2.7297190e+03
   1.1230770e+03   2.9828750e+03
   1.1235590e+03   3.2993880e+03
   1.1240410e+03   3.7189190e+03
   1.1245230e+03   4.1853120e+03
   1.1250050e+03   4.6845610e+03
   1.1254870e+03   5.2218220e+03
   1.1259690e+03   5.8162330e+03
   1.1264510e+03   6.4639960e+03
   1.1269330e+03   7.1314720e+03
   1.1274160e+03   7.8138490e+03
   1.1278980e+03   8.3409540e+03
   1.1283800e+03   8.6489290e+03
   1.1288620e+03   8.6992990e+03
   1.1293440e+03   8.3981640e+03
   1.1298260e+03   7.7977890e+03
   1.1303080e+03   7.1000350e+03
   1.1307900e+03   6.2707390e+03
   1.1312720e+03   5.5094560e+03
   1.1317550e+03   4.8449290e+03
   1.1322370e+03   4.2925110e+03
   1.1327190e+03   3.8605390e+03
   1.1332010e+03   3.5438600e+03
   1.1336830e+03   3.3519650e+03
   1.1341650e+03   3.2997090e+03
   1.1346470e+03   3.2883610e+03
   1.1351290e+03   3.2926810e+03
   1.1356120e+03   3.3704500e+03
   1.1360940e+03   3.5535940e+03
   1.1365760e+03   3.8180290e+03
   1.1370580e+03   4.1196360e+03
   1.1375400e+03   4.4585610e+03
   1.1380220e+03   4.8402680e+03
   1.1385040e+03   5.3038540e+03
   1.1389860e+03   5.7533670e+03
   1.1394690e+03   6.2298720e+03
   1.1399510e+03   6.6220360e+03
   1.1404330e+03   6.8738520e+03
   1.1409150e+03   6.9688280e+03
   1.1413970e+03   6.8090400e+03
   1.1418790e+03   6.4062720e+03
   1.1423610e+03   5.8755490e+03
   1.1428430e+03   5.1701200e+03
   1.1433250e+03   4.4644270e+03
   1.1438070e+03   3.8021990e+03
   1.1442900e+03   3.1952250e+03
   1.1447720e+03   2.6891060e+03
   1.1452540e+03   2.2768560e+03
   1.1457360e+03   1.9440050e+03
   1.1462180e+03   1.6889360e+03
   1.1467000e+03   1.4702710e+03
   1.1471820e+03   1.2496690e+03
   1.1476640e+03   1.0566100e+03
   1.1481470e+03   9.2608300e+02
   1.1486290e+03   8.5030400e+02
   1.1491110e+03   7.7538800e+02
   1.1495930e+03   7.0112700e+02
   1.1500750e+03   6.3822700e+02
   1.1505570e+03   5.9542500e+02
   1.1510390e+03   5.5320600e+02
   1.1515210e+03   4.8084400e+02
   1.1520040e+03   3.9992900e+02
   1.1524860e+03   3.3889100e+02
   1.1529680e+03   3.0699700e+02
   1.1534500e+03   2.7310100e+02
   1.1539320e+03   2.3396700e+02
   1.1544140e+03   2.0581900e+02
   1.1548960e+03   2.1078800e+02
   1.1553780e+03   2.2661700e+02
   1.1558600e+03   2.1923100e+02
   1.1563430e+03   1.9274700e+02
   1.1568250e+03   1.5896000e+02
   1.1573070e+03   1.0627500e+02
   1.1577890e+03   6.9442000e+01
   1.1582710e+03   5.2826000e+01
   1.1587530e+03   4.8906000e+01
   1.1592350e+03   5.5493000e+01
   1.1597170e+03   6.6503000e+01
   1.1601990e+03   6.5271000e+01
   1.1606820e+03   5.1716000e+01
   1.1611640e+03   4.3974000e+01
   1.1616460e+03   5.6205000e+01
   1.1621280e+03   6.7685000e+01
   1.1626100e+03   7.4559000e+01
   1.1630920e+03   7.5168000e+01
   1.1635740e+03   6.0336000e+01
   1.1640560e+03   3.5484000e+01
   1.1645390e+03   2.0285000e+01
   1.1650210e+03   2.0029000e+01
   1.1655030e+03   2.5220000e+01
   1.1659850e+03   1.9035000e+01
   1.1664670e+03   5.6153000e+01
   1.1669490e+03   2.5025000e+01
   1.1674310e+03   3.5997000e+01
   1.1679130e+03   5.2481000e+01
   1.1683960e+03   2.8683000e+01
   1.1688780e+03   1.1400000e+00
   1.1693600e+03   1.4171000e+01
   1.1698420e+03   2.8957000e+01
   1.1703240e+03   5.9716000e+01
   1.1708060e+03   8.6877000e+01
   1.1712880e+03   8.4570000e+01
   1.1717700e+03   4.6702000e+01
   1.1722520e+03   3.8013000e+01
   1.1727340e+03   5.9819000e+01
   1.1732170e+03   7.6455000e+01
   1.1736990e+03   5.1132000e+01
   1.1741810e+03   2.2218000e+01
   1.1746630e+03   2.2609000e+01
   1.1751450e+03   4.1917000e+01
   1.1756270e+03   4.8365000e+01
   1.1761090e+03   3.9673000e+01
   1.1765910e+03   2.6813000e+01
   1.1770740e+03   9.7120000e+00
   1.1775560e+03   3.7170000e+00
   1.1780380e+03   3.5870000e+00
   1.1785200e+03   2.3290000e+00
   1.1790020e+03   9.2990000e+00
   1.1794840e+03   1.5992000e+01
   1.1799660e+03   7.7950000e+00
   1.1804480e+03   2.5796000e+01
   1.1809310e+03   3.3025000e+01
   1.1814130e+03   1.0312000e+01
   1.1818950e+03   6.1950000e+01
   1.1823770e+03   6.1020000e+01
   1.1828590e+03   3.2465000e+01
   1.1833410e+03   7.6460000e+00
   1.1838230e+03   1.0274000e+01
   1.1843050e+03   5.0500000e+00
   1.1847870e+03   3.6869000e+01
   1.1852700e+03   6.2861000e+01
   1.1857520e+03   2.9672000e+01
   1.1862340e+03   2.0583000e+01
   1.1867160e+03   2.1210000e+00
   1.1871980e+03   2.8816000e+01
   1.1876800e+03   1.7299000e+01
   1.1881620e+03   2.5346000e+01
   1.1886440e+03   1.6001000e+01
   1.1891260e+03   4.6052000e+01
   1.1896090e+03   6.3210000e+01
   1.1900910e+03   6.8167000e+01
   1.1905730e+03   2.4470000e+01
   1.1910550e+03   4.3569000e+01
   1.1915370e+03   3.7477000e+01
   1.1920190e+03   4.4025000e+01
   1.1925010e+03   4.0576000e+01
   1.1929830e+03   3.0189000e+01
   1.1934660e+03   2.2117000e+01
   1.1939480e+03   1.6229000e+01
   1.1944300e+03   1.6231000e+01
   1.1949120e+03   1.7811000e+01
   1.1953940e+03   3.9970000e+00
   1.1958760e+03   2.6226000e+01
   1.1963580e+03   4.7859000e+01
   1.1968400e+03   4.5930000e+01
   1.1973230e+03   3.7268000e+01
   1.1978050e+03   2.2768000e+01
   1.1982870e+03   9.4310000e+00
   1.1987690e+03   1.7222000e+01
   1.1992510e+03   4.0205000e+01
   1.1997330e+03   5.8153000e+01
   1.2002150e+03   6.5857000e+01
   1.2006970e+03   7.2203000e+01
   1.2011790e+03   9.2617000e+01
   1.2016610e+03   9.8806000e+01
   1.2021440e+03   6.7215000e+01
   1.2026260e+03   1.2227000e+01
   1.2031080e+03   9.7160000e+00
   1.2035900e+03   4.7659000e+01
   1.2040720e+03   6.7393000e+01
   1.2045540e+03   3.2892000e+01
   1.2050360e+03   2.2580000e+00
   1.2055180e+03   1.7470000e+00
   1.2060010e+03   1.2122000e+01
   1.2064830e+03   4.3588000e+01
   1.2069650e+03   9.0783000e+01
   1.2074470e+03   1.1993200e+02
   1.2079290e+03   1.3143700e+02
   1.2084110e+03   1.2693100e+02
   1.2088930e+03   8.7338000e+01
   1.2093750e+03   5.4739000e+01
   1.2098580e+03   5.3699000e+01
   1.2103400e+03   6.8146000e+01
   1.2108220e+03   8.9050000e+01
   1.2113040e+03   1.1573600e+02
   1.2117860e+03   1.1779200e+02
   1.2122680e+03   9.3904000e+01
   1.2127500e+03   7.1021000e+01
   1.2132320e+03   6.3947000e+01
   1.2137140e+03   6.6812000e+01
   1.2141970e+03   8.4415000e+01
   1.2146790e+03   1.0656600e+02
   1.2151610e+03   1.0989000e+02
   1.2156430e+03   9.5438000e+01
   1.2161250e+03   8.9359000e+01
   1.2166070e+03   9.7385000e+01
   1.2170890e+03   1.0118800e+02
   1.2175710e+03   7.2100000e+01
   1.2180530e+03   4.8146000e+01
   1.2185360e+03   6.4692000e+01
   1.2190180e+03   5.4841000e+01
   1.2195000e+03   5.5928000e+01
   1.2199820e+03   8.2471000e+01
   1.2204640e+03   7.1761000e+01
   1.2209460e+03   1.0615500e+02
   1.2214280e+03   1.3838900e+02
   1.2219100e+03   1.2429700e+02
   1.2223930e+03   9.9870000e+01
   1.2228750e+03   9.7283000e+01
   1.2233570e+03   1.1593800e+02
   1.2238390e+03   1.3204300e+02
   1.2243210e+03   1.4517000e+02
   1.2248030e+03   1.4501600e+02
   1.2252850e+03   1.1762900e+02
   1.2257670e+03   8.5229000e+01
   1.2262500e+03   5.4154000e+01
   1.2267320e+03   3.5988000e+01
   1.2272140e+03   4.3188000e+01
   1.2276960e+03   7.8760000e+01
   1.2281780e+03   1.1028600e+02
   1.2286600e+03   1.3760700e+02
   1.2291420e+03   1.4895100e+02
   1.2296240e+03   1.1864800e+02
   1.2301060e+03   8.8932000e+01
   1.2305890e+03   8.9870000e+01
   1.2310710e+03   1.0892100e+02
   1.2315530e+03   1.2547000e+02
   1.2320350e+03   1.3978600e+02
   1.2325170e+03   1.4456900e+02
   1.2329990e+03   1.3942000e+02
   1.2334810e+03   1.3558600e+02
   1.2339630e+03   1.5425800e+02
   1.2344450e+03   1.6466700e+02
   1.2349280e+03   1.2933700e+02
   1.2354100e+03   7.3807000e+01
   1.2358920e+03   6.4587000e+01
   1.2363740e+03   1.0292000e+02
   1.2368560e+03   1.3579900e+02
   1.2373380e+03   1.5674300e+02
   1.2378200e+03   1.5750100e+02
   1.2383020e+03   1.0297300e+02
   1.2387850e+03   5.0219000e+01
   1.2392670e+03   5.1695000e+01
   1.2397490e+03   4.1794000e+01
   1.2402310e+03   4.8671000e+01
   1.2407130e+03   5.9257000e+01
   1.2411950e+03   1.1011300e+02
   1.2416770e+03   8.8162000e+01
   1.2421590e+03   1.1916400e+02
   1.2426410e+03   1.3474000e+02
   1.2431240e+03   1.3647800e+02
   1.2436060e+03   8.7909000e+01
   1.2440880e+03   1.0725100e+02
   1.2445700e+03   1.0156600e+02
   1.2450520e+03   9.4320000e+01
   1.2455340e+03   1.1885200e+02
   1.2460160e+03   9.5610000e+01
   1.2464980e+03   9.8030000e+01
   1.2469800e+03   1.2325700e+02
   1.2474630e+03   1.4665000e+02
   1.2479450e+03   1.3790300e+02
   1.2484270e+03   9.6656000e+01
   1.2489090e+03   8.9211000e+01
   1.2493910e+03   1.1399700e+02
   1.2498730e+03   1.3694000e+02
   1.2503550e+03   1.3097500e+02
   1.2508370e+03   1.2942800e+02
   1.2513200e+03   1.6801400e+02
   1.2518020e+03   2.0740700e+02
   1.2522840e+03   1.9945400e+02
   1.2527660e+03   1.5020300e+02
   1.2532480e+03   1.1276600e+02
   1.2537300e+03   8.7045000e+01
   1.2542120e+03   7.1822000e+01
   1.2546940e+03   7.9267000e+01
   1.2551770e+03   8.1904000e+01
   1.2556590e+03   5.7803000e+01
   1.2561410e+03   2.9409000e+01
   1.2566230e+03   2.8439000e+01
   1.2571050e+03   5.1145000e+01
   1.2575870e+03   6.6231000e+01
   1.2580690e+03   7.1901000e+01
   1.2585510e+03   7.5740000e+01
   1.2590330e+03   8.2662000e+01
   1.2595160e+03   8.9154000e+01
   1.2599980e+03   9.3922000e+01
   1.2604800e+03   9.7581000e+01
   1.2609620e+03   1.0332700e+02
   1.2614440e+03   1.0900400e+02
   1.2619260e+03   1.0360000e+02
   1.2624080e+03   8.5544000e+01
   1.2628900e+03   6.9799000e+01
   1.2633720e+03   6.3788000e+01
   1.2638550e+03   6.4285000e+01
   1.2643370e+03   7.2880000e+01
   1.2648190e+03   8.3470000e+01
   1.2653010e+03   8.4137000e+01
   1.2657830e+03   7.5011000e+01
   1.2662650e+03   5.0197000e+01
   1.2667470e+03   3.2470000e+00
   1.2672290e+03   2.1455000e+01
   1.2677120e+03   8.5170000e+00
   1.2681940e+03   4.0880000e+01
   1.2686760e+03   5.6505000e+01
   1.2691580e+03   6.1719000e+01
   1.2696400e+03   7.4064000e+01
   1.2701220e+03   8.8274000e+01
   1.2706040e+03   8.9962000e+01
   1.2710860e+03   7.0315000e+01
   1.2715680e+03   4.5823000e+01
   1.2720510e+03   5.8417000e+01
   1.2725330e+03   3.7013000e+01
   1.2730150e+03   7.2651000e+01
   1.2734970e+03   9.2486000e+01
   1.2739790e+03   9.7320000e+01
   1.2744610e+03   4.2192000e+01
   1.2749430e+03   6.4472000e+01
   1.2754250e+03   5.5736000e+01
   1.2759070e+03   1.6404700e+02
   1.2763900e+03   1.3976900e+02
   1.2768720e+03   1.2844200e+02
   1.2773540e+03   1.1415500e+02
   1.2778360e+03   1.0284500e+02
   1.2783180e+03   1.1342100e+02
   1.2788000e+03   1.3355100e+02
   1.2792820e+03   1.3290400e+02
   1.2797640e+03   9.0196000e+01
   1.2802470e+03   6.5201000e+01
   1.2807290e+03   6.2119000e+01
   1.2812110e+03   6.2327000e+01
   1.2816930e+03   4.5231000e+01
   1.2821750e+03   2.8042000e+01
   1.2826570e+03   3.3085000e+01
   1.2831390e+03   4.9518000e+01
   1.2836210e+03   6.8580000e+01
   1.2841040e+03   9.0052000e+01
   1.2845860e+03   8.5881000e+01
   1.2850680e+03   5.1234000e+01
   1.2855500e+03   1.5552000e+01
   1.2860320e+03   2.4590000e+00
   1.2865140e+03   5.3070000e+00
   1.2869960e+03   1.1064000e+01
   1.2874780e+03   4.0221000e+01
   1.2879600e+03   6.6599000e+01
   1.2884430e+03   9.1563000e+01
   1.2889250e+03   9.1225000e+01
   1.2894070e+03   6.0735000e+01
   1.2898890e+03   2.7809000e+01
   1.2903710e+03   1.2099000e+01
   1.2908530e+03   4.8550000e+00
   1.2913350e+03   4.9700000e-01
   1.2918170e+03   1.5000000e+00
   1.2922990e+03   1.5419000e+01
   1.2927820e+03   4.6002000e+01
   1.2932640e+03   6.4653000e+01
   1.2937460e+03   6.3604000e+01
   1.2942280e+03   5.4553000e+01
   1.2947100e+03   3.4816000e+01
   1.2951920e+03   2.0281000e+01
   1.2956740e+03   2.0523000e+01
   1.2961560e+03   3.0909000e+01
   1.2966390e+03   3.2437000e+01
   1.2971210e+03   2.6629000e+01
   1.2976030e+03   1.6739000e+01
   1.2980850e+03   5.7000000e-02
   1.2985670e+03   0.0000000e+00
   1.5000000e+03   0.0000000e+00
