   1.0000000e+02   0.0000000e+00
   1.2594040e+02   0.0000000e+00
   1.2642250e+02   2.4195900e-01
   1.2690460e+02   3.0594001e-02
   1.2738670e+02   2.6154940e+00
   1.2786880e+02   7.2071690e+00
   1.2835090e+02   1.3514130e+01
   1.2883310e+02   2.0620930e+01
   1.2931520e+02   2.7177170e+01
   1.2979730e+02   3.3476750e+01
   1.3027940e+02   4.1093200e+01
   1.3076150e+02   5.0485870e+01
   1.3124360e+02   6.1685840e+01
   1.3172580e+02   7.4474090e+01
   1.3220790e+02   8.8550220e+01
   1.3269000e+02   1.0502920e+02
   1.3317210e+02   1.2508250e+02
   1.3365420e+02   1.4861200e+02
   1.3413640e+02   1.7692750e+02
   1.3461850e+02   2.1114570e+02
   1.3510060e+02   2.5133450e+02
   1.3558270e+02   2.9655140e+02
   1.3606480e+02   3.4880440e+02
   1.3654690e+02   4.0431890e+02
   1.3702910e+02   4.5911120e+02
   1.3751120e+02   5.1686180e+02
   1.3799330e+02   5.5701940e+02
   1.3847540e+02   5.6598430e+02
   1.3895750e+02   5.4160170e+02
   1.3943960e+02   4.9660660e+02
   1.3992180e+02   4.2605340e+02
   1.4040390e+02   3.3636110e+02
   1.4088600e+02   2.5911880e+02
   1.4136810e+02   1.9558710e+02
   1.4185020e+02   1.4332750e+02
   1.4233230e+02   1.0303040e+02
   1.4281450e+02   7.6410280e+01
   1.4329660e+02   5.4815370e+01
   1.4377870e+02   3.8396210e+01
   1.4426080e+02   2.6988130e+01
   1.4474290e+02   1.8662280e+01
   1.4522500e+02   1.4620410e+01
   1.4570720e+02   1.3567180e+01
   1.4618930e+02   1.2244110e+01
   1.4667140e+02   9.0056920e+00
   1.4715350e+02   6.6775360e+00
   1.4763560e+02   6.4011540e+00
   1.4811780e+02   8.0918880e+00
   1.4859990e+02   9.8305050e+00
   1.4908200e+02   1.1715790e+01
   1.4956410e+02   1.2783910e+01
   1.5004620e+02   1.3742770e+01
   1.5052830e+02   1.5724300e+01
   1.5101050e+02   1.8150920e+01
   1.5149260e+02   1.7807560e+01
   1.5197470e+02   1.6494480e+01
   1.5245680e+02   1.5900940e+01
   1.5293890e+02   1.7123900e+01
   1.5342100e+02   1.8824920e+01
   1.5390320e+02   1.9135740e+01
   1.5438530e+02   1.7051150e+01
   1.5486740e+02   1.4332290e+01
   1.5534950e+02   1.1353440e+01
   1.5583160e+02   7.5750580e+00
   1.5631370e+02   4.7915040e+00
   1.5679590e+02   3.9735110e+00
   1.5727800e+02   4.2575070e+00
   1.5776010e+02   4.0262600e+00
   1.5824220e+02   1.8477020e+00
   1.5872430e+02   1.4236500e-01
   1.5920650e+02   8.3927900e-01
   1.5968860e+02   6.9781500e-01
   1.6017070e+02   2.1355130e+00
   1.6065280e+02   2.6610260e+00
   1.6113490e+02   2.5629730e+00
   1.6161700e+02   2.6048280e+00
   1.6209920e+02   3.3872070e+00
   1.6258130e+02   4.2113800e+00
   1.6306340e+02   4.6489260e+00
   1.6354550e+02   4.8090060e+00
   1.6402760e+02   4.2969060e+00
   1.6450970e+02   2.2429660e+00
   1.6499190e+02   8.6003100e-01
   1.6547400e+02   3.0997470e+00
   1.6595610e+02   2.9672390e+00
   1.6643820e+02   1.8264160e+00
   1.6692030e+02   8.8978600e-01
   1.6740240e+02   4.3324300e-01
   1.6788460e+02   3.3390800e-01
   1.6836670e+02   6.9038400e-01
   1.6884880e+02   1.4280700e+00
   1.6933090e+02   2.0697020e+00
   1.6981300e+02   2.0512080e+00
   1.7029520e+02   1.8500370e+00
   1.7077730e+02   2.0743410e+00
   1.7125940e+02   3.6947940e+00
   1.7174150e+02   5.2444000e+00
   1.7222360e+02   5.2567140e+00
   1.7270570e+02   3.8249050e+00
   1.7318790e+02   2.2753910e+00
   1.7367000e+02   1.3995210e+00
   1.7415210e+02   1.0913390e+00
   1.7463420e+02   1.1629180e+00
   1.7511630e+02   2.4015500e+00
   1.7559840e+02   3.5706790e+00
   1.7608060e+02   2.9662320e+00
   1.7656270e+02   5.8459500e-01
   1.7704480e+02   2.1977230e+00
   1.7752690e+02   4.2334290e+00
   1.7800900e+02   5.7314300e+00
   1.7849110e+02   7.2540590e+00
   1.7897330e+02   9.3468930e+00
   1.7945540e+02   1.1500960e+01
   1.7993750e+02   1.2587800e+01
   1.8041960e+02   1.2458620e+01
   1.8090170e+02   1.2573290e+01
   1.8138380e+02   1.4765050e+01
   1.8186600e+02   1.8561490e+01
   1.8234810e+02   2.2376850e+01
   1.8283020e+02   2.5480100e+01
   1.8331230e+02   2.8068570e+01
   1.8379440e+02   3.0410230e+01
   1.8427660e+02   3.2432940e+01
   1.8475870e+02   3.4748860e+01
   1.8524080e+02   3.8094190e+01
   1.8572290e+02   4.2369830e+01
   1.8620500e+02   4.7215910e+01
   1.8668710e+02   5.2694930e+01
   1.8716930e+02   5.8666960e+01
   1.8765140e+02   6.4100510e+01
   1.8813350e+02   6.8845520e+01
   1.8861560e+02   7.3668120e+01
   1.8909770e+02   8.0091000e+01
   1.8957980e+02   8.8000750e+01
   1.9006200e+02   9.5738600e+01
   1.9054410e+02   1.0235600e+02
   1.9102620e+02   1.0803140e+02
   1.9150830e+02   1.1386110e+02
   1.9199040e+02   1.1994240e+02
   1.9247250e+02   1.2632460e+02
   1.9295470e+02   1.3298920e+02
   1.9343680e+02   1.3998030e+02
   1.9391890e+02   1.4765190e+02
   1.9440100e+02   1.5654520e+02
   1.9488310e+02   1.6663240e+02
   1.9536520e+02   1.7600710e+02
   1.9584740e+02   1.8405480e+02
   1.9632950e+02   1.9214250e+02
   1.9681160e+02   2.0292760e+02
   1.9729370e+02   2.1647370e+02
   1.9777580e+02   2.3212480e+02
   1.9825790e+02   2.4910280e+02
   1.9874010e+02   2.6731230e+02
   1.9922220e+02   2.8804900e+02
   1.9970430e+02   3.1097780e+02
   2.0018640e+02   3.3642730e+02
   2.0066850e+02   3.6582650e+02
   2.0115070e+02   3.9939850e+02
   2.0163280e+02   4.3554050e+02
   2.0211490e+02   4.7378520e+02
   2.0259700e+02   5.1433500e+02
   2.0307910e+02   5.5524800e+02
   2.0356120e+02   5.9584200e+02
   2.0404340e+02   6.3635920e+02
   2.0452550e+02   6.7772340e+02
   2.0500760e+02   7.2057630e+02
   2.0548970e+02   7.6227580e+02
   2.0597180e+02   8.0122740e+02
   2.0645390e+02   8.3729550e+02
   2.0693610e+02   8.7183470e+02
   2.0741820e+02   9.0586590e+02
   2.0790030e+02   9.3800870e+02
   2.0838240e+02   9.6377320e+02
   2.0886450e+02   9.8109250e+02
   2.0934660e+02   9.9763650e+02
   2.0982880e+02   1.0181280e+03
   2.1031090e+02   1.0430420e+03
   2.1079300e+02   1.0695700e+03
   2.1127510e+02   1.0967760e+03
   2.1175720e+02   1.1254940e+03
   2.1223930e+02   1.1598950e+03
   2.1272150e+02   1.1997920e+03
   2.1320360e+02   1.2448880e+03
   2.1368570e+02   1.2949310e+03
   2.1416780e+02   1.3501770e+03
   2.1464990e+02   1.4100750e+03
   2.1513200e+02   1.4749620e+03
   2.1561420e+02   1.5449950e+03
   2.1609630e+02   1.6200100e+03
   2.1657840e+02   1.7015250e+03
   2.1706050e+02   1.7842910e+03
   2.1754260e+02   1.8661100e+03
   2.1802470e+02   1.9478140e+03
   2.1850690e+02   2.0242400e+03
   2.1898900e+02   2.0984630e+03
   2.1947110e+02   2.1671480e+03
   2.1995320e+02   2.2171080e+03
   2.2043530e+02   2.2512500e+03
   2.2091750e+02   2.2629090e+03
   2.2139960e+02   2.2483850e+03
   2.2188170e+02   2.2079880e+03
   2.2236380e+02   2.1403310e+03
   2.2284590e+02   2.0414390e+03
   2.2332800e+02   1.9138780e+03
   2.2381020e+02   1.7783950e+03
   2.2429230e+02   1.6292650e+03
   2.2477440e+02   1.4776260e+03
   2.2525650e+02   1.3297820e+03
   2.2573860e+02   1.1819970e+03
   2.2622070e+02   1.0476270e+03
   2.2670290e+02   9.2965030e+02
   2.2718500e+02   8.2621670e+02
   2.2766710e+02   7.3376210e+02
   2.2814920e+02   6.5345850e+02
   2.2863130e+02   5.8242240e+02
   2.2911340e+02   5.1932570e+02
   2.2959560e+02   4.6428460e+02
   2.3007770e+02   4.1592250e+02
   2.3055980e+02   3.7464130e+02
   2.3104190e+02   3.3994860e+02
   2.3152400e+02   3.0854100e+02
   2.3200620e+02   2.8077370e+02
   2.3248830e+02   2.5568860e+02
   2.3297040e+02   2.3269080e+02
   2.3345250e+02   2.1187690e+02
   2.3393460e+02   1.9318560e+02
   2.3441670e+02   1.7716310e+02
   2.3489890e+02   1.6345750e+02
   2.3538100e+02   1.5055620e+02
   2.3586310e+02   1.3805670e+02
   2.3634520e+02   1.2667030e+02
   2.3682730e+02   1.1674430e+02
   2.3730940e+02   1.0877230e+02
   2.3779160e+02   1.0119710e+02
   2.3827370e+02   9.3761150e+01
   2.3875580e+02   8.6614090e+01
   2.3923790e+02   8.0288670e+01
   2.3972000e+02   7.5039580e+01
   2.4020210e+02   7.0256670e+01
   2.4068430e+02   6.5583480e+01
   2.4116640e+02   6.0995570e+01
   2.4164850e+02   5.6567440e+01
   2.4213060e+02   5.2289250e+01
   2.4261270e+02   4.8158310e+01
   2.4309480e+02   4.4327740e+01
   2.4357700e+02   4.0896790e+01
   2.4405910e+02   3.7622480e+01
   2.4454120e+02   3.4415050e+01
   2.4502330e+02   3.1217220e+01
   2.4550540e+02   2.8188190e+01
   2.4598760e+02   2.5404820e+01
   2.4646970e+02   2.2796750e+01
   2.4695180e+02   1.9989060e+01
   2.4743390e+02   1.6637410e+01
   2.4791600e+02   1.3586930e+01
   2.4839810e+02   1.1305650e+01
   2.4888030e+02   1.0052830e+01
   2.4936240e+02   8.9454960e+00
   2.4984450e+02   8.1778260e+00
   2.5032660e+02   7.4875790e+00
   2.5080870e+02   6.0177310e+00
   2.5129080e+02   3.0914000e+00
   2.5177300e+02   4.8999000e-01
   2.5225510e+02   8.8407900e-01
   2.5273720e+02   5.1434300e-01
   2.5321930e+02   2.2448700e-01
   2.5370140e+02   1.8763700e-01
   2.5418350e+02   4.3054200e-01
   2.5466570e+02   3.2403600e-01
   2.5514780e+02   2.7859950e+00
   2.5562990e+02   5.0028230e+00
   2.5611200e+02   6.1704560e+00
   2.5659410e+02   6.0392460e+00
   2.5707630e+02   5.5453640e+00
   2.5755840e+02   4.3738710e+00
   2.5804050e+02   3.0282590e+00
   2.5852260e+02   2.5573270e+00
   2.5900470e+02   3.1990360e+00
   2.5948680e+02   4.2230220e+00
   2.5996900e+02   5.6026150e+00
   2.6045110e+02   7.7050170e+00
   2.6093320e+02   8.3861080e+00
   2.6141530e+02   7.1772160e+00
   2.6189740e+02   4.9655300e+00
   2.6237950e+02   3.2600710e+00
   2.6286170e+02   2.2198640e+00
   2.6334380e+02   1.2588500e+00
   2.6382590e+02   1.0734600e-01
   2.6430800e+02   1.3095860e+00
   2.6479010e+02   2.2055050e+00
   2.6527220e+02   2.1767270e+00
   2.6575440e+02   2.1026920e+00
   2.6623650e+02   3.3991390e+00
   2.6671860e+02   6.5095830e+00
   2.6720070e+02   9.6376950e+00
   2.6768280e+02   1.2412020e+01
   2.6816490e+02   1.4909060e+01
   2.6864710e+02   1.6017470e+01
   2.6912920e+02   1.5246870e+01
   2.6961130e+02   1.3897540e+01
   2.7009340e+02   1.3537490e+01
   2.7057550e+02   1.4287030e+01
   2.7105760e+02   1.5552020e+01
   2.7153980e+02   1.7127870e+01
   2.7202190e+02   1.9038800e+01
   2.7250400e+02   2.1783450e+01
   2.7298610e+02   2.5572190e+01
   2.7346820e+02   2.9658480e+01
   2.7395030e+02   3.3227770e+01
   2.7443250e+02   3.6133590e+01
   2.7491460e+02   3.9207240e+01
   2.7539670e+02   4.2490860e+01
   2.7587880e+02   4.6082030e+01
   2.7636100e+02   5.0521880e+01
   2.7684310e+02   5.5761700e+01
   2.7732520e+02   6.1848530e+01
   2.7780730e+02   6.9015440e+01
   2.7828940e+02   7.7350950e+01
   2.7877150e+02   8.5607850e+01
   2.7925370e+02   9.3201840e+01
   2.7973580e+02   1.0066720e+02
   2.8021790e+02   1.1072690e+02
   2.8070000e+02   1.2385150e+02
   2.8118210e+02   1.3763920e+02
   2.8166420e+02   1.5045490e+02
   2.8214640e+02   1.6229900e+02
   2.8262850e+02   1.7360680e+02
   2.8311060e+02   1.8428490e+02
   2.8359270e+02   1.9460820e+02
   2.8407480e+02   2.0537570e+02
   2.8455690e+02   2.1668030e+02
   2.8503910e+02   2.2794330e+02
   2.8552120e+02   2.3890450e+02
   2.8600330e+02   2.4956760e+02
   2.8648540e+02   2.5987920e+02
   2.8696750e+02   2.6957180e+02
   2.8744960e+02   2.7929620e+02
   2.8793180e+02   2.9024120e+02
   2.8841390e+02   3.0251190e+02
   2.8889600e+02   3.1578310e+02
   2.8937810e+02   3.3047060e+02
   2.8986020e+02   3.4632860e+02
   2.9034230e+02   3.6190000e+02
   2.9082450e+02   3.7677680e+02
   2.9130660e+02   3.9215030e+02
   2.9178870e+02   4.0949150e+02
   2.9227080e+02   4.2882460e+02
   2.9275290e+02   4.4986080e+02
   2.9323500e+02   4.7301560e+02
   2.9371720e+02   4.9778720e+02
   2.9419930e+02   5.2182870e+02
   2.9468140e+02   5.4508810e+02
   2.9516350e+02   5.6806650e+02
   2.9564560e+02   5.9221660e+02
   2.9612770e+02   6.1685770e+02
   2.9660990e+02   6.3875950e+02
   2.9709200e+02   6.5738380e+02
   2.9757410e+02   6.7176320e+02
   2.9805620e+02   6.7975930e+02
   2.9853830e+02   6.8128180e+02
   2.9902040e+02   6.7637510e+02
   2.9950260e+02   6.6511570e+02
   2.9998470e+02   6.4748770e+02
   3.0046680e+02   6.2284410e+02
   3.0094890e+02   5.8895300e+02
   3.0143110e+02   5.4933170e+02
   3.0191320e+02   5.0844550e+02
   3.0239530e+02   4.6603700e+02
   3.0287740e+02   4.2461790e+02
   3.0335950e+02   3.8487940e+02
   3.0384160e+02   3.4740480e+02
   3.0432380e+02   3.1211130e+02
   3.0480590e+02   2.7927330e+02
   3.0528800e+02   2.4925840e+02
   3.0577010e+02   2.2343220e+02
   3.0625220e+02   2.0136610e+02
   3.0673430e+02   1.8203100e+02
   3.0721650e+02   1.6486720e+02
   3.0769860e+02   1.4973600e+02
   3.0818070e+02   1.3649960e+02
   3.0866280e+02   1.2527910e+02
   3.0914490e+02   1.1538760e+02
   3.0962700e+02   1.0624110e+02
   3.1010920e+02   9.7737010e+01
   3.1059130e+02   9.0154590e+01
   3.1107340e+02   8.3597690e+01
   3.1155550e+02   7.7964250e+01
   3.1203760e+02   7.3277450e+01
   3.1251970e+02   6.9566700e+01
   3.1300190e+02   6.6433070e+01
   3.1348400e+02   6.4117610e+01
   3.1396610e+02   6.2272340e+01
   3.1444820e+02   6.0123060e+01
   3.1493030e+02   5.6893360e+01
   3.1541240e+02   5.3617550e+01
   3.1589460e+02   5.0952730e+01
   3.1637670e+02   4.8978730e+01
   3.1685880e+02   4.7178730e+01
   3.1734090e+02   4.5245710e+01
   3.1782300e+02   4.3344330e+01
   3.1830510e+02   4.1676610e+01
   3.1878730e+02   4.0715230e+01
   3.1926940e+02   3.9918820e+01
   3.1975150e+02   3.9021450e+01
   3.2023360e+02   3.7948360e+01
   3.2071570e+02   3.7085970e+01
   3.2119780e+02   3.6567350e+01
   3.2168000e+02   3.6296360e+01
   3.2216210e+02   3.6154040e+01
   3.2264420e+02   3.5993260e+01
   3.2312630e+02   3.6196150e+01
   3.2360840e+02   3.7001420e+01
   3.2409050e+02   3.8352160e+01
   3.2457270e+02   3.9497040e+01
   3.2505480e+02   4.0157900e+01
   3.2553690e+02   4.0755130e+01
   3.2601900e+02   4.1538530e+01
   3.2650120e+02   4.2416410e+01
   3.2698330e+02   4.3428830e+01
   3.2746540e+02   4.4349010e+01
   3.2794750e+02   4.5384890e+01
   3.2842960e+02   4.7196370e+01
   3.2891170e+02   5.0214580e+01
   3.2939390e+02   5.3538990e+01
   3.2987600e+02   5.6839920e+01
   3.3035810e+02   6.0117000e+01
   3.3084020e+02   6.3480550e+01
   3.3132230e+02   6.6671720e+01
   3.3180440e+02   7.0042240e+01
   3.3228660e+02   7.4350520e+01
   3.3276870e+02   7.9997280e+01
   3.3325080e+02   8.5814250e+01
   3.3373290e+02   9.1338790e+01
   3.3421500e+02   9.6326640e+01
   3.3469710e+02   1.0219380e+02
   3.3517930e+02   1.0953710e+02
   3.3566140e+02   1.1744400e+02
   3.3614350e+02   1.2457000e+02
   3.3662560e+02   1.3066950e+02
   3.3710770e+02   1.3678900e+02
   3.3758980e+02   1.4293740e+02
   3.3807200e+02   1.4922300e+02
   3.3855410e+02   1.5629350e+02
   3.3903620e+02   1.6444080e+02
   3.3951830e+02   1.7286840e+02
   3.4000040e+02   1.8068940e+02
   3.4048250e+02   1.8786310e+02
   3.4096470e+02   1.9520530e+02
   3.4144680e+02   2.0271520e+02
   3.4192890e+02   2.1053680e+02
   3.4241100e+02   2.1938570e+02
   3.4289310e+02   2.2924780e+02
   3.4337520e+02   2.3973640e+02
   3.4385740e+02   2.5045490e+02
   3.4433950e+02   2.6149880e+02
   3.4482160e+02   2.7295930e+02
   3.4530370e+02   2.8480130e+02
   3.4578580e+02   2.9713780e+02
   3.4626790e+02   3.1029430e+02
   3.4675010e+02   3.2433040e+02
   3.4723220e+02   3.3841300e+02
   3.4771430e+02   3.5261430e+02
   3.4819640e+02   3.6663600e+02
   3.4867850e+02   3.8006060e+02
   3.4916070e+02   3.9323290e+02
   3.4964280e+02   4.0456650e+02
   3.5012490e+02   4.1211600e+02
   3.5060700e+02   4.1646370e+02
   3.5108910e+02   4.1958880e+02
   3.5157130e+02   4.2388170e+02
   3.5205340e+02   4.2661160e+02
   3.5253550e+02   4.2348380e+02
   3.5301760e+02   4.1460750e+02
   3.5349970e+02   4.0217690e+02
   3.5398180e+02   3.8703460e+02
   3.5446400e+02   3.6974170e+02
   3.5494610e+02   3.5072740e+02
   3.5542820e+02   3.2925750e+02
   3.5591030e+02   3.0746910e+02
   3.5639240e+02   2.8700360e+02
   3.5687450e+02   2.6768230e+02
   3.5735670e+02   2.4929060e+02
   3.5783880e+02   2.3171160e+02
   3.5832090e+02   2.1485190e+02
   3.5880300e+02   1.9821250e+02
   3.5928510e+02   1.8136310e+02
   3.5976720e+02   1.6603960e+02
   3.6024940e+02   1.5351800e+02
   3.6073150e+02   1.4309250e+02
   3.6121360e+02   1.3364590e+02
   3.6169570e+02   1.2480370e+02
   3.6217780e+02   1.1666720e+02
   3.6265990e+02   1.0939460e+02
   3.6314210e+02   1.0306180e+02
   3.6362420e+02   9.7039860e+01
   3.6410630e+02   9.1119030e+01
   3.6458840e+02   8.5397720e+01
   3.6507050e+02   8.0028340e+01
   3.6555260e+02   7.4830050e+01
   3.6603480e+02   7.0216250e+01
   3.6651690e+02   6.6454530e+01
   3.6699900e+02   6.3500380e+01
   3.6748110e+02   6.0605620e+01
   3.6796320e+02   5.7943830e+01
   3.6844530e+02   5.5144530e+01
   3.6892750e+02   5.1999830e+01
   3.6940960e+02   4.7973020e+01
   3.6989170e+02   4.4364060e+01
   3.7037380e+02   4.1301150e+01
   3.7085590e+02   3.8655430e+01
   3.7133800e+02   3.6167080e+01
   3.7182020e+02   3.4134020e+01
   3.7230230e+02   3.1812730e+01
   3.7278440e+02   2.8800990e+01
   3.7326650e+02   2.4786670e+01
   3.7374870e+02   2.1426500e+01
   3.7423080e+02   1.8855550e+01
   3.7471290e+02   1.6804020e+01
   3.7519500e+02   1.4912090e+01
   3.7567710e+02   1.3218660e+01
   3.7615920e+02   1.1541210e+01
   3.7664140e+02   9.7662660e+00
   3.7712350e+02   7.9337160e+00
   3.7760560e+02   6.4313740e+00
   3.7808770e+02   5.3405000e+00
   3.7856980e+02   4.2660680e+00
   3.7905190e+02   2.6796190e+00
   3.7953410e+02   5.9017900e-01
   3.8001620e+02   1.0177990e+00
   3.8049830e+02   1.8990630e+00
   3.8098040e+02   2.2880710e+00
   3.8146250e+02   2.5180590e+00
   3.8194460e+02   2.6017460e+00
   3.8242680e+02   2.8950880e+00
   3.8290890e+02   3.9673770e+00
   3.8339100e+02   5.4556350e+00
   3.8387310e+02   6.0811690e+00
   3.8435520e+02   5.6189580e+00
   3.8483730e+02   4.8851780e+00
   3.8531950e+02   4.9521640e+00
   3.8580160e+02   5.5510710e+00
   3.8628370e+02   5.8915560e+00
   3.8676580e+02   5.3016200e+00
   3.8724790e+02   4.4139480e+00
   3.8773000e+02   4.0551070e+00
   3.8821220e+02   4.2119140e+00
   3.8869430e+02   4.4855270e+00
   3.8917640e+02   4.8337780e+00
   3.8965850e+02   5.0430370e+00
   3.9014060e+02   4.8201900e+00
   3.9062270e+02   4.0016560e+00
   3.9110490e+02   2.8526460e+00
   3.9158700e+02   1.2620620e+00
   3.9206910e+02   5.6942000e-01
   3.9255120e+02   2.0359570e+00
   3.9303330e+02   2.4314420e+00
   3.9351540e+02   2.6706240e+00
   3.9399760e+02   3.4130400e+00
   3.9447970e+02   4.9483260e+00
   3.9496180e+02   6.2902830e+00
   3.9544390e+02   6.6180570e+00
   3.9592600e+02   6.7133480e+00
   3.9640810e+02   7.6121980e+00
   3.9689030e+02   1.0713080e+01
   3.9737240e+02   1.3482500e+01
   3.9785450e+02   1.4831670e+01
   3.9833660e+02   1.4654240e+01
   3.9881880e+02   1.5524900e+01
   3.9930090e+02   1.8850070e+01
   3.9978300e+02   2.2459600e+01
   4.0026510e+02   2.4930730e+01
   4.0074720e+02   2.4744290e+01
   4.0122930e+02   2.5729520e+01
   4.0171150e+02   2.8530400e+01
   4.0219360e+02   3.2586300e+01
   4.0267570e+02   3.6199620e+01
   4.0315780e+02   3.9151340e+01
   4.0363990e+02   4.2040880e+01
   4.0412200e+02   4.4991620e+01
   4.0460420e+02   4.7924640e+01
   4.0508630e+02   5.1508720e+01
   4.0556840e+02   5.5854090e+01
   4.0605050e+02   6.0609010e+01
   4.0653260e+02   6.5214470e+01
   4.0701470e+02   6.9607160e+01
   4.0749690e+02   7.4446680e+01
   4.0797900e+02   7.9847530e+01
   4.0846110e+02   8.5875560e+01
   4.0894320e+02   9.2831840e+01
   4.0942530e+02   1.0070090e+02
   4.0990740e+02   1.0935510e+02
   4.1038960e+02   1.1862300e+02
   4.1087170e+02   1.2860910e+02
   4.1135380e+02   1.3977210e+02
   4.1183590e+02   1.5200950e+02
   4.1231800e+02   1.6557370e+02
   4.1280010e+02   1.8080470e+02
   4.1328230e+02   1.9747240e+02
   4.1376440e+02   2.1577400e+02
   4.1424650e+02   2.3543470e+02
   4.1472860e+02   2.5684710e+02
   4.1521070e+02   2.8109600e+02
   4.1569280e+02   3.0804390e+02
   4.1617500e+02   3.3686230e+02
   4.1665710e+02   3.6789300e+02
   4.1713920e+02   3.9989230e+02
   4.1762130e+02   4.3224840e+02
   4.1810340e+02   4.6409000e+02
   4.1858550e+02   4.9649080e+02
   4.1906770e+02   5.2998860e+02
   4.1954980e+02   5.6453910e+02
   4.2003190e+02   5.9865730e+02
   4.2051400e+02   6.3183120e+02
   4.2099610e+02   6.6478040e+02
   4.2147820e+02   6.9783980e+02
   4.2196040e+02   7.3049540e+02
   4.2244250e+02   7.6454880e+02
   4.2292460e+02   7.9974030e+02
   4.2340670e+02   8.3635250e+02
   4.2388890e+02   8.7528880e+02
   4.2437100e+02   9.1468320e+02
   4.2485310e+02   9.5832140e+02
   4.2533520e+02   1.0065340e+03
   4.2581730e+02   1.0592250e+03
   4.2629940e+02   1.1153870e+03
   4.2678160e+02   1.1748030e+03
   4.2726370e+02   1.2374570e+03
   4.2774580e+02   1.3033340e+03
   4.2822790e+02   1.3741610e+03
   4.2871000e+02   1.4461860e+03
   4.2919210e+02   1.5192060e+03
   4.2967430e+02   1.5927130e+03
   4.3015640e+02   1.6643660e+03
   4.3063850e+02   1.7356690e+03
   4.3112060e+02   1.7995830e+03
   4.3160270e+02   1.8547750e+03
   4.3208480e+02   1.9014290e+03
   4.3256700e+02   1.9330180e+03
   4.3304910e+02   1.9502880e+03
   4.3353120e+02   1.9496120e+03
   4.3401330e+02   1.9261930e+03
   4.3449540e+02   1.8809530e+03
   4.3497750e+02   1.8190310e+03
   4.3545970e+02   1.7391240e+03
   4.3594180e+02   1.6466880e+03
   4.3642390e+02   1.5482070e+03
   4.3690600e+02   1.4456500e+03
   4.3738810e+02   1.3460310e+03
   4.3787020e+02   1.2524490e+03
   4.3835240e+02   1.1651950e+03
   4.3883450e+02   1.0841990e+03
   4.3931660e+02   1.0091550e+03
   4.3979870e+02   9.4231350e+02
   4.4028080e+02   8.8652690e+02
   4.4076290e+02   8.3961350e+02
   4.4124510e+02   7.9877000e+02
   4.4172720e+02   7.6424940e+02
   4.4220930e+02   7.3459190e+02
   4.4269140e+02   7.0921670e+02
   4.4317350e+02   6.8805440e+02
   4.4365560e+02   6.7111150e+02
   4.4413780e+02   6.5868990e+02
   4.4461990e+02   6.5044930e+02
   4.4510200e+02   6.4640920e+02
   4.4558410e+02   6.4716690e+02
   4.4606620e+02   6.5064860e+02
   4.4654830e+02   6.5721090e+02
   4.4703050e+02   6.6618800e+02
   4.4751260e+02   6.7660740e+02
   4.4799470e+02   6.8994180e+02
   4.4847680e+02   7.0293540e+02
   4.4895900e+02   7.1505980e+02
   4.4944110e+02   7.2624370e+02
   4.4992320e+02   7.3681550e+02
   4.5040530e+02   7.4813920e+02
   4.5088740e+02   7.5677260e+02
   4.5136950e+02   7.6103610e+02
   4.5185170e+02   7.6203910e+02
   4.5233380e+02   7.5405700e+02
   4.5281590e+02   7.3649850e+02
   4.5329800e+02   7.0983310e+02
   4.5378010e+02   6.7276570e+02
   4.5426220e+02   6.2509440e+02
   4.5474440e+02   5.7466770e+02
   4.5522650e+02   5.2414170e+02
   4.5570860e+02   4.7371700e+02
   4.5619070e+02   4.2570690e+02
   4.5667280e+02   3.7938180e+02
   4.5715490e+02   3.3772600e+02
   4.5763710e+02   3.0300320e+02
   4.5811920e+02   2.7429700e+02
   4.5860130e+02   2.4846950e+02
   4.5908340e+02   2.2508170e+02
   4.5956550e+02   2.0427180e+02
   4.6004760e+02   1.8698910e+02
   4.6052980e+02   1.7261750e+02
   4.6101190e+02   1.6021130e+02
   4.6149400e+02   1.4992510e+02
   4.6197610e+02   1.4059140e+02
   4.6245820e+02   1.3108140e+02
   4.6294030e+02   1.2112760e+02
   4.6342250e+02   1.1232640e+02
   4.6390460e+02   1.0621390e+02
   4.6438670e+02   1.0116500e+02
   4.6486880e+02   9.5793270e+01
   4.6535090e+02   8.8676730e+01
   4.6583300e+02   8.2373990e+01
   4.6631520e+02   7.7581990e+01
   4.6679730e+02   7.4070240e+01
   4.6727940e+02   7.1024060e+01
   4.6776150e+02   6.8773380e+01
   4.6824360e+02   6.6556650e+01
   4.6872570e+02   6.4066790e+01
   4.6920790e+02   6.1221920e+01
   4.6969000e+02   5.8648120e+01
   4.7017210e+02   5.6521000e+01
   4.7065420e+02   5.4494080e+01
   4.7113630e+02   5.2102360e+01
   4.7161840e+02   4.9131520e+01
   4.7210060e+02   4.6672270e+01
   4.7258270e+02   4.5026220e+01
   4.7306480e+02   4.3946080e+01
   4.7354690e+02   4.2791840e+01
   4.7402910e+02   4.1584000e+01
   4.7451120e+02   4.0065090e+01
   4.7499330e+02   3.7739990e+01
   4.7547540e+02   3.4907210e+01
   4.7595750e+02   3.3034760e+01
   4.7643960e+02   3.2278750e+01
   4.7692180e+02   3.1664760e+01
   4.7740390e+02   3.0071820e+01
   4.7788600e+02   2.7834630e+01
   4.7836810e+02   2.5745260e+01
   4.7885020e+02   2.4102650e+01
   4.7933230e+02   2.2649700e+01
   4.7981450e+02   2.1219220e+01
   4.8029660e+02   1.9771800e+01
   4.8077870e+02   1.8237840e+01
   4.8126080e+02   1.6341180e+01
   4.8174290e+02   1.4476690e+01
   4.8222500e+02   1.2999410e+01
   4.8270720e+02   1.2039720e+01
   4.8318930e+02   1.0927210e+01
   4.8367140e+02   8.9462200e+00
   4.8415350e+02   6.9114300e+00
   4.8463560e+02   5.6405720e+00
   4.8511770e+02   6.2105410e+00
   4.8559990e+02   6.4550400e+00
   4.8608200e+02   5.9928820e+00
   4.8656410e+02   4.9524000e+00
   4.8704620e+02   3.7026900e+00
   4.8752830e+02   1.7413560e+00
   4.8801040e+02   2.5322700e-01
   4.8849260e+02   1.5015400e-01
   4.8897470e+02   7.8535500e-01
   4.8945680e+02   1.1516040e+00
   4.8993890e+02   7.7086600e-01
   4.9042100e+02   1.3613900e-01
   4.9090310e+02   2.3186500e-01
   4.9138530e+02   3.2727800e-01
   4.9186740e+02   2.5883500e-01
   4.9234950e+02   8.3878003e-02
   4.9283160e+02   4.1890000e-01
   4.9331370e+02   6.0164999e-02
   4.9379580e+02   1.2762070e+00
   4.9427800e+02   2.3333210e+00
   4.9476010e+02   2.5000840e+00
   4.9524220e+02   2.1998290e+00
   4.9572430e+02   2.2763900e+00
   4.9620640e+02   2.7837300e+00
   4.9668850e+02   3.2737580e+00
   4.9717070e+02   3.4898830e+00
   4.9765280e+02   3.4418110e+00
   4.9813490e+02   3.0912320e+00
   4.9861700e+02   2.0021820e+00
   4.9909920e+02   1.2303920e+00
   4.9958130e+02   1.7270360e+00
   5.0006340e+02   2.9905090e+00
   5.0054550e+02   3.7917180e+00
   5.0102760e+02   3.0637360e+00
   5.0150970e+02   2.3883900e+00
   5.0199190e+02   2.5588300e+00
   5.0247400e+02   3.8079530e+00
   5.0295610e+02   4.5953520e+00
   5.0343820e+02   4.6156160e+00
   5.0392030e+02   4.2804030e+00
   5.0440240e+02   3.8082430e+00
   5.0488460e+02   2.9120180e+00
   5.0536670e+02   2.5231550e+00
   5.0584880e+02   2.9633640e+00
   5.0633090e+02   3.7763600e+00
   5.0681300e+02   3.9241640e+00
   5.0729510e+02   3.2764430e+00
   5.0777730e+02   2.5452350e+00
   5.0825940e+02   1.9428100e+00
   5.0874150e+02   1.4758380e+00
   5.0922360e+02   1.2830050e+00
   5.0970570e+02   1.4026490e+00
   5.1018780e+02   1.3105390e+00
   5.1067000e+02   1.3266800e-01
   5.1115210e+02   1.6287080e+00
   5.1163420e+02   2.2937470e+00
   5.1211630e+02   1.3237690e+00
   5.1259840e+02   2.1339400e-01
   5.1308060e+02   7.4646000e-01
   5.1356270e+02   2.3019260e+00
   5.1404480e+02   3.5817260e+00
   5.1452690e+02   3.5141370e+00
   5.1500900e+02   3.3912730e+00
   5.1549110e+02   4.2446370e+00
   5.1597330e+02   5.9287720e+00
   5.1645540e+02   7.3773120e+00
   5.1693750e+02   7.7053760e+00
   5.1741960e+02   8.0286710e+00
   5.1790170e+02   9.1057210e+00
   5.1838390e+02   1.1522150e+01
   5.1886600e+02   1.3466640e+01
   5.1934810e+02   1.4456040e+01
   5.1983020e+02   1.5003560e+01
   5.2031230e+02   1.5570480e+01
   5.2079440e+02   1.5860240e+01
   5.2127660e+02   1.6749060e+01
   5.2175870e+02   1.8605530e+01
   5.2224080e+02   2.1123880e+01
   5.2272290e+02   2.3146740e+01
   5.2320500e+02   2.4568990e+01
   5.2368710e+02   2.5894570e+01
   5.2416930e+02   2.7341690e+01
   5.2465140e+02   2.8890340e+01
   5.2513350e+02   3.0609870e+01
   5.2561560e+02   3.2515770e+01
   5.2609770e+02   3.4542950e+01
   5.2657980e+02   3.6781650e+01
   5.2706200e+02   3.9129440e+01
   5.2754410e+02   4.1126470e+01
   5.2802620e+02   4.2343050e+01
   5.2850830e+02   4.3830170e+01
   5.2899040e+02   4.7185850e+01
   5.2947250e+02   5.1706020e+01
   5.2995470e+02   5.5657590e+01
   5.3043680e+02   5.7333170e+01
   5.3091890e+02   5.8802950e+01
   5.3140100e+02   6.1376860e+01
   5.3188310e+02   6.5128930e+01
   5.3236520e+02   6.9101230e+01
   5.3284740e+02   7.3655520e+01
   5.3332950e+02   7.7923600e+01
   5.3381160e+02   8.1312780e+01
   5.3429370e+02   8.2430440e+01
   5.3477580e+02   8.4910830e+01
   5.3525790e+02   8.9551570e+01
   5.3574010e+02   9.5240650e+01
   5.3622220e+02   1.0025650e+02
   5.3670430e+02   1.0453310e+02
   5.3718640e+02   1.0845200e+02
   5.3766850e+02   1.1190580e+02
   5.3815060e+02   1.1510890e+02
   5.3863280e+02   1.1899090e+02
   5.3911490e+02   1.2370030e+02
   5.3959700e+02   1.2841870e+02
   5.4007910e+02   1.3249210e+02
   5.4056120e+02   1.3612710e+02
   5.4104330e+02   1.4010600e+02
   5.4152550e+02   1.4449910e+02
   5.4200760e+02   1.4880670e+02
   5.4248970e+02   1.5229790e+02
   5.4297180e+02   1.5540570e+02
   5.4345390e+02   1.5909390e+02
   5.4393600e+02   1.6382540e+02
   5.4441820e+02   1.6875930e+02
   5.4490030e+02   1.7323400e+02
   5.4538240e+02   1.7732740e+02
   5.4586450e+02   1.8124430e+02
   5.4634660e+02   1.8526780e+02
   5.4682870e+02   1.8912640e+02
   5.4731090e+02   1.9254220e+02
   5.4779300e+02   1.9543710e+02
   5.4827510e+02   1.9821450e+02
   5.4875720e+02   2.0073200e+02
   5.4923930e+02   2.0334920e+02
   5.4972140e+02   2.0629720e+02
   5.5020360e+02   2.0990000e+02
   5.5068570e+02   2.1313950e+02
   5.5116780e+02   2.1580530e+02
   5.5164990e+02   2.1819360e+02
   5.5213200e+02   2.2074920e+02
   5.5261410e+02   2.2357220e+02
   5.5309630e+02   2.2642910e+02
   5.5357840e+02   2.2912830e+02
   5.5406050e+02   2.3187000e+02
   5.5454260e+02   2.3535500e+02
   5.5502470e+02   2.3956750e+02
   5.5550680e+02   2.4393360e+02
   5.5598900e+02   2.4796610e+02
   5.5647110e+02   2.5199190e+02
   5.5695320e+02   2.5646610e+02
   5.5743530e+02   2.6132570e+02
   5.5791740e+02   2.6634100e+02
   5.5839950e+02   2.7095190e+02
   5.5888170e+02   2.7590950e+02
   5.5936380e+02   2.8209180e+02
   5.5984590e+02   2.9032320e+02
   5.6032810e+02   2.9817120e+02
   5.6081020e+02   3.0412160e+02
   5.6129230e+02   3.0923120e+02
   5.6177440e+02   3.1506530e+02
   5.6225650e+02   3.2277510e+02
   5.6273860e+02   3.3032870e+02
   5.6322080e+02   3.3742980e+02
   5.6370290e+02   3.4397990e+02
   5.6418500e+02   3.5002160e+02
   5.6466710e+02   3.5523870e+02
   5.6514920e+02   3.6057030e+02
   5.6563130e+02   3.6665590e+02
   5.6611350e+02   3.7355260e+02
   5.6659560e+02   3.7961070e+02
   5.6707770e+02   3.8472480e+02
   5.6755980e+02   3.8912900e+02
   5.6804190e+02   3.9307060e+02
   5.6852400e+02   3.9657920e+02
   5.6900620e+02   3.9981050e+02
   5.6948830e+02   4.0286120e+02
   5.6997040e+02   4.0540300e+02
   5.7045250e+02   4.0740490e+02
   5.7093460e+02   4.0857330e+02
   5.7141670e+02   4.0808810e+02
   5.7189890e+02   4.0492040e+02
   5.7238100e+02   4.0053850e+02
   5.7286310e+02   3.9622010e+02
   5.7334520e+02   3.9177390e+02
   5.7382730e+02   3.8557070e+02
   5.7430940e+02   3.7642320e+02
   5.7479160e+02   3.6585690e+02
   5.7527370e+02   3.5456840e+02
   5.7575580e+02   3.4250700e+02
   5.7623790e+02   3.3017220e+02
   5.7672000e+02   3.1775780e+02
   5.7720210e+02   3.0508770e+02
   5.7768430e+02   2.9170960e+02
   5.7816640e+02   2.7723060e+02
   5.7864850e+02   2.6349770e+02
   5.7913060e+02   2.5061030e+02
   5.7961270e+02   2.3846510e+02
   5.8009480e+02   2.2654130e+02
   5.8057700e+02   2.1488630e+02
   5.8105910e+02   2.0335350e+02
   5.8154120e+02   1.9194170e+02
   5.8202330e+02   1.8070610e+02
   5.8250540e+02   1.6965660e+02
   5.8298750e+02   1.5894960e+02
   5.8346970e+02   1.4861360e+02
   5.8395180e+02   1.3849610e+02
   5.8443390e+02   1.2901990e+02
   5.8491600e+02   1.2087220e+02
   5.8539810e+02   1.1425090e+02
   5.8588020e+02   1.0773800e+02
   5.8636240e+02   1.0019490e+02
   5.8684450e+02   9.2641990e+01
   5.8732660e+02   8.6019230e+01
   5.8780870e+02   8.0932590e+01
   5.8829080e+02   7.6258290e+01
   5.8877290e+02   7.1932940e+01
   5.8925510e+02   6.7925800e+01
   5.8973720e+02   6.4199650e+01
   5.9021930e+02   6.0756210e+01
   5.9070140e+02   5.7587330e+01
   5.9118350e+02   5.4794400e+01
   5.9166560e+02   5.2287850e+01
   5.9214780e+02   4.9611800e+01
   5.9262990e+02   4.6746910e+01
   5.9311200e+02   4.4025740e+01
   5.9359410e+02   4.1497500e+01
   5.9407620e+02   3.9265980e+01
   5.9455830e+02   3.7945880e+01
   5.9504050e+02   3.7604900e+01
   5.9552260e+02   3.7219760e+01
   5.9600470e+02   3.5748550e+01
   5.9648680e+02   3.3717680e+01
   5.9696890e+02   3.1782000e+01
   5.9745100e+02   2.9927060e+01
   5.9793320e+02   2.8640740e+01
   5.9841530e+02   2.8491170e+01
   5.9889740e+02   2.8989460e+01
   5.9937950e+02   2.9424790e+01
   5.9986160e+02   2.9583130e+01
   6.0034380e+02   2.9776800e+01
   6.0082590e+02   3.0129210e+01
   6.0130800e+02   3.0552800e+01
   6.0179010e+02   3.0711530e+01
   6.0227220e+02   3.0203920e+01
   6.0275430e+02   3.0084470e+01
   6.0323650e+02   3.0765580e+01
   6.0371860e+02   3.2226930e+01
   6.0420070e+02   3.3831810e+01
   6.0468280e+02   3.5461190e+01
   6.0516490e+02   3.7802690e+01
   6.0564700e+02   4.1481910e+01
   6.0612920e+02   4.6387830e+01
   6.0661130e+02   5.2035870e+01
   6.0709340e+02   5.8183240e+01
   6.0757550e+02   6.5272330e+01
   6.0805760e+02   7.3760200e+01
   6.0853980e+02   8.3500290e+01
   6.0902190e+02   9.4105010e+01
   6.0950400e+02   1.0637410e+02
   6.0998610e+02   1.1829570e+02
   6.1046830e+02   1.2888400e+02
   6.1095040e+02   1.3841660e+02
   6.1143250e+02   1.4750860e+02
   6.1191460e+02   1.5561830e+02
   6.1239670e+02   1.6370960e+02
   6.1287880e+02   1.7190010e+02
   6.1336100e+02   1.8024010e+02
   6.1384310e+02   1.8981750e+02
   6.1432520e+02   2.0031270e+02
   6.1480730e+02   2.1249650e+02
   6.1528940e+02   2.2680290e+02
   6.1577150e+02   2.4310440e+02
   6.1625370e+02   2.6223930e+02
   6.1673580e+02   2.8444340e+02
   6.1721790e+02   3.0836210e+02
   6.1770000e+02   3.3252960e+02
   6.1818210e+02   3.5719950e+02
   6.1866420e+02   3.8244910e+02
   6.1914640e+02   4.0858120e+02
   6.1962850e+02   4.3546270e+02
   6.2011060e+02   4.6352830e+02
   6.2059270e+02   4.9232910e+02
   6.2107480e+02   5.2091160e+02
   6.2155690e+02   5.5131880e+02
   6.2203910e+02   5.7932760e+02
   6.2252120e+02   6.0778030e+02
   6.2300330e+02   6.3315780e+02
   6.2348540e+02   6.4477430e+02
   6.2396750e+02   6.4265170e+02
   6.2444960e+02   6.2384800e+02
   6.2493180e+02   5.8449880e+02
   6.2541390e+02   5.2494540e+02
   6.2589600e+02   4.6302100e+02
   6.2637810e+02   3.9647540e+02
   6.2686020e+02   3.3428250e+02
   6.2734230e+02   2.8193950e+02
   6.2782450e+02   2.3932470e+02
   6.2830660e+02   2.0344810e+02
   6.2878870e+02   1.7436710e+02
   6.2927080e+02   1.5068620e+02
   6.2975290e+02   1.3214520e+02
   6.3023500e+02   1.1792750e+02
   6.3071720e+02   1.0575420e+02
   6.3119930e+02   9.5131200e+01
   6.3168140e+02   8.6624440e+01
   6.3216350e+02   8.1131070e+01
   6.3264560e+02   7.7897350e+01
   6.3312770e+02   7.5663760e+01
   6.3360990e+02   7.4398320e+01
   6.3409200e+02   7.3668660e+01
   6.3457410e+02   7.3506620e+01
   6.3505620e+02   7.3821650e+01
   6.3553830e+02   7.4208440e+01
   6.3602040e+02   7.4497280e+01
   6.3650260e+02   7.5197720e+01
   6.3698470e+02   7.6452240e+01
   6.3746680e+02   7.8187300e+01
   6.3794890e+02   8.0151290e+01
   6.3843100e+02   8.2570720e+01
   6.3891310e+02   8.4395970e+01
   6.3939530e+02   8.4886180e+01
   6.3987740e+02   8.4184580e+01
   6.4035950e+02   8.2978340e+01
   6.4084160e+02   8.1314250e+01
   6.4132370e+02   7.8890370e+01
   6.4180580e+02   7.5315150e+01
   6.4228800e+02   7.0878810e+01
   6.4277010e+02   6.6031850e+01
   6.4325220e+02   6.0723340e+01
   6.4373430e+02   5.5296540e+01
   6.4421640e+02   4.9534710e+01
   6.4469850e+02   4.3816310e+01
   6.4518070e+02   3.8693700e+01
   6.4566280e+02   3.4282630e+01
   6.4614490e+02   3.0493870e+01
   6.4662700e+02   2.7560400e+01
   6.4710910e+02   2.5159780e+01
   6.4759120e+02   2.2530200e+01
   6.4807340e+02   1.9492940e+01
   6.4855550e+02   1.6685490e+01
   6.4903760e+02   1.4300280e+01
   6.4951970e+02   1.2269600e+01
   6.5000180e+02   1.0307290e+01
   6.5048390e+02   8.3865430e+00
   6.5096610e+02   6.6151120e+00
   6.5144820e+02   4.9370350e+00
   6.5193030e+02   3.4734800e+00
   6.5241240e+02   2.5079880e+00
   6.5289450e+02   2.0438840e+00
   6.5337660e+02   1.6661910e+00
   6.5385880e+02   1.1738360e+00
   6.5434090e+02   5.9777100e-01
   6.5482300e+02   1.0479700e-01
   6.5530510e+02   1.0978620e+00
   6.5578720e+02   1.7364880e+00
   6.5626930e+02   1.4559330e+00
   6.5675150e+02   9.9402600e-01
   6.5723360e+02   1.0986480e+00
   6.5771580e+02   2.2129360e+00
   6.5819790e+02   2.9244380e+00
   6.5868000e+02   3.0733640e+00
   6.5916210e+02   2.8423000e+00
   6.5964420e+02   2.5156170e+00
   6.6012630e+02   2.0944600e+00
   6.6060850e+02   1.5779270e+00
   6.6109060e+02   8.6286900e-01
   6.6157270e+02   1.8231200e-01
   6.6205480e+02   9.3268998e-02
   6.6253690e+02   1.2215000e-02
   6.6301900e+02   4.0692100e-01
   6.6350120e+02   1.4603460e+00
   6.6398330e+02   2.4547580e+00
   6.6446540e+02   2.7279240e+00
   6.6494750e+02   2.3489570e+00
   6.6542960e+02   2.0274090e+00
   6.6591170e+02   2.1396140e+00
   6.6639390e+02   2.2378650e+00
   6.6687600e+02   1.9836580e+00
   6.6735810e+02   1.2389760e+00
   6.6784020e+02   1.1268730e+00
   6.6832230e+02   2.0658070e+00
   6.6880440e+02   2.9784390e+00
   6.6928660e+02   2.9090690e+00
   6.6976870e+02   1.8020170e+00
   6.7025080e+02   1.1922000e+00
   6.7073290e+02   1.2120780e+00
   6.7121500e+02   1.4904900e+00
   6.7169710e+02   1.8495520e+00
   6.7217930e+02   2.1401440e+00
   6.7266140e+02   1.8714520e+00
   6.7314350e+02   7.0176700e-01
   6.7362560e+02   4.4556800e-01
   6.7410770e+02   8.7667800e-01
   6.7458980e+02   7.9634100e-01
   6.7507200e+02   5.2287700e-01
   6.7555410e+02   2.6580400e-01
   6.7603620e+02   7.6486200e-01
   6.7651830e+02   4.9454500e-01
   6.7700040e+02   2.2615400e-01
   6.7748250e+02   5.0016000e-01
   6.7796470e+02   5.2329998e-02
   6.7844680e+02   2.9873700e-01
   6.7892890e+02   3.5327100e-01
   6.7941100e+02   1.3156900e-01
   6.7989310e+02   4.1874300e-01
   6.8037520e+02   1.3347280e+00
   6.8085740e+02   1.9320530e+00
   6.8133950e+02   1.4363670e+00
   6.8182160e+02   4.5704300e-01
   6.8230370e+02   5.0797700e-01
   6.8278580e+02   1.5091290e+00
   6.8326790e+02   2.2282750e+00
   6.8375010e+02   1.5497320e+00
   6.8423220e+02   4.2614700e-01
   6.8471430e+02   4.6817400e-01
   6.8519640e+02   1.0724140e+00
   6.8567850e+02   1.2068480e+00
   6.8616060e+02   4.3815600e-01
   6.8664280e+02   5.6110400e-01
   6.8712490e+02   1.3503800e+00
   6.8760700e+02   2.0719870e+00
   6.8808910e+02   2.1545640e+00
   6.8857120e+02   1.3206330e+00
   6.8905330e+02   3.0537400e-01
   6.8953550e+02   1.2981000e-02
   6.9001760e+02   3.4275400e-01
   6.9049970e+02   1.0261340e+00
   6.9098180e+02   2.0889470e+00
   6.9146390e+02   3.1402470e+00
   6.9194600e+02   3.7865370e+00
   6.9242820e+02   3.9937210e+00
   6.9291030e+02   3.6389540e+00
   6.9339240e+02   1.9772260e+00
   6.9387450e+02   5.7103700e-01
   6.9435660e+02   5.8606300e-01
   6.9483870e+02   1.5491750e+00
   6.9532090e+02   2.3469050e+00
   6.9580300e+02   2.5465090e+00
   6.9628510e+02   2.8803520e+00
   6.9676720e+02   3.6626890e+00
   6.9724930e+02   4.7420430e+00
   6.9773140e+02   5.2311250e+00
   6.9821360e+02   4.9204030e+00
   6.9869570e+02   4.7144050e+00
   6.9917780e+02   5.0646550e+00
   6.9965990e+02   5.8420260e+00
   7.0014200e+02   6.6244510e+00
   7.0062410e+02   7.3855210e+00
   7.0110630e+02   7.6838530e+00
   7.0158840e+02   6.7519000e+00
   7.0207050e+02   5.5441970e+00
   7.0255260e+02   5.3637730e+00
   7.0303470e+02   6.2946780e+00
   7.0351680e+02   7.2296140e+00
   7.0399900e+02   7.8800050e+00
   7.0448110e+02   8.1565320e+00
   7.0496320e+02   7.8408130e+00
   7.0544530e+02   6.3908390e+00
   7.0592740e+02   5.9330790e+00
   7.0640950e+02   7.0636060e+00
   7.0689170e+02   8.5150530e+00
   7.0737380e+02   9.1500780e+00
   7.0785600e+02   8.8525770e+00
   7.0833810e+02   8.8762400e+00
   7.0882020e+02   9.4277110e+00
   7.0930230e+02   9.9128000e+00
   7.0978440e+02   9.2615550e+00
   7.1026650e+02   7.9305730e+00
   7.1074870e+02   7.2142370e+00
   7.1123080e+02   7.5511630e+00
   7.1171290e+02   8.3023340e+00
   7.1219500e+02   9.2181850e+00
   7.1267710e+02   1.0151990e+01
   7.1315920e+02   1.0871620e+01
   7.1364140e+02   1.1617690e+01
   7.1412350e+02   1.1800740e+01
   7.1460560e+02   1.0717290e+01
   7.1508770e+02   9.0687710e+00
   7.1556980e+02   8.2732660e+00
   7.1605190e+02   8.6022030e+00
   7.1653410e+02   9.1687280e+00
   7.1701620e+02   9.9557380e+00
   7.1749830e+02   1.0726140e+01
   7.1798040e+02   1.0591980e+01
   7.1846250e+02   9.6226230e+00
   7.1894460e+02   8.7838970e+00
   7.1942680e+02   8.4819600e+00
   7.1990890e+02   8.5868720e+00
   7.2039100e+02   9.2418140e+00
   7.2087310e+02   1.0245900e+01
   7.2135520e+02   1.0765030e+01
   7.2183730e+02   9.7543330e+00
   7.2231950e+02   8.7263870e+00
   7.2280160e+02   8.7046810e+00
   7.2328370e+02   9.7336650e+00
   7.2376580e+02   1.0165640e+01
   7.2424790e+02   9.5448340e+00
   7.2473000e+02   8.8805200e+00
   7.2521220e+02   8.6800270e+00
   7.2569430e+02   8.9113460e+00
   7.2617640e+02   8.9879570e+00
   7.2665850e+02   8.9404260e+00
   7.2714060e+02   8.6177440e+00
   7.2762270e+02   7.5840570e+00
   7.2810490e+02   6.2387350e+00
   7.2858700e+02   5.6195790e+00
   7.2906910e+02   5.8039930e+00
   7.2955120e+02   6.2474520e+00
   7.3003330e+02   6.7439690e+00
   7.3051540e+02   7.2566340e+00
   7.3099760e+02   7.8376580e+00
   7.3147970e+02   8.6694370e+00
   7.3196180e+02   8.9356420e+00
   7.3244390e+02   8.1208080e+00
   7.3292600e+02   6.9383770e+00
   7.3340810e+02   5.7437590e+00
   7.3389030e+02   4.2239190e+00
   7.3437240e+02   4.0334850e+00
   7.3485450e+02   5.6657300e+00
   7.3533660e+02   7.6688040e+00
   7.3581870e+02   8.1933360e+00
   7.3630080e+02   7.4644620e+00
   7.3678300e+02   6.3481900e+00
   7.3726510e+02   4.8211480e+00
   7.3774720e+02   3.7045900e+00
   7.3822930e+02   4.4066770e+00
   7.3871140e+02   5.8730960e+00
   7.3919350e+02   6.5189170e+00
   7.3967570e+02   4.7934000e+00
   7.4015780e+02   3.3590810e+00
   7.4063990e+02   3.1085240e+00
   7.4112200e+02   3.6044580e+00
   7.4160410e+02   4.0969730e+00
   7.4208620e+02   4.6297990e+00
   7.4256840e+02   4.7212300e+00
   7.4305050e+02   4.1602550e+00
   7.4353260e+02   3.3244210e+00
   7.4401470e+02   3.0536190e+00
   7.4449680e+02   3.3252530e+00
   7.4497890e+02   3.8275680e+00
   7.4546110e+02   4.7462310e+00
   7.4594320e+02   5.4472500e+00
   7.4642530e+02   4.6740800e+00
   7.4690740e+02   2.9710080e+00
   7.4738950e+02   1.8383940e+00
   7.4787160e+02   2.5866660e+00
   7.4835380e+02   3.4730260e+00
   7.4883590e+02   3.7837100e+00
   7.4931800e+02   3.5907440e+00
   7.4980010e+02   3.3520090e+00
   7.5028220e+02   3.1338040e+00
   7.5076430e+02   2.6403160e+00
   7.5124650e+02   1.5289460e+00
   7.5172860e+02   3.9092999e-02
   7.5221070e+02   2.8327900e-01
   7.5269280e+02   6.2437100e-01
   7.5317490e+02   1.6119800e+00
   7.5365700e+02   1.9796710e+00
   7.5413920e+02   2.0158120e+00
   7.5462130e+02   2.2123870e+00
   7.5510340e+02   2.5286710e+00
   7.5558550e+02   2.7314000e+00
   7.5606760e+02   2.7887500e+00
   7.5654980e+02   2.5913930e+00
   7.5703190e+02   1.7350540e+00
   7.5751400e+02   1.9210400e-01
   7.5799620e+02   1.0901600e-01
   7.5847830e+02   2.0644490e+00
   7.5896040e+02   3.8288000e+00
   7.5944250e+02   3.5978280e+00
   7.5992460e+02   1.4455340e+00
   7.6040670e+02   6.0423300e-01
   7.6088890e+02   1.1911810e+00
   7.6137100e+02   2.1198460e+00
   7.6185310e+02   2.8524280e+00
   7.6233520e+02   3.2783780e+00
   7.6281730e+02   2.9228900e+00
   7.6329940e+02   1.8008580e+00
   7.6378160e+02   1.0533600e+00
   7.6426370e+02   1.8056830e+00
   7.6474580e+02   2.9179270e+00
   7.6522790e+02   3.5533450e+00
   7.6571000e+02   3.5538020e+00
   7.6619210e+02   3.4613910e+00
   7.6667430e+02   3.1197130e+00
   7.6715640e+02   2.9313130e+00
   7.6763850e+02   3.2734720e+00
   7.6812060e+02   4.2598040e+00
   7.6860270e+02   4.6561850e+00
   7.6908480e+02   4.4015580e+00
   7.6956700e+02   3.9220280e+00
   7.7004910e+02   3.5069350e+00
   7.7053120e+02   3.1677630e+00
   7.7101330e+02   2.8788760e+00
   7.7149540e+02   2.6190610e+00
   7.7197750e+02   2.6340790e+00
   7.7245970e+02   3.5380100e+00
   7.7294180e+02   4.4968760e+00
   7.7342390e+02   4.7395100e+00
   7.7390600e+02   3.7101250e+00
   7.7438810e+02   3.1211360e+00
   7.7487020e+02   3.2566910e+00
   7.7535240e+02   3.5904770e+00
   7.7583450e+02   3.6977160e+00
   7.7631660e+02   3.5639570e+00
   7.7679870e+02   3.3354450e+00
   7.7728080e+02   2.9843520e+00
   7.7776290e+02   2.7363820e+00
   7.7824510e+02   3.1009600e+00
   7.7872720e+02   3.6924440e+00
   7.7920930e+02   3.5783960e+00
   7.7969140e+02   2.3519400e+00
   7.8017350e+02   1.4694900e+00
   7.8065560e+02   2.1937140e+00
   7.8113780e+02   3.4845310e+00
   7.8161990e+02   4.3365290e+00
   7.8210200e+02   4.3005140e+00
   7.8258410e+02   4.2716940e+00
   7.8306620e+02   4.2216190e+00
   7.8354830e+02   4.2095490e+00
   7.8403050e+02   4.3931010e+00
   7.8451260e+02   4.7919270e+00
   7.8499470e+02   4.7304310e+00
   7.8547680e+02   4.0434460e+00
   7.8595890e+02   3.2846070e+00
   7.8644100e+02   3.1635590e+00
   7.8692320e+02   3.4232790e+00
   7.8740530e+02   3.6168060e+00
   7.8788740e+02   3.6744730e+00
   7.8836950e+02   3.5393490e+00
   7.8885160e+02   3.2063480e+00
   7.8933370e+02   2.6587330e+00
   7.8981590e+02   1.8377910e+00
   7.9029800e+02   2.9262900e-01
   7.9078010e+02   7.0534500e-01
   7.9126220e+02   1.0551380e+00
   7.9174430e+02   9.3683600e-01
   7.9222640e+02   4.6223800e-01
   7.9270860e+02   3.5855100e-01
   7.9319070e+02   1.1718830e+00
   7.9367280e+02   1.9889340e+00
   7.9415490e+02   2.5304450e+00
   7.9463700e+02   2.4339710e+00
   7.9511910e+02   1.8666110e+00
   7.9560130e+02   1.0171320e+00
   7.9608340e+02   5.1015900e-01
   7.9656550e+02   1.3750690e+00
   7.9704760e+02   3.0604600e-01
   7.9752970e+02   1.2917400e+00
   7.9801180e+02   1.6021420e+00
   7.9849400e+02   4.0391500e-01
   7.9897610e+02   1.1881030e+00
   7.9945820e+02   7.2483003e-02
   7.9994030e+02   1.5561560e+00
   8.0042240e+02   1.6474910e+00
   8.0090450e+02   4.7568900e-01
   8.0138670e+02   2.7317800e-01
   8.0186880e+02   2.0277400e-01
   8.0235090e+02   1.6257100e-01
   8.0283300e+02   4.8508800e-01
   8.0331510e+02   7.2071500e-01
   8.0379720e+02   7.8377900e-01
   8.0427940e+02   4.6888700e-01
   8.0476150e+02   2.8219600e-01
   8.0524360e+02   6.3247700e-01
   8.0572580e+02   1.0006260e+00
   8.0620790e+02   6.8649300e-01
   8.0669000e+02   6.8583700e-01
   8.0717210e+02   1.1696740e+00
   8.0765420e+02   3.6572300e-01
   8.0813640e+02   8.1678400e-01
   8.0861850e+02   1.0908430e+00
   8.0910060e+02   7.4212300e-01
   8.0958270e+02   6.3631400e-01
   8.1006480e+02   1.1150630e+00
   8.1054690e+02   1.5902480e+00
   8.1102910e+02   1.5356250e+00
   8.1151120e+02   1.1548310e+00
   8.1199330e+02   6.8935400e-01
   8.1247540e+02   4.8679002e-02
   8.1295750e+02   4.8916600e-01
   8.1343960e+02   5.6561700e-01
   8.1392180e+02   3.8761900e-01
   8.1440390e+02   4.9888998e-02
   8.1488600e+02   4.5556300e-01
   8.1536810e+02   1.0271870e+00
   8.1585020e+02   1.7221720e+00
   8.1633230e+02   2.3336600e+00
   8.1681450e+02   2.2686350e+00
   8.1729660e+02   1.9084740e+00
   8.1777870e+02   1.9688760e+00
   8.1826080e+02   2.7209050e+00
   8.1874290e+02   3.5612110e+00
   8.1922500e+02   4.3813400e+00
   8.1970720e+02   5.0439220e+00
   8.2018930e+02   5.3712730e+00
   8.2067140e+02   5.0785870e+00
   8.2115350e+02   5.0914230e+00
   8.2163560e+02   5.5507130e+00
   8.2211770e+02   6.0735700e+00
   8.2259990e+02   6.2940290e+00
   8.2308200e+02   6.2114220e+00
   8.2356410e+02   5.6711120e+00
   8.2404620e+02   4.5632480e+00
   8.2452830e+02   3.7665790e+00
   8.2501040e+02   4.5031780e+00
   8.2549260e+02   5.8080860e+00
   8.2597470e+02   6.4697000e+00
   8.2645680e+02   5.9534950e+00
   8.2693890e+02   5.8584520e+00
   8.2742100e+02   6.9928740e+00
   8.2790310e+02   8.3253860e+00
   8.2838530e+02   9.2390290e+00
   8.2886740e+02   9.7233120e+00
   8.2934950e+02   9.6390570e+00
   8.2983160e+02   8.8176350e+00
   8.3031370e+02   8.1685140e+00
   8.3079580e+02   8.7489970e+00
   8.3127800e+02   1.0113830e+01
   8.3176010e+02   1.1430280e+01
   8.3224220e+02   1.2609010e+01
   8.3272430e+02   1.3487860e+01
   8.3320640e+02   1.3800100e+01
   8.3368850e+02   1.3875620e+01
   8.3417070e+02   1.3903060e+01
   8.3465280e+02   1.3830620e+01
   8.3513490e+02   1.4078340e+01
   8.3561700e+02   1.4764520e+01
   8.3609910e+02   1.5569020e+01
   8.3658120e+02   1.6469020e+01
   8.3706340e+02   1.7409330e+01
   8.3754550e+02   1.7226240e+01
   8.3802760e+02   1.5890140e+01
   8.3850970e+02   1.4925350e+01
   8.3899180e+02   1.5870970e+01
   8.3947390e+02   1.7551700e+01
   8.3995610e+02   1.8782640e+01
   8.4043820e+02   1.9482540e+01
   8.4092030e+02   1.9923910e+01
   8.4140240e+02   2.0293270e+01
   8.4188450e+02   2.0297800e+01
   8.4236660e+02   1.9647620e+01
   8.4284880e+02   1.8366800e+01
   8.4333090e+02   1.7816470e+01
   8.4381300e+02   1.8113870e+01
   8.4429510e+02   1.8489280e+01
   8.4477720e+02   1.8437810e+01
   8.4525930e+02   1.8160420e+01
   8.4574150e+02   1.8203750e+01
   8.4622360e+02   1.8488980e+01
   8.4670570e+02   1.8585860e+01
   8.4718780e+02   1.8094240e+01
   8.4766990e+02   1.7496650e+01
   8.4815200e+02   1.7074620e+01
   8.4863420e+02   1.6787570e+01
   8.4911630e+02   1.6370090e+01
   8.4959840e+02   1.5811880e+01
   8.5008050e+02   1.5182510e+01
   8.5056260e+02   1.4368680e+01
   8.5104470e+02   1.3554240e+01
   8.5152690e+02   1.3576350e+01
   8.5200900e+02   1.4327100e+01
   8.5249110e+02   1.4923350e+01
   8.5297320e+02   1.4877580e+01
   8.5345530e+02   1.4509540e+01
   8.5393740e+02   1.4044530e+01
   8.5441960e+02   1.3460040e+01
   8.5490170e+02   1.2811750e+01
   8.5538390e+02   1.1952900e+01
   8.5586600e+02   1.1119410e+01
   8.5634810e+02   1.0215470e+01
   8.5683020e+02   9.4042660e+00
   8.5731230e+02   9.2513580e+00
   8.5779440e+02   9.7854000e+00
   8.5827660e+02   1.0089780e+01
   8.5875870e+02   9.8762740e+00
   8.5924080e+02   9.4329340e+00
   8.5972290e+02   9.3465080e+00
   8.6020500e+02   9.3556980e+00
   8.6068710e+02   8.8580970e+00
   8.6116930e+02   7.0176350e+00
   8.6165140e+02   5.6459350e+00
   8.6213350e+02   5.4683340e+00
   8.6261560e+02   6.1608430e+00
   8.6309770e+02   7.3622440e+00
   8.6357980e+02   9.6356580e+00
   8.6406200e+02   1.0774300e+01
   8.6454410e+02   1.0458710e+01
   8.6502620e+02   9.2588040e+00
   8.6550830e+02   7.4149440e+00
   8.6599040e+02   5.3019450e+00
   8.6647250e+02   4.2175830e+00
   8.6695470e+02   4.5126000e+00
   8.6743680e+02   5.0337300e+00
   8.6791890e+02   4.8901670e+00
   8.6840100e+02   4.6516530e+00
   8.6888310e+02   4.9406170e+00
   8.6936520e+02   6.2757380e+00
   8.6984740e+02   6.8051260e+00
   8.7032950e+02   6.0499690e+00
   8.7081160e+02   5.1998670e+00
   8.7129370e+02   5.4417270e+00
   8.7177580e+02   6.6221240e+00
   8.7225790e+02   6.5646820e+00
   8.7274010e+02   5.1886410e+00
   8.7322220e+02   4.0085070e+00
   8.7370430e+02   4.5622410e+00
   8.7418640e+02   5.6775670e+00
   8.7466850e+02   6.1546360e+00
   8.7515060e+02   5.8921430e+00
   8.7563280e+02   5.8366660e+00
   8.7611490e+02   6.7406880e+00
   8.7659700e+02   7.3204690e+00
   8.7707910e+02   6.8961750e+00
   8.7756120e+02   5.6277120e+00
   8.7804330e+02   5.3059040e+00
   8.7852550e+02   5.9457020e+00
   8.7900760e+02   6.6243740e+00
   8.7948970e+02   6.7681080e+00
   8.7997180e+02   6.6647910e+00
   8.8045390e+02   6.6612510e+00
   8.8093600e+02   6.7382850e+00
   8.8141820e+02   6.8443830e+00
   8.8190030e+02   6.9828950e+00
   8.8238240e+02   7.1287880e+00
   8.8286450e+02   7.4665410e+00
   8.8334660e+02   7.8748360e+00
   8.8382870e+02   7.7350200e+00
   8.8431090e+02   6.8000640e+00
   8.8479300e+02   6.2168810e+00
   8.8527510e+02   6.4949190e+00
   8.8575720e+02   6.9871860e+00
   8.8623930e+02   6.4093130e+00
   8.8672140e+02   5.2320520e+00
   8.8720360e+02   4.5235600e+00
   8.8768570e+02   4.6537970e+00
   8.8816780e+02   5.1336750e+00
   8.8864990e+02   6.4394450e+00
   8.8913200e+02   7.7394640e+00
   8.8961410e+02   7.7669260e+00
   8.9009630e+02   5.6624870e+00
   8.9057840e+02   4.5737800e+00
   8.9106050e+02   4.8961410e+00
   8.9154260e+02   5.7806430e+00
   8.9202470e+02   6.4595720e+00
   8.9250680e+02   6.9125940e+00
   8.9298900e+02   6.9908910e+00
   8.9347110e+02   6.6311260e+00
   8.9395320e+02   6.1019060e+00
   8.9443530e+02   5.3596080e+00
   8.9491740e+02   4.7055400e+00
   8.9539950e+02   4.4147070e+00
   8.9588170e+02   4.5986670e+00
   8.9636380e+02   4.6894230e+00
   8.9684590e+02   4.5961530e+00
   8.9732800e+02   4.5890810e+00
   8.9781010e+02   4.9081990e+00
   8.9829220e+02   5.4850500e+00
   8.9877440e+02   5.9167400e+00
   8.9925650e+02   6.2491720e+00
   8.9973860e+02   6.5224650e+00
   9.0022070e+02   6.9536060e+00
   9.0070280e+02   7.1759190e+00
   9.0118490e+02   6.6114390e+00
   9.0166710e+02   5.4434280e+00
   9.0214920e+02   5.0818210e+00
   9.0263130e+02   6.3388480e+00
   9.0311340e+02   7.2051320e+00
   9.0359550e+02   7.0257490e+00
   9.0407760e+02   6.2112120e+00
   9.0455980e+02   5.9299890e+00
   9.0504190e+02   6.1186980e+00
   9.0552400e+02   6.2625470e+00
   9.0600620e+02   6.1841240e+00
   9.0648830e+02   5.9700580e+00
   9.0697040e+02   5.4953840e+00
   9.0745250e+02   4.9949650e+00
   9.0793460e+02   4.8409580e+00
   9.0841670e+02   6.0473630e+00
   9.0889890e+02   6.2076640e+00
   9.0938100e+02   4.5384450e+00
   9.0986310e+02   2.5161550e+00
   9.1034520e+02   2.1354480e+00
   9.1082730e+02   3.2812650e+00
   9.1130940e+02   4.2865410e+00
   9.1179160e+02   4.9700360e+00
   9.1227370e+02   5.3403510e+00
   9.1275580e+02   5.3697620e+00
   9.1323790e+02   5.1096950e+00
   9.1372000e+02   4.5364340e+00
   9.1420210e+02   3.5596730e+00
   9.1468430e+02   2.7596930e+00
   9.1516640e+02   2.0531650e+00
   9.1564850e+02   1.7588500e+00
   9.1613060e+02   2.2840500e+00
   9.1661270e+02   3.5355990e+00
   9.1709480e+02   3.7403600e+00
   9.1757700e+02   2.9027060e+00
   9.1805910e+02   2.0574950e+00
   9.1854120e+02   1.9547120e+00
   9.1902330e+02   2.1150700e+00
   9.1950540e+02   2.0579340e+00
   9.1998750e+02   1.8178140e+00
   9.2046970e+02   1.5966990e+00
   9.2095180e+02   1.3929820e+00
   9.2143390e+02   1.2972410e+00
   9.2191600e+02   1.3857460e+00
   9.2239810e+02   1.5588110e+00
   9.2288020e+02   1.4619100e+00
   9.2336240e+02   1.1124310e+00
   9.2384450e+02   1.2200360e+00
   9.2432660e+02   2.2822800e+00
   9.2480870e+02   3.1621970e+00
   9.2529080e+02   2.2209240e+00
   9.2577290e+02   4.2535400e-01
   9.2625510e+02   8.2131600e-01
   9.2673720e+02   1.0797840e+00
   9.2721930e+02   8.5783000e-01
   9.2770140e+02   1.4537800e-01
   9.2818350e+02   1.1749840e+00
   9.2866560e+02   1.4678340e+00
   9.2914780e+02   1.0254670e+00
   9.2962990e+02   7.0593600e-01
   9.3011200e+02   5.4852700e-01
   9.3059410e+02   5.6143200e-01
   9.3107620e+02   8.9423800e-01
   9.3155830e+02   1.3122290e+00
   9.3204050e+02   1.6456720e+00
   9.3252260e+02   1.8661960e+00
   9.3300470e+02   1.7495500e+00
   9.3348680e+02   9.0883300e-01
   9.3396890e+02   1.1489100e-01
   9.3445100e+02   4.2209600e-01
   9.3493320e+02   6.9315300e-01
   9.3541530e+02   4.9429300e-01
   9.3589740e+02   1.4754900e-01
   9.3637950e+02   6.1313600e-01
   9.3686160e+02   4.6791100e-01
   9.3734380e+02   1.8778200e-01
   9.3782590e+02   2.9390700e-01
   9.3830800e+02   6.1847700e-01
   9.3879010e+02   8.2264300e-01
   9.3927220e+02   1.1051290e+00
   9.3975430e+02   7.6940200e-01
   9.4023650e+02   6.9081100e-01
   9.4071860e+02   2.2772290e+00
   9.4120070e+02   2.3968320e+00
   9.4168280e+02   1.1899830e+00
   9.4216490e+02   2.4793600e-01
   9.4264700e+02   2.4928300e-01
   9.4312920e+02   2.6928300e-01
   9.4361130e+02   8.8745500e-01
   9.4409340e+02   2.1101040e+00
   9.4457550e+02   2.0970730e+00
   9.4505760e+02   3.4495900e-01
   9.4553970e+02   6.2094500e-01
   9.4602190e+02   1.6375000e-01
   9.4650400e+02   3.4517300e-01
   9.4698610e+02   1.6978800e-01
   9.4746820e+02   5.6477700e-01
   9.4795030e+02   1.2104990e+00
   9.4843240e+02   1.7421420e+00
   9.4891460e+02   1.9024390e+00
   9.4939670e+02   1.1739430e+00
   9.4987880e+02   3.5578200e-01
   9.5036090e+02   8.1019998e-02
   9.5084300e+02   1.9108200e-01
   9.5132510e+02   1.9760900e-01
   9.5180730e+02   1.8928999e-02
   9.5228940e+02   2.2919800e-01
   9.5277150e+02   4.6557600e-01
   9.5325360e+02   5.8134100e-01
   9.5373570e+02   1.2606800e-01
   9.5421790e+02   6.9444700e-01
   9.5470000e+02   8.7237900e-01
   9.5518210e+02   2.0671999e-02
   9.5566420e+02   4.8172400e-01
   9.5614640e+02   1.2123720e+00
   9.5662850e+02   3.3854790e+00
   9.5711060e+02   4.4799730e+00
   9.5759270e+02   4.1420590e+00
   9.5807480e+02   3.7944490e+00
   9.5855690e+02   3.3563610e+00
   9.5903910e+02   3.1261750e+00
   9.5952120e+02   3.3488080e+00
   9.6000330e+02   3.9193570e+00
   9.6048540e+02   4.6524580e+00
   9.6096750e+02   5.4954910e+00
   9.6144960e+02   6.1349260e+00
   9.6193180e+02   6.5813830e+00
   9.6241390e+02   6.6128310e+00
   9.6289600e+02   5.5429530e+00
   9.6337810e+02   4.0306780e+00
   9.6386020e+02   4.0164260e+00
   9.6434230e+02   6.0270160e+00
   9.6482450e+02   7.1922450e+00
   9.6530660e+02   6.7215040e+00
   9.6578870e+02   5.7848510e+00
   9.6627080e+02   6.0095670e+00
   9.6675290e+02   7.0194320e+00
   9.6723500e+02   8.1803510e+00
   9.6771720e+02   9.5019760e+00
   9.6819930e+02   1.0421630e+01
   9.6868140e+02   1.0342660e+01
   9.6916350e+02   1.0121190e+01
   9.6964560e+02   1.0376120e+01
   9.7012770e+02   1.1151950e+01
   9.7060990e+02   1.1602240e+01
   9.7109200e+02   1.1656590e+01
   9.7157410e+02   1.2256090e+01
   9.7205620e+02   1.4637040e+01
   9.7253830e+02   1.7528690e+01
   9.7302040e+02   1.9036150e+01
   9.7350260e+02   1.9550400e+01
   9.7398470e+02   2.0813320e+01
   9.7446680e+02   2.3932320e+01
   9.7494890e+02   2.7210580e+01
   9.7543100e+02   3.0483700e+01
   9.7591310e+02   3.3573740e+01
   9.7639530e+02   3.6226160e+01
   9.7687740e+02   3.8451400e+01
   9.7735950e+02   3.9857040e+01
   9.7784160e+02   4.0141550e+01
   9.7832370e+02   4.0459610e+01
   9.7880580e+02   4.1935760e+01
   9.7928800e+02   4.3996340e+01
   9.7977010e+02   4.6102620e+01
   9.8025220e+02   4.8286530e+01
   9.8073430e+02   4.9924670e+01
   9.8121640e+02   5.0625210e+01
   9.8169850e+02   5.1657840e+01
   9.8218070e+02   5.3753670e+01
   9.8266280e+02   5.6763280e+01
   9.8314490e+02   6.0207660e+01
   9.8362700e+02   6.4130890e+01
   9.8410910e+02   6.8519110e+01
   9.8459120e+02   7.3589490e+01
   9.8507340e+02   7.8820370e+01
   9.8555550e+02   8.3778530e+01
   9.8603760e+02   8.8878430e+01
   9.8651970e+02   9.5393990e+01
   9.8700180e+02   1.0439180e+02
   9.8748390e+02   1.1089800e+02
   9.8796610e+02   1.1373140e+02
   9.8844820e+02   1.1491380e+02
   9.8893030e+02   1.1576940e+02
   9.8941240e+02   1.1740720e+02
   9.8989450e+02   1.2178290e+02
   9.9037660e+02   1.2922440e+02
   9.9085880e+02   1.3939190e+02
   9.9134090e+02   1.5138170e+02
   9.9182300e+02   1.6701910e+02
   9.9230510e+02   1.8731440e+02
   9.9278720e+02   2.1187640e+02
   9.9326930e+02   2.3976140e+02
   9.9375150e+02   2.7105830e+02
   9.9423360e+02   3.0448940e+02
   9.9471570e+02   3.4165590e+02
   9.9519780e+02   3.7849750e+02
   9.9567990e+02   4.1048620e+02
   9.9616200e+02   4.3908130e+02
   9.9664420e+02   4.6717940e+02
   9.9712630e+02   4.9389090e+02
   9.9760840e+02   5.2238500e+02
   9.9809050e+02   5.5226250e+02
   9.9857260e+02   5.8469830e+02
   9.9905470e+02   6.2103100e+02
   9.9953690e+02   6.6183680e+02
   1.0000190e+03   7.0897110e+02
   1.0005010e+03   7.6264320e+02
   1.0009830e+03   8.2211500e+02
   1.0014650e+03   8.8909470e+02
   1.0019470e+03   9.6061400e+02
   1.0024300e+03   1.0343670e+03
   1.0029120e+03   1.1110080e+03
   1.0033940e+03   1.1888560e+03
   1.0038760e+03   1.2703760e+03
   1.0043580e+03   1.3495910e+03
   1.0048400e+03   1.4350290e+03
   1.0053220e+03   1.5062460e+03
   1.0058040e+03   1.5323710e+03
   1.0062870e+03   1.5123500e+03
   1.0067690e+03   1.4422630e+03
   1.0072510e+03   1.2926600e+03
   1.0077330e+03   1.1364330e+03
   1.0082150e+03   9.7956410e+02
   1.0086970e+03   8.3605690e+02
   1.0091790e+03   7.1736220e+02
   1.0096610e+03   6.2473900e+02
   1.0101430e+03   5.5133670e+02
   1.0106260e+03   4.9668320e+02
   1.0111080e+03   4.5295180e+02
   1.0115900e+03   4.1607420e+02
   1.0120720e+03   3.8433700e+02
   1.0125540e+03   3.5660600e+02
   1.0130360e+03   3.3247580e+02
   1.0135180e+03   3.0921750e+02
   1.0140000e+03   2.8629540e+02
   1.0144830e+03   2.6451860e+02
   1.0149650e+03   2.4402920e+02
   1.0154470e+03   2.2505260e+02
   1.0159290e+03   2.0799270e+02
   1.0164110e+03   1.9254640e+02
   1.0168930e+03   1.7754440e+02
   1.0173750e+03   1.6230550e+02
   1.0178570e+03   1.4835360e+02
   1.0183390e+03   1.3700800e+02
   1.0188220e+03   1.2708740e+02
   1.0193040e+03   1.1731370e+02
   1.0197860e+03   1.0746510e+02
   1.0202680e+03   9.9230280e+01
   1.0207500e+03   9.2766780e+01
   1.0212320e+03   8.6898340e+01
   1.0217140e+03   8.0941770e+01
   1.0221960e+03   7.5076470e+01
   1.0226790e+03   6.9476780e+01
   1.0231610e+03   6.4237140e+01
   1.0236430e+03   5.9697170e+01
   1.0241250e+03   5.6234740e+01
   1.0246070e+03   5.3219630e+01
   1.0250890e+03   5.0817030e+01
   1.0255710e+03   4.8488600e+01
   1.0260530e+03   4.5125290e+01
   1.0265350e+03   4.1008970e+01
   1.0270180e+03   3.8166950e+01
   1.0275000e+03   3.6900090e+01
   1.0279820e+03   3.5818560e+01
   1.0284640e+03   3.4069900e+01
   1.0289460e+03   3.1902840e+01
   1.0294280e+03   2.9302700e+01
   1.0299100e+03   2.6291110e+01
   1.0303920e+03   2.4003940e+01
   1.0308750e+03   2.2600980e+01
   1.0313570e+03   2.1287010e+01
   1.0318390e+03   1.9765290e+01
   1.0323210e+03   1.8171860e+01
   1.0328030e+03   1.7021820e+01
   1.0332850e+03   1.5950200e+01
   1.0337670e+03   1.4103750e+01
   1.0342490e+03   1.0423610e+01
   1.0347310e+03   7.5852810e+00
   1.0352140e+03   6.8210910e+00
   1.0356960e+03   6.5540770e+00
   1.0361780e+03   5.4789660e+00
   1.0366600e+03   3.6192930e+00
   1.0371420e+03   3.1430740e+00
   1.0376240e+03   3.9899520e+00
   1.0381060e+03   4.3297960e+00
   1.0385880e+03   2.4199750e+00
   1.0390710e+03   7.0199999e-04
   1.0395530e+03   1.6618350e+00
   1.0400350e+03   2.7465130e+00
   1.0405170e+03   4.1009220e+00
   1.0409990e+03   6.2216490e+00
   1.0414810e+03   7.2770390e+00
   1.0419630e+03   6.7396160e+00
   1.0424450e+03   5.8133320e+00
   1.0429270e+03   6.1797260e+00
   1.0434100e+03   7.2870790e+00
   1.0438920e+03   8.1372380e+00
   1.0443740e+03   8.5929640e+00
   1.0448560e+03   8.6821750e+00
   1.0453380e+03   7.9670330e+00
   1.0458200e+03   7.3777080e+00
   1.0463020e+03   7.4122310e+00
   1.0467840e+03   7.9077680e+00
   1.0472660e+03   7.9876940e+00
   1.0477490e+03   7.6834030e+00
   1.0482310e+03   7.4046710e+00
   1.0487130e+03   7.4535680e+00
   1.0491950e+03   7.3523100e+00
   1.0496770e+03   6.5728150e+00
   1.0501590e+03   5.4720690e+00
   1.0506410e+03   4.5518260e+00
   1.0511230e+03   4.0243150e+00
   1.0516060e+03   3.1017760e+00
   1.0520880e+03   1.6105580e+00
   1.0525700e+03   3.4072100e-01
   1.0530520e+03   3.9645400e-01
   1.0535340e+03   8.3792100e-01
   1.0540160e+03   3.5884900e-01
   1.0544980e+03   2.8912120e+00
   1.0549800e+03   5.1485520e+00
   1.0554630e+03   6.0155180e+00
   1.0559450e+03   7.1857600e+00
   1.0564270e+03   9.1853260e+00
   1.0569090e+03   1.1521170e+01
   1.0573910e+03   1.3195530e+01
   1.0578730e+03   1.4352170e+01
   1.0583550e+03   1.6254330e+01
   1.0588370e+03   1.9140820e+01
   1.0593190e+03   2.2264880e+01
   1.0598020e+03   2.5182210e+01
   1.0602840e+03   2.7916060e+01
   1.0607660e+03   3.0335490e+01
   1.0612480e+03   3.2484150e+01
   1.0617300e+03   3.4948590e+01
   1.0622120e+03   3.7721210e+01
   1.0626940e+03   4.0948650e+01
   1.0631760e+03   4.4944790e+01
   1.0636580e+03   4.8910620e+01
   1.0641410e+03   5.1485180e+01
   1.0646230e+03   5.3312010e+01
   1.0651050e+03   5.5539720e+01
   1.0655870e+03   5.8880130e+01
   1.0660690e+03   6.1527480e+01
   1.0665510e+03   6.2601380e+01
   1.0670330e+03   6.4078920e+01
   1.0675150e+03   6.7885860e+01
   1.0679980e+03   7.3399120e+01
   1.0684800e+03   7.7114840e+01
   1.0689620e+03   7.9241110e+01
   1.0694440e+03   8.0851030e+01
   1.0699260e+03   8.1720140e+01
   1.0704080e+03   8.3083830e+01
   1.0708900e+03   8.5675280e+01
   1.0713720e+03   8.9033920e+01
   1.0718540e+03   9.2539990e+01
   1.0723370e+03   9.6186220e+01
   1.0728190e+03   9.9847600e+01
   1.0733010e+03   1.0351390e+02
   1.0737830e+03   1.0689450e+02
   1.0742650e+03   1.0882770e+02
   1.0747470e+03   1.1092560e+02
   1.0752290e+03   1.1506300e+02
   1.0757110e+03   1.2120140e+02
   1.0761930e+03   1.2704490e+02
   1.0766760e+03   1.3198970e+02
   1.0771580e+03   1.3757030e+02
   1.0776400e+03   1.4419630e+02
   1.0781220e+03   1.5155320e+02
   1.0786040e+03   1.5868830e+02
   1.0790860e+03   1.6622610e+02
   1.0795680e+03   1.7559080e+02
   1.0800510e+03   1.8748890e+02
   1.0805330e+03   1.9991230e+02
   1.0810150e+03   2.1169740e+02
   1.0814970e+03   2.2437580e+02
   1.0819790e+03   2.3844070e+02
   1.0824610e+03   2.5389640e+02
   1.0829430e+03   2.7141380e+02
   1.0834250e+03   2.9113930e+02
   1.0839070e+03   3.1304620e+02
   1.0843900e+03   3.3737450e+02
   1.0848720e+03   3.6358910e+02
   1.0853540e+03   3.9118060e+02
   1.0858360e+03   4.2049710e+02
   1.0863180e+03   4.5254060e+02
   1.0868000e+03   4.8716100e+02
   1.0872820e+03   5.2401930e+02
   1.0877640e+03   5.6295480e+02
   1.0882460e+03   6.0535520e+02
   1.0887290e+03   6.5382100e+02
   1.0892110e+03   7.0521010e+02
   1.0896930e+03   7.5602330e+02
   1.0901750e+03   8.0698880e+02
   1.0906570e+03   8.6150140e+02
   1.0911390e+03   9.2220640e+02
   1.0916210e+03   9.8245490e+02
   1.0921030e+03   1.0408490e+03
   1.0925860e+03   1.0996410e+03
   1.0930680e+03   1.1622380e+03
   1.0935500e+03   1.2272960e+03
   1.0940320e+03   1.2933830e+03
   1.0945140e+03   1.3602930e+03
   1.0949960e+03   1.4275020e+03
   1.0954780e+03   1.4948470e+03
   1.0959600e+03   1.5614750e+03
   1.0964430e+03   1.6280940e+03
   1.0969250e+03   1.6928700e+03
   1.0974070e+03   1.7543280e+03
   1.0978890e+03   1.8118170e+03
   1.0983710e+03   1.8588500e+03
   1.0988530e+03   1.8943910e+03
   1.0993350e+03   1.9179330e+03
   1.0998170e+03   1.9313160e+03
   1.1002990e+03   1.9306000e+03
   1.1007810e+03   1.9126240e+03
   1.1012640e+03   1.8779750e+03
   1.1017460e+03   1.8255960e+03
   1.1022280e+03   1.7548380e+03
   1.1027100e+03   1.6727380e+03
   1.1031920e+03   1.5808180e+03
   1.1036740e+03   1.4829390e+03
   1.1041560e+03   1.3810390e+03
   1.1046380e+03   1.2786100e+03
   1.1051210e+03   1.1800360e+03
   1.1056030e+03   1.0857870e+03
   1.1060850e+03   9.9831200e+02
   1.1065670e+03   9.1757320e+02
   1.1070490e+03   8.4313090e+02
   1.1075310e+03   7.7334470e+02
   1.1080130e+03   7.0953740e+02
   1.1084950e+03   6.5152120e+02
   1.1089780e+03   5.9940240e+02
   1.1094600e+03   5.5285600e+02
   1.1099420e+03   5.1252830e+02
   1.1104240e+03   4.7661790e+02
   1.1109060e+03   4.4477110e+02
   1.1113880e+03   4.1603790e+02
   1.1118700e+03   3.8903960e+02
   1.1123520e+03   3.6393810e+02
   1.1128340e+03   3.4222800e+02
   1.1133170e+03   3.2376700e+02
   1.1137990e+03   3.0593730e+02
   1.1142810e+03   2.8598410e+02
   1.1147630e+03   2.6755800e+02
   1.1152450e+03   2.5312420e+02
   1.1157270e+03   2.4147680e+02
   1.1162090e+03   2.3001250e+02
   1.1166910e+03   2.1866800e+02
   1.1171730e+03   2.0807100e+02
   1.1176560e+03   1.9827070e+02
   1.1181380e+03   1.8969150e+02
   1.1186200e+03   1.8368760e+02
   1.1191020e+03   1.7832120e+02
   1.1195840e+03   1.7180220e+02
   1.1200660e+03   1.6409620e+02
   1.1205480e+03   1.5666780e+02
   1.1210300e+03   1.4936950e+02
   1.1215130e+03   1.4351770e+02
   1.1219950e+03   1.4014580e+02
   1.1224770e+03   1.3731720e+02
   1.1229590e+03   1.3183270e+02
   1.1234410e+03   1.2559870e+02
   1.1239230e+03   1.2147480e+02
   1.1244050e+03   1.2115750e+02
   1.1248870e+03   1.1937490e+02
   1.1253700e+03   1.1550190e+02
   1.1258520e+03   1.1171210e+02
   1.1263340e+03   1.0930080e+02
   1.1268160e+03   1.0781080e+02
   1.1272980e+03   1.0640320e+02
   1.1277800e+03   1.0509930e+02
   1.1282620e+03   1.0396430e+02
   1.1287440e+03   1.0295960e+02
   1.1292260e+03   1.0224720e+02
   1.1297090e+03   1.0190500e+02
   1.1301910e+03   1.0171780e+02
   1.1306730e+03   1.0138030e+02
   1.1311550e+03   1.0103850e+02
   1.1316370e+03   1.0115990e+02
   1.1321190e+03   1.0178020e+02
   1.1326010e+03   1.0303520e+02
   1.1330830e+03   1.0470480e+02
   1.1335660e+03   1.0744960e+02
   1.1340480e+03   1.1191740e+02
   1.1345300e+03   1.1713140e+02
   1.1350120e+03   1.2153380e+02
   1.1354940e+03   1.2528920e+02
   1.1359760e+03   1.3065220e+02
   1.1364580e+03   1.3783530e+02
   1.1369400e+03   1.4588640e+02
   1.1374220e+03   1.5475030e+02
   1.1379050e+03   1.6367780e+02
   1.1383870e+03   1.7158190e+02
   1.1388690e+03   1.7942390e+02
   1.1393510e+03   1.8958070e+02
   1.1398330e+03   2.0222570e+02
   1.1403150e+03   2.1602060e+02
   1.1407970e+03   2.3090120e+02
   1.1412790e+03   2.4573360e+02
   1.1417610e+03   2.5895270e+02
   1.1422440e+03   2.7230300e+02
   1.1427260e+03   2.8796060e+02
   1.1432080e+03   3.0567250e+02
   1.1436900e+03   3.2174550e+02
   1.1441720e+03   3.3551350e+02
   1.1446540e+03   3.5107140e+02
   1.1451360e+03   3.6973630e+02
   1.1456180e+03   3.8955230e+02
   1.1461010e+03   4.0835690e+02
   1.1465830e+03   4.2621820e+02
   1.1470650e+03   4.4345510e+02
   1.1475470e+03   4.5999820e+02
   1.1480290e+03   4.7618020e+02
   1.1485110e+03   4.9227830e+02
   1.1489930e+03   5.0701860e+02
   1.1494750e+03   5.2020250e+02
   1.1499580e+03   5.3126650e+02
   1.1504400e+03   5.3922450e+02
   1.1509220e+03   5.4441040e+02
   1.1514040e+03   5.4760120e+02
   1.1518860e+03   5.4930550e+02
   1.1523680e+03   5.4799710e+02
   1.1528500e+03   5.4392380e+02
   1.1533320e+03   5.3672160e+02
   1.1538140e+03   5.2551260e+02
   1.1542970e+03   5.1123010e+02
   1.1547790e+03   4.9638800e+02
   1.1552610e+03   4.8061190e+02
   1.1557430e+03   4.6340500e+02
   1.1562250e+03   4.4299840e+02
   1.1567070e+03   4.2325360e+02
   1.1571890e+03   4.0492150e+02
   1.1576710e+03   3.8671210e+02
   1.1581530e+03   3.6747900e+02
   1.1586360e+03   3.4754170e+02
   1.1591180e+03   3.2767360e+02
   1.1596000e+03   3.0809680e+02
   1.1600820e+03   2.8932360e+02
   1.1605640e+03   2.7103120e+02
   1.1610460e+03   2.5447990e+02
   1.1615280e+03   2.4026990e+02
   1.1620100e+03   2.2751300e+02
   1.1624930e+03   2.1542180e+02
   1.1629750e+03   2.0396700e+02
   1.1634570e+03   1.9249180e+02
   1.1639390e+03   1.8097830e+02
   1.1644210e+03   1.7023440e+02
   1.1649030e+03   1.6135340e+02
   1.1653850e+03   1.5260670e+02
   1.1658670e+03   1.4294640e+02
   1.1663490e+03   1.3318400e+02
   1.1668320e+03   1.2490330e+02
   1.1673140e+03   1.1788170e+02
   1.1677960e+03   1.1181050e+02
   1.1682780e+03   1.0666610e+02
   1.1687600e+03   1.0181850e+02
   1.1692420e+03   9.6921110e+01
   1.1697240e+03   9.2158770e+01
   1.1702060e+03   8.7584900e+01
   1.1706880e+03   8.3043200e+01
   1.1711710e+03   7.8144090e+01
   1.1716530e+03   7.2912320e+01
   1.1721350e+03   6.8593200e+01
   1.1726170e+03   6.5615190e+01
   1.1730990e+03   6.2572430e+01
   1.1735810e+03   5.7756750e+01
   1.1740630e+03   5.2726170e+01
   1.1745450e+03   4.8730790e+01
   1.1750280e+03   4.5672580e+01
   1.1755100e+03   4.3298250e+01
   1.1759920e+03   4.1586110e+01
   1.1764740e+03   3.9757940e+01
   1.1769560e+03   3.7659330e+01
   1.1774380e+03   3.5333310e+01
   1.1779200e+03   3.2035000e+01
   1.1784020e+03   2.8959340e+01
   1.1788850e+03   2.7605420e+01
   1.1793670e+03   2.7863330e+01
   1.1798490e+03   2.6763170e+01
   1.1803310e+03   2.4272140e+01
   1.1808130e+03   2.1943180e+01
   1.1812950e+03   2.0060650e+01
   1.1817770e+03   1.8520040e+01
   1.1822590e+03   1.7855670e+01
   1.1827410e+03   1.7411280e+01
   1.1832240e+03   1.6193420e+01
   1.1837060e+03   1.3979840e+01
   1.1841880e+03   1.2576450e+01
   1.1846700e+03   1.2036660e+01
   1.1851520e+03   1.1776100e+01
   1.1856340e+03   1.1735820e+01
   1.1861160e+03   1.1510310e+01
   1.1865980e+03   1.0379290e+01
   1.1870810e+03   8.8096080e+00
   1.1875630e+03   7.5397420e+00
   1.1880450e+03   6.7654420e+00
   1.1885270e+03   5.9619750e+00
   1.1890090e+03   5.1059880e+00
   1.1894910e+03   4.3526690e+00
   1.1899730e+03   3.8365330e+00
   1.1904550e+03   3.4141690e+00
   1.1909380e+03   2.8597180e+00
   1.1914200e+03   2.3342740e+00
   1.1919020e+03   2.0805050e+00
   1.1923840e+03   2.3622670e+00
   1.1928660e+03   2.1859510e+00
   1.1933480e+03   1.5697250e+00
   1.1938300e+03   5.1512100e-01
   1.1943120e+03   1.6218720e+00
   1.1947940e+03   3.6876750e+00
   1.1952760e+03   4.0177380e+00
   1.1957590e+03   3.1902240e+00
   1.1962410e+03   2.2863460e+00
   1.1967230e+03   8.9152500e-01
   1.1972050e+03   1.0056920e+00
   1.1976870e+03   3.0459590e+00
   1.1981690e+03   5.0086440e+00
   1.1986510e+03   4.9960940e+00
   1.1991330e+03   4.2120820e+00
   1.1996160e+03   4.3112110e+00
   1.2000980e+03   4.9171600e+00
   1.2005800e+03   5.0409850e+00
   1.2010620e+03   4.3071900e+00
   1.2015440e+03   3.5857850e+00
   1.2020260e+03   2.8335490e+00
   1.2025080e+03   2.4289700e+00
   1.2029900e+03   3.2237850e+00
   1.2034730e+03   4.1906360e+00
   1.2039550e+03   3.5878070e+00
   1.2044370e+03   1.9793240e+00
   1.2049190e+03   1.4071350e+00
   1.2054010e+03   2.8432620e+00
   1.2058830e+03   3.5120540e+00
   1.2063650e+03   3.0432360e+00
   1.2068470e+03   2.4838490e+00
   1.2073290e+03   3.1509400e+00
   1.2078120e+03   4.0998760e+00
   1.2082940e+03   4.0813830e+00
   1.2087760e+03   3.2446750e+00
   1.2092580e+03   2.3579100e+00
   1.2097400e+03   1.1989060e+00
   1.2102220e+03   9.8180400e-01
   1.2107040e+03   2.1201250e+00
   1.2111860e+03   3.1387480e+00
   1.2116680e+03   2.0514140e+00
   1.2121510e+03   3.1572000e-01
   1.2126330e+03   2.1757500e-01
   1.2131150e+03   3.5711700e-01
   1.2135970e+03   9.8011000e-01
   1.2140790e+03   1.7856220e+00
   1.2145610e+03   1.7774350e+00
   1.2150430e+03   6.3835900e-01
   1.2155250e+03   5.5911300e-01
   1.2160080e+03   2.7742800e-01
   1.2164900e+03   3.3496900e-01
   1.2169720e+03   3.8575000e-01
   1.2174540e+03   2.2508160e+00
   1.2179360e+03   3.1566010e+00
   1.2184180e+03   2.6633000e+00
   1.2189000e+03   2.3563770e+00
   1.2193820e+03   2.5014340e+00
   1.2198650e+03   2.8378910e+00
   1.2203470e+03   3.1293790e+00
   1.2208290e+03   3.4110640e+00
   1.2213110e+03   3.7607650e+00
   1.2217930e+03   4.1593930e+00
   1.2222750e+03   4.5147170e+00
   1.2227570e+03   5.0593570e+00
   1.2232390e+03   4.3927540e+00
   1.2237210e+03   1.9495010e+00
   1.2242030e+03   3.5538500e-01
   1.2246860e+03   1.0798600e-01
   1.2251680e+03   1.1263660e+00
   1.2256500e+03   1.9322890e+00
   1.2261320e+03   2.1445470e+00
   1.2266140e+03   1.7307470e+00
   1.2270960e+03   4.5056200e-01
   1.2275780e+03   3.0739000e-02
   1.2280610e+03   9.8372300e-01
   1.2285430e+03   2.1738050e+00
   1.2290250e+03   2.6980900e+00
   1.2295070e+03   2.6436690e+00
   1.2299890e+03   1.7211190e+00
   1.2304710e+03   1.2373000e-01
   1.2309530e+03   3.6081700e-01
   1.2314350e+03   4.1585900e-01
   1.2319170e+03   9.2123400e-01
   1.2324000e+03   7.5810600e-01
   1.2328820e+03   4.7193100e-01
   1.2333640e+03   7.6060500e-01
   1.2338460e+03   1.0213780e+00
   1.2343280e+03   5.0553500e-01
   1.2348100e+03   6.0724300e-01
   1.2352920e+03   1.1302260e+00
   1.2357740e+03   1.0444830e+00
   1.2362560e+03   4.5011100e-01
   1.2367390e+03   7.9985400e-01
   1.2372210e+03   1.6729200e+00
   1.2377030e+03   3.2228900e-01
   1.2381850e+03   9.2933700e-01
   1.2386670e+03   5.4530700e-01
   1.2391490e+03   3.8312610e+00
   1.2396310e+03   4.6116070e+00
   1.2401130e+03   2.9789090e+00
   1.2405960e+03   1.5171320e+00
   1.2410780e+03   8.5071200e-01
   1.2415600e+03   5.3019700e-01
   1.2420420e+03   3.3851200e-01
   1.2425240e+03   2.8620500e-01
   1.2430060e+03   2.6735300e-01
   1.2434880e+03   4.0081800e-01
   1.2439700e+03   1.4938050e+00
   1.2444530e+03   3.3726770e+00
   1.2449350e+03   4.7799150e+00
   1.2454170e+03   4.9912870e+00
   1.2458990e+03   5.0176770e+00
   1.2463810e+03   5.3915980e+00
   1.2468630e+03   5.8619730e+00
   1.2473450e+03   6.3865010e+00
   1.2478270e+03   6.8409880e+00
   1.2483090e+03   6.4787830e+00
   1.2487920e+03   5.4783940e+00
   1.2492740e+03   5.5434070e+00
   1.2497560e+03   7.2299190e+00
   1.2502380e+03   8.5436520e+00
   1.2507200e+03   8.6618460e+00
   1.2512020e+03   8.5262180e+00
   1.2516840e+03   8.4107130e+00
   1.2521660e+03   8.5281680e+00
   1.2526480e+03   9.1978380e+00
   1.2531310e+03   1.0003310e+01
   1.2536130e+03   1.0180810e+01
   1.2540950e+03   8.9284860e+00
   1.2545770e+03   8.6283680e+00
   1.2550590e+03   1.0610430e+01
   1.2555410e+03   1.2487940e+01
   1.2560230e+03   1.3760750e+01
   1.2565050e+03   1.4260650e+01
   1.2569880e+03   1.3286480e+01
   1.2574700e+03   1.2000850e+01
   1.2579520e+03   1.1816850e+01
   1.2584340e+03   1.3157150e+01
   1.2589160e+03   1.4170310e+01
   1.2593980e+03   1.4199040e+01
   1.2598800e+03   1.3977540e+01
   1.2603620e+03   1.3495010e+01
   1.2608440e+03   1.3205570e+01
   1.2613270e+03   1.4237910e+01
   1.2618090e+03   1.5810660e+01
   1.2622910e+03   1.6696890e+01
   1.2627730e+03   1.6638110e+01
   1.2632550e+03   1.6506310e+01
   1.2637370e+03   1.6570490e+01
   1.2642190e+03   1.6583500e+01
   1.2647010e+03   1.5986670e+01
   1.2651830e+03   1.5300140e+01
   1.2656660e+03   1.5827890e+01
   1.2661480e+03   1.6473670e+01
   1.2666300e+03   1.5631430e+01
   1.2671120e+03   1.3683410e+01
   1.2675940e+03   1.3219770e+01
   1.2680760e+03   1.4544640e+01
   1.2685580e+03   1.5219460e+01
   1.2690400e+03   1.4498860e+01
   1.2695230e+03   1.3644810e+01
   1.2700050e+03   1.2846770e+01
   1.2704870e+03   1.2112880e+01
   1.2709690e+03   1.3322180e+01
   1.2714510e+03   1.5073850e+01
   1.2719330e+03   1.4547780e+01
   1.2724150e+03   1.1973630e+01
   1.2728970e+03   1.0336390e+01
   1.2733800e+03   1.0910840e+01
   1.2738620e+03   1.1895770e+01
   1.2743440e+03   1.1913720e+01
   1.2748260e+03   1.1409080e+01
   1.2753080e+03   1.0362400e+01
   1.2757900e+03   8.9260710e+00
   1.2762720e+03   8.5845260e+00
   1.2767540e+03   9.0170820e+00
   1.2772360e+03   9.2075500e+00
   1.2777190e+03   9.0209770e+00
   1.2782010e+03   8.6317600e+00
   1.2786830e+03   7.7717210e+00
   1.2791650e+03   7.4540940e+00
   1.2796470e+03   8.1400640e+00
   1.2801290e+03   9.0883830e+00
   1.2806110e+03   8.7435150e+00
   1.2810930e+03   7.5348240e+00
   1.2815760e+03   6.7875630e+00
   1.2820580e+03   6.7941550e+00
   1.2825400e+03   6.4614220e+00
   1.2830220e+03   4.6554720e+00
   1.2835040e+03   3.9582480e+00
   1.2839860e+03   5.4036600e+00
   1.2844680e+03   7.4768140e+00
   1.2849500e+03   7.7514530e+00
   1.2854320e+03   7.0619010e+00
   1.2859150e+03   6.4057350e+00
   1.2863970e+03   5.8747370e+00
   1.2868790e+03   5.4281390e+00
   1.2873610e+03   5.0498160e+00
   1.2878430e+03   4.7184680e+00
   1.2883250e+03   4.3441660e+00
   1.2888070e+03   4.2604370e+00
   1.2892890e+03   5.4110570e+00
   1.2897710e+03   6.6564330e+00
   1.2902540e+03   6.6761630e+00
   1.2907360e+03   5.4899100e+00
   1.2912180e+03   4.2219540e+00
   1.2917000e+03   2.7644540e+00
   1.2921820e+03   2.1632080e+00
   1.2926640e+03   2.6496050e+00
   1.2931460e+03   3.0541840e+00
   1.2936280e+03   2.2199210e+00
   1.2941110e+03   1.3212280e+00
   1.2945930e+03   1.4141310e+00
   1.2950750e+03   2.0609630e+00
   1.2955570e+03   2.4713480e+00
   1.2960390e+03   2.6385040e+00
   1.2965210e+03   2.3728520e+00
   1.2970030e+03   1.6442260e+00
   1.2974850e+03   9.6077300e-01
   1.2979680e+03   6.9611700e-01
   1.2984500e+03   5.0271200e-01
   1.2989320e+03   5.7361200e-01
   1.2994140e+03   6.6373100e-01
   1.2998960e+03   3.9895600e-01
   1.3003780e+03   7.3353000e-02
   1.3008600e+03   1.5193200e-01
   1.3013420e+03   4.5839300e-01
   1.3018240e+03   0.0000000e+00
   1.5000000e+03   0.0000000e+00
