   1.0000000e+02   0.0000000e+00
   1.6380740e+02   0.0000000e+00
   1.6428960e+02   2.9564001e-02
   1.6477170e+02   1.1612000e-02
   1.6525380e+02   5.3590001e-03
   1.6573590e+02   1.1215300e-01
   1.6621800e+02   2.7043500e-01
   1.6670010e+02   3.2419500e-01
   1.6718230e+02   2.3961200e-01
   1.6766440e+02   1.4522800e-01
   1.6814650e+02   1.4533300e-01
   1.6862860e+02   2.3499100e-01
   1.6911070e+02   3.1726000e-01
   1.6959280e+02   4.3074000e-01
   1.7007500e+02   7.0039100e-01
   1.7055710e+02   8.5567800e-01
   1.7103920e+02   9.1931600e-01
   1.7152130e+02   9.1646500e-01
   1.7200340e+02   7.5067300e-01
   1.7248550e+02   5.2212000e-01
   1.7296770e+02   2.7259900e-01
   1.7344980e+02   3.9092500e-01
   1.7393190e+02   6.6008700e-01
   1.7441400e+02   7.5958500e-01
   1.7489610e+02   5.2679900e-01
   1.7537820e+02   2.0032100e-01
   1.7586040e+02   1.3357000e-02
   1.7634250e+02   6.6900002e-03
   1.7682460e+02   7.5873002e-02
   1.7730670e+02   4.1331300e-01
   1.7778880e+02   8.4599100e-01
   1.7827090e+02   1.0942540e+00
   1.7875310e+02   9.9593900e-01
   1.7923520e+02   7.1411700e-01
   1.7971730e+02   4.2347600e-01
   1.8019940e+02   1.2683700e-01
   1.8068150e+02   5.5468000e-02
   1.8116360e+02   9.7631000e-02
   1.8164580e+02   4.7221100e-01
   1.8212790e+02   7.1473400e-01
   1.8261000e+02   6.1392500e-01
   1.8309210e+02   3.5271800e-01
   1.8357420e+02   3.6275400e-01
   1.8405630e+02   6.5722400e-01
   1.8453850e+02   9.3756200e-01
   1.8502060e+02   8.3615900e-01
   1.8550270e+02   4.2927100e-01
   1.8598480e+02   8.8179998e-02
   1.8646690e+02   2.1438001e-02
   1.8694900e+02   2.4971001e-02
   1.8743120e+02   4.5119999e-03
   1.8791330e+02   1.1871300e-01
   1.8839540e+02   1.0868600e-01
   1.8887750e+02   1.5852001e-02
   1.8935960e+02   4.3101002e-02
   1.8984170e+02   2.0022999e-02
   1.9032390e+02   1.5895800e-01
   1.9080600e+02   3.9494000e-02
   1.9128810e+02   1.7764700e-01
   1.9177020e+02   1.4053100e-01
   1.9225230e+02   7.9405002e-02
   1.9273440e+02   2.4327000e-01
   1.9321660e+02   6.3059700e-01
   1.9369870e+02   9.1854100e-01
   1.9418080e+02   9.1708500e-01
   1.9466290e+02   6.5859900e-01
   1.9514500e+02   5.2280600e-01
   1.9562710e+02   5.1193600e-01
   1.9610930e+02   6.1606700e-01
   1.9659140e+02   8.7756300e-01
   1.9707350e+02   1.3145220e+00
   1.9755560e+02   1.6856350e+00
   1.9803770e+02   1.8087640e+00
   1.9851980e+02   1.6818720e+00
   1.9900200e+02   1.8460950e+00
   1.9948410e+02   2.4019110e+00
   1.9996620e+02   3.0717890e+00
   2.0044830e+02   3.3683270e+00
   2.0093040e+02   3.2288910e+00
   2.0141250e+02   3.0969480e+00
   2.0189470e+02   3.1913680e+00
   2.0237680e+02   3.5346050e+00
   2.0285890e+02   3.8184420e+00
   2.0334100e+02   4.0361330e+00
   2.0382310e+02   4.2022880e+00
   2.0430520e+02   4.3099590e+00
   2.0478740e+02   4.3279710e+00
   2.0526950e+02   4.4203570e+00
   2.0575160e+02   4.7137000e+00
   2.0623370e+02   5.2627720e+00
   2.0671580e+02   5.6172460e+00
   2.0719790e+02   5.6975800e+00
   2.0768010e+02   5.6563630e+00
   2.0816220e+02   5.8362540e+00
   2.0864430e+02   6.3180500e+00
   2.0912640e+02   6.7742240e+00
   2.0960850e+02   6.9644350e+00
   2.1009060e+02   6.7342230e+00
   2.1057280e+02   6.9915560e+00
   2.1105490e+02   7.9101440e+00
   2.1153700e+02   9.2050940e+00
   2.1201910e+02   1.0191550e+01
   2.1250120e+02   1.0771420e+01
   2.1298330e+02   1.1307320e+01
   2.1346550e+02   1.1991950e+01
   2.1394760e+02   1.2918300e+01
   2.1442970e+02   1.3670440e+01
   2.1491180e+02   1.4247130e+01
   2.1539390e+02   1.4641250e+01
   2.1587600e+02   1.4877740e+01
   2.1635820e+02   1.5033490e+01
   2.1684030e+02   1.4868170e+01
   2.1732240e+02   1.4181610e+01
   2.1780450e+02   1.2721780e+01
   2.1828660e+02   1.1507070e+01
   2.1876870e+02   1.0641900e+01
   2.1925080e+02   1.0018000e+01
   2.1973300e+02   9.4170480e+00
   2.2021510e+02   8.8544000e+00
   2.2069720e+02   8.3124260e+00
   2.2117930e+02   7.7609920e+00
   2.2166140e+02   7.1643330e+00
   2.2214350e+02   6.6643430e+00
   2.2262570e+02   6.2071740e+00
   2.2310780e+02   5.8611750e+00
   2.2358990e+02   5.8627490e+00
   2.2407200e+02   6.4530290e+00
   2.2455410e+02   6.9915850e+00
   2.2503620e+02   7.1566940e+00
   2.2551840e+02   6.7639380e+00
   2.2600050e+02   6.4776720e+00
   2.2648260e+02   6.2581890e+00
   2.2696470e+02   6.1476230e+00
   2.2744680e+02   6.3109620e+00
   2.2792890e+02   6.8568000e+00
   2.2841110e+02   7.5253590e+00
   2.2889320e+02   8.2235310e+00
   2.2937530e+02   8.9411020e+00
   2.2985740e+02   9.7200710e+00
   2.3033950e+02   1.0564730e+01
   2.3082160e+02   1.1445820e+01
   2.3130380e+02   1.2305550e+01
   2.3178590e+02   1.3055790e+01
   2.3226800e+02   1.3904460e+01
   2.3275010e+02   1.4975590e+01
   2.3323220e+02   1.6440980e+01
   2.3371430e+02   1.7717040e+01
   2.3419650e+02   1.8720200e+01
   2.3467860e+02   1.9566080e+01
   2.3516070e+02   2.0586740e+01
   2.3564280e+02   2.1941300e+01
   2.3612490e+02   2.3226650e+01
   2.3660700e+02   2.4229160e+01
   2.3708920e+02   2.4707490e+01
   2.3757130e+02   2.5444210e+01
   2.3805340e+02   2.6541670e+01
   2.3853550e+02   2.7860350e+01
   2.3901760e+02   2.9057930e+01
   2.3949970e+02   2.9999980e+01
   2.3998190e+02   3.1020390e+01
   2.4046400e+02   3.2249610e+01
   2.4094610e+02   3.3725050e+01
   2.4142820e+02   3.5331760e+01
   2.4191030e+02   3.7044230e+01
   2.4239240e+02   3.8895740e+01
   2.4287460e+02   4.0972060e+01
   2.4335670e+02   4.3317100e+01
   2.4383880e+02   4.5818610e+01
   2.4432090e+02   4.8404120e+01
   2.4480300e+02   5.0904200e+01
   2.4528510e+02   5.3885390e+01
   2.4576730e+02   5.7409790e+01
   2.4624940e+02   6.1381310e+01
   2.4673150e+02   6.5655520e+01
   2.4721360e+02   7.0512670e+01
   2.4769570e+02   7.5237120e+01
   2.4817780e+02   7.9726070e+01
   2.4866000e+02   8.4345690e+01
   2.4914210e+02   8.7549200e+01
   2.4962420e+02   8.9239830e+01
   2.5010630e+02   8.9598980e+01
   2.5058840e+02   8.9042700e+01
   2.5107050e+02   8.7929950e+01
   2.5155270e+02   8.5260380e+01
   2.5203480e+02   8.0475070e+01
   2.5251690e+02   7.2925980e+01
   2.5299900e+02   6.5384700e+01
   2.5348110e+02   5.7554020e+01
   2.5396320e+02   4.9838870e+01
   2.5444540e+02   4.3062680e+01
   2.5492750e+02   3.7307530e+01
   2.5540960e+02   3.2240640e+01
   2.5589170e+02   2.7747230e+01
   2.5637380e+02   2.3849610e+01
   2.5685600e+02   2.0588220e+01
   2.5733810e+02   1.8074780e+01
   2.5782020e+02   1.6077900e+01
   2.5830230e+02   1.4207490e+01
   2.5878440e+02   1.2456400e+01
   2.5926650e+02   1.0887130e+01
   2.5974870e+02   9.5111760e+00
   2.6023080e+02   8.3330110e+00
   2.6071290e+02   7.4030580e+00
   2.6119500e+02   6.7626190e+00
   2.6167710e+02   6.2819750e+00
   2.6215920e+02   5.8126190e+00
   2.6264140e+02   5.3759150e+00
   2.6312350e+02   4.9281440e+00
   2.6360560e+02   4.4437660e+00
   2.6408770e+02   3.9220320e+00
   2.6456980e+02   3.5068340e+00
   2.6505190e+02   3.2299810e+00
   2.6553410e+02   2.9974310e+00
   2.6601620e+02   2.6567070e+00
   2.6649830e+02   2.1449440e+00
   2.6698040e+02   1.7469070e+00
   2.6746250e+02   1.5442460e+00
   2.6794460e+02   1.5297410e+00
   2.6842680e+02   1.3964300e+00
   2.6890890e+02   1.0944150e+00
   2.6939100e+02   7.8789500e-01
   2.6987310e+02   6.8920300e-01
   2.7035520e+02   8.6734500e-01
   2.7083730e+02   9.7140000e-01
   2.7131950e+02   9.1307800e-01
   2.7180160e+02   7.0515200e-01
   2.7228370e+02   4.6794700e-01
   2.7276580e+02   1.7072500e-01
   2.7324790e+02   9.2531003e-02
   2.7373000e+02   1.4584100e-01
   2.7421220e+02   1.7150800e-01
   2.7469430e+02   1.6098000e-01
   2.7517640e+02   1.2852800e-01
   2.7565850e+02   1.0009000e-02
   2.7614060e+02   1.1360000e-01
   2.7662270e+02   1.8359000e-01
   2.7710490e+02   2.1317500e-01
   2.7758700e+02   1.8090100e-01
   2.7806910e+02   7.9586998e-02
   2.7855120e+02   1.6060000e-03
   2.7903330e+02   5.0512001e-02
   2.7951540e+02   6.9021001e-02
   2.7999760e+02   4.3588001e-02
   2.8047970e+02   4.0295001e-02
   2.8096180e+02   9.3479998e-02
   2.8144390e+02   2.2489999e-03
   2.8192600e+02   1.3652600e-01
   2.8240810e+02   7.2968997e-02
   2.8289030e+02   9.2275999e-02
   2.8337240e+02   2.6415500e-01
   2.8385450e+02   3.7836700e-01
   2.8433660e+02   2.3508700e-01
   2.8481870e+02   1.1658000e-02
   2.8530080e+02   1.7416400e-01
   2.8578300e+02   6.8172000e-02
   2.8626510e+02   1.6611600e-01
   2.8674720e+02   6.1799999e-02
   2.8722930e+02   1.0476300e-01
   2.8771140e+02   7.2842002e-02
   2.8819350e+02   1.5631000e-01
   2.8867570e+02   4.4726600e-01
   2.8915780e+02   7.5364000e-01
   2.8963990e+02   1.0665010e+00
   2.9012200e+02   1.3167360e+00
   2.9060410e+02   1.4929920e+00
   2.9108620e+02   1.6363490e+00
   2.9156840e+02   1.8215300e+00
   2.9205050e+02   2.0405090e+00
   2.9253260e+02   2.2100510e+00
   2.9301470e+02   2.2473870e+00
   2.9349680e+02   2.2032810e+00
   2.9397890e+02   2.2250660e+00
   2.9446110e+02   2.3155420e+00
   2.9494320e+02   2.4758070e+00
   2.9542530e+02   2.7614180e+00
   2.9590740e+02   3.1389920e+00
   2.9638950e+02   3.4557210e+00
   2.9687160e+02   3.2872080e+00
   2.9735380e+02   3.7695450e+00
   2.9783590e+02   4.0764220e+00
   2.9831800e+02   4.2172960e+00
   2.9880010e+02   3.6945570e+00
   2.9928220e+02   4.0290760e+00
   2.9976430e+02   4.0202590e+00
   3.0024650e+02   3.9975090e+00
   3.0072860e+02   4.4530990e+00
   3.0121070e+02   4.0276240e+00
   3.0169280e+02   4.4759410e+00
   3.0217490e+02   4.5756710e+00
   3.0265700e+02   4.8351570e+00
   3.0313920e+02   4.7491990e+00
   3.0362130e+02   4.7701650e+00
   3.0410340e+02   4.7665960e+00
   3.0458550e+02   4.5435510e+00
   3.0506760e+02   4.2863330e+00
   3.0554970e+02   4.2529380e+00
   3.0603190e+02   4.4035390e+00
   3.0651400e+02   4.5302560e+00
   3.0699610e+02   4.5106260e+00
   3.0747820e+02   4.3843980e+00
   3.0796030e+02   4.1749720e+00
   3.0844240e+02   3.8210430e+00
   3.0892460e+02   3.5126300e+00
   3.0940670e+02   3.5339560e+00
   3.0988880e+02   3.7455050e+00
   3.1037090e+02   3.7478300e+00
   3.1085300e+02   3.0818920e+00
   3.1133510e+02   2.2462490e+00
   3.1181730e+02   1.6795180e+00
   3.1229940e+02   1.5026040e+00
   3.1278150e+02   1.4181750e+00
   3.1326360e+02   1.2816180e+00
   3.1374570e+02   1.1134110e+00
   3.1422780e+02   9.4900500e-01
   3.1471000e+02   7.5581900e-01
   3.1519210e+02   6.0799400e-01
   3.1567420e+02   6.0051000e-01
   3.1615630e+02   7.8292200e-01
   3.1663840e+02   8.5048100e-01
   3.1712050e+02   5.2303600e-01
   3.1760270e+02   4.5508001e-02
   3.1808480e+02   2.6337200e-01
   3.1856690e+02   2.4232400e-01
   3.1904900e+02   1.1015600e-01
   3.1953110e+02   1.0287300e-01
   3.2001320e+02   4.0147900e-01
   3.2049540e+02   5.3763700e-01
   3.2097750e+02   2.1857900e-01
   3.2145960e+02   1.8714200e-01
   3.2194170e+02   1.8576000e-01
   3.2242380e+02   1.0680300e-01
   3.2290590e+02   4.5061700e-01
   3.2338810e+02   4.0814300e-01
   3.2387020e+02   1.5924999e-02
   3.2435230e+02   2.5528400e-01
   3.2483440e+02   2.3609100e-01
   3.2531650e+02   1.4369900e-01
   3.2579860e+02   1.0649600e-01
   3.2628080e+02   2.6917100e-01
   3.2676290e+02   2.1722800e-01
   3.2724500e+02   1.3724200e-01
   3.2772710e+02   2.5578500e-01
   3.2820920e+02   4.8805900e-01
   3.2869130e+02   3.3371800e-01
   3.2917350e+02   2.1528700e-01
   3.2965560e+02   3.1746700e-01
   3.3013770e+02   8.5975900e-01
   3.3061980e+02   1.2024230e+00
   3.3110190e+02   1.2500440e+00
   3.3158400e+02   1.1168770e+00
   3.3206620e+02   1.0154060e+00
   3.3254830e+02   9.1463000e-01
   3.3303040e+02   8.9106800e-01
   3.3351250e+02   9.8638100e-01
   3.3399460e+02   1.2194960e+00
   3.3447670e+02   1.4437170e+00
   3.3495890e+02   1.6931810e+00
   3.3544100e+02   1.9043940e+00
   3.3592310e+02   1.9757450e+00
   3.3640520e+02   1.8385960e+00
   3.3688730e+02   1.7249970e+00
   3.3736940e+02   1.6816620e+00
   3.3785160e+02   1.7094210e+00
   3.3833370e+02   1.8378990e+00
   3.3881580e+02   2.1151620e+00
   3.3929790e+02   2.3895650e+00
   3.3978000e+02   2.5073730e+00
   3.4026210e+02   2.4500940e+00
   3.4074420e+02   2.3721380e+00
   3.4122630e+02   2.2756770e+00
   3.4170850e+02   2.1902460e+00
   3.4219060e+02   2.2426060e+00
   3.4267270e+02   2.4551190e+00
   3.4315480e+02   2.6767350e+00
   3.4363690e+02   2.8458680e+00
   3.4411900e+02   2.9487400e+00
   3.4460120e+02   2.9635410e+00
   3.4508330e+02   2.8446370e+00
   3.4556540e+02   2.7057980e+00
   3.4604750e+02   2.8109470e+00
   3.4652960e+02   3.1321180e+00
   3.4701170e+02   3.3246760e+00
   3.4749390e+02   3.0685370e+00
   3.4797600e+02   2.5272060e+00
   3.4845810e+02   2.2471180e+00
   3.4894020e+02   2.2848400e+00
   3.4942230e+02   2.4077110e+00
   3.4990440e+02   2.3501030e+00
   3.5038660e+02   2.1563140e+00
   3.5086870e+02   1.9791100e+00
   3.5135080e+02   1.9279110e+00
   3.5183290e+02   1.9085000e+00
   3.5231500e+02   1.7433270e+00
   3.5279710e+02   1.4363050e+00
   3.5327930e+02   1.1456720e+00
   3.5376140e+02   9.8393500e-01
   3.5424350e+02   9.1870600e-01
   3.5472560e+02   8.9475300e-01
   3.5520770e+02   8.8618600e-01
   3.5568980e+02   9.2506000e-01
   3.5617200e+02   1.0934000e+00
   3.5665410e+02   1.3543470e+00
   3.5713620e+02   1.5496700e+00
   3.5761830e+02   1.5165080e+00
   3.5810040e+02   1.4171880e+00
   3.5858260e+02   1.4025870e+00
   3.5906470e+02   1.5262720e+00
   3.5954680e+02   1.6707450e+00
   3.6002890e+02   1.8234360e+00
   3.6051100e+02   1.9495300e+00
   3.6099310e+02   1.9827480e+00
   3.6147530e+02   1.6968820e+00
   3.6195740e+02   1.4708520e+00
   3.6243950e+02   1.5447680e+00
   3.6292160e+02   1.9930020e+00
   3.6340370e+02   2.3961990e+00
   3.6388580e+02   2.6080670e+00
   3.6436800e+02   2.7211190e+00
   3.6485010e+02   2.8332650e+00
   3.6533220e+02   2.8445210e+00
   3.6581430e+02   2.9789750e+00
   3.6629640e+02   3.3576660e+00
   3.6677850e+02   3.9755940e+00
   3.6726070e+02   4.5004160e+00
   3.6774280e+02   4.8990920e+00
   3.6822490e+02   5.2019870e+00
   3.6870700e+02   5.4238780e+00
   3.6918910e+02   5.4030330e+00
   3.6967120e+02   5.5240710e+00
   3.7015340e+02   5.8292340e+00
   3.7063550e+02   6.2752490e+00
   3.7111760e+02   6.7434650e+00
   3.7159970e+02   7.3178040e+00
   3.7208180e+02   7.8043460e+00
   3.7256390e+02   8.1142130e+00
   3.7304610e+02   8.1877910e+00
   3.7352820e+02   8.2658950e+00
   3.7401030e+02   8.3049350e+00
   3.7449240e+02   8.3886070e+00
   3.7497450e+02   8.6834480e+00
   3.7545660e+02   9.2893750e+00
   3.7593880e+02   9.7811310e+00
   3.7642090e+02   1.0043850e+01
   3.7690300e+02   1.0114290e+01
   3.7738510e+02   1.0143610e+01
   3.7786720e+02   1.0105380e+01
   3.7834930e+02   1.0077720e+01
   3.7883150e+02   1.0163330e+01
   3.7931360e+02   1.0355830e+01
   3.7979570e+02   1.0482560e+01
   3.8027780e+02   1.0515410e+01
   3.8075990e+02   1.0461620e+01
   3.8124200e+02   1.0338920e+01
   3.8172420e+02   1.0155120e+01
   3.8220630e+02   9.9797820e+00
   3.8268840e+02   9.8847140e+00
   3.8317050e+02   9.8554600e+00
   3.8365260e+02   9.8502930e+00
   3.8413470e+02   9.8609920e+00
   3.8461690e+02   9.8724790e+00
   3.8509900e+02   9.8797010e+00
   3.8558110e+02   9.8765230e+00
   3.8606320e+02   9.7988350e+00
   3.8654530e+02   9.5438160e+00
   3.8702740e+02   9.2388190e+00
   3.8750960e+02   9.0814550e+00
   3.8799170e+02   9.0674320e+00
   3.8847380e+02   9.0502160e+00
   3.8895590e+02   8.8662380e+00
   3.8943800e+02   8.6418060e+00
   3.8992010e+02   8.5383010e+00
   3.9040230e+02   8.6805400e+00
   3.9088440e+02   8.8455850e+00
   3.9136650e+02   8.8839360e+00
   3.9184860e+02   8.8200450e+00
   3.9233070e+02   8.7472240e+00
   3.9281280e+02   8.7995280e+00
   3.9329500e+02   8.8059050e+00
   3.9377710e+02   8.6055910e+00
   3.9425920e+02   8.0615640e+00
   3.9474130e+02   7.6613990e+00
   3.9522340e+02   7.6802980e+00
   3.9570550e+02   7.8947350e+00
   3.9618770e+02   7.9752550e+00
   3.9666980e+02   7.7488350e+00
   3.9715190e+02   7.5043600e+00
   3.9763400e+02   7.3326840e+00
   3.9811610e+02   7.2510480e+00
   3.9859820e+02   7.1180010e+00
   3.9908040e+02   6.8843370e+00
   3.9956250e+02   6.6122370e+00
   4.0004460e+02   6.3289800e+00
   4.0052670e+02   5.9811300e+00
   4.0100880e+02   5.7093720e+00
   4.0149090e+02   5.6214280e+00
   4.0197310e+02   5.6349460e+00
   4.0245520e+02   5.3738600e+00
   4.0293730e+02   4.5871230e+00
   4.0341940e+02   3.9082610e+00
   4.0390150e+02   3.6971540e+00
   4.0438360e+02   4.1061250e+00
   4.0486580e+02   4.2772430e+00
   4.0534790e+02   4.1452180e+00
   4.0583000e+02   3.8694580e+00
   4.0631210e+02   3.6741870e+00
   4.0679420e+02   3.5656640e+00
   4.0727630e+02   3.4926870e+00
   4.0775850e+02   3.4558600e+00
   4.0824060e+02   3.4419700e+00
   4.0872270e+02   3.3548410e+00
   4.0920480e+02   3.1812420e+00
   4.0968690e+02   3.0432380e+00
   4.1016900e+02   3.0785060e+00
   4.1065120e+02   3.2543240e+00
   4.1113330e+02   3.4232630e+00
   4.1161540e+02   3.5753470e+00
   4.1209750e+02   3.6762800e+00
   4.1257960e+02   3.6307640e+00
   4.1306170e+02   3.4695610e+00
   4.1354390e+02   3.3441410e+00
   4.1402600e+02   3.3923710e+00
   4.1450810e+02   3.5084440e+00
   4.1499020e+02   3.5537560e+00
   4.1547230e+02   3.5192640e+00
   4.1595440e+02   3.4091610e+00
   4.1643660e+02   3.1443120e+00
   4.1691870e+02   2.8239870e+00
   4.1740080e+02   2.5976480e+00
   4.1788290e+02   2.6084250e+00
   4.1836500e+02   2.6522070e+00
   4.1884710e+02   2.6096460e+00
   4.1932930e+02   2.4922110e+00
   4.1981140e+02   2.3691520e+00
   4.2029350e+02   2.2969160e+00
   4.2077560e+02   2.2121110e+00
   4.2125770e+02   2.0691720e+00
   4.2173980e+02   1.8202120e+00
   4.2222200e+02   1.5881580e+00
   4.2270410e+02   1.4105750e+00
   4.2318620e+02   1.2638390e+00
   4.2366830e+02   1.1045370e+00
   4.2415040e+02   9.1181400e-01
   4.2463250e+02   7.1852900e-01
   4.2511470e+02   5.2762400e-01
   4.2559680e+02   3.3244700e-01
   4.2607890e+02   1.7195400e-01
   4.2656100e+02   9.0500005e-03
   4.2704310e+02   8.5975997e-02
   4.2752520e+02   3.1134000e-02
   4.2800740e+02   2.8637400e-01
   4.2848950e+02   4.8418600e-01
   4.2897160e+02   4.8217900e-01
   4.2945370e+02   3.4385300e-01
   4.2993580e+02   2.7395200e-01
   4.3041790e+02   2.9294400e-01
   4.3090010e+02   3.0773700e-01
   4.3138220e+02   2.5732700e-01
   4.3186430e+02   1.3999600e-01
   4.3234640e+02   8.7715000e-02
   4.3282850e+02   1.2094900e-01
   4.3331060e+02   1.5384400e-01
   4.3379280e+02   4.8618000e-02
   4.3427490e+02   1.7508900e-01
   4.3475700e+02   3.7531000e-02
   4.3523910e+02   4.0447999e-02
   4.3572120e+02   4.3037999e-02
   4.3620330e+02   1.4960000e-03
   4.3668550e+02   8.9126997e-02
   4.3716760e+02   1.8051700e-01
   4.3764970e+02   1.2566700e-01
   4.3813180e+02   5.9898999e-02
   4.3861390e+02   4.6553001e-02
   4.3909600e+02   1.0565200e-01
   4.3957820e+02   1.6224700e-01
   4.4006030e+02   1.4048100e-01
   4.4054240e+02   7.3420003e-02
   4.4102450e+02   2.3197001e-02
   4.4150660e+02   4.1749999e-03
   4.4198870e+02   1.9258000e-02
   4.4247090e+02   9.4058998e-02
   4.4295300e+02   1.8018000e-01
   4.4343510e+02   8.5874997e-02
   4.4391720e+02   8.0048002e-02
   4.4439930e+02   1.1189500e-01
   4.4488140e+02   1.4817900e-01
   4.4536360e+02   1.5861400e-01
   4.4584570e+02   1.4755400e-01
   4.4632780e+02   7.3852003e-02
   4.4680990e+02   2.3320300e-01
   4.4729200e+02   4.0979700e-01
   4.4777410e+02   3.7302000e-01
   4.4825630e+02   2.9171900e-01
   4.4873840e+02   2.0364000e-01
   4.4922050e+02   1.0330800e-01
   4.4970260e+02   2.6206000e-02
   4.5018470e+02   4.1970000e-02
   4.5066680e+02   6.9264002e-02
   4.5114900e+02   1.4781000e-02
   4.5163110e+02   2.8509700e-01
   4.5211320e+02   3.4886000e-01
   4.5259530e+02   5.9999999e-02
   4.5307740e+02   5.8995999e-02
   4.5355950e+02   7.1364000e-02
   4.5404170e+02   1.6363900e-01
   4.5452380e+02   6.5968998e-02
   4.5500590e+02   3.3880000e-03
   4.5548800e+02   8.0646001e-02
   4.5597010e+02   2.2335300e-01
   4.5645220e+02   7.0146002e-02
   4.5693440e+02   3.2577700e-01
   4.5741650e+02   3.4540500e-01
   4.5789860e+02   1.9126600e-01
   4.5838070e+02   3.4816999e-02
   4.5886280e+02   7.4160002e-02
   4.5934490e+02   1.5679600e-01
   4.5982710e+02   2.5371200e-01
   4.6030920e+02   1.4212600e-01
   4.6079130e+02   1.1219900e-01
   4.6127340e+02   2.6634500e-01
   4.6175550e+02   4.3674000e-02
   4.6223760e+02   1.7642500e-01
   4.6271980e+02   3.9992300e-01
   4.6320190e+02   5.3269600e-01
   4.6368400e+02   4.3276200e-01
   4.6416610e+02   2.4789700e-01
   4.6464820e+02   1.5691500e-01
   4.6513030e+02   2.1301700e-01
   4.6561250e+02   3.6023100e-01
   4.6609460e+02   6.8254200e-01
   4.6657670e+02   1.1431560e+00
   4.6705880e+02   1.3850070e+00
   4.6754090e+02   1.2022740e+00
   4.6802300e+02   9.5451500e-01
   4.6850520e+02   7.8896600e-01
   4.6898730e+02   7.1198600e-01
   4.6946940e+02   7.1426200e-01
   4.6995150e+02   8.6177800e-01
   4.7043360e+02   1.0320740e+00
   4.7091570e+02   1.0129290e+00
   4.7139790e+02   7.0972300e-01
   4.7188000e+02   5.5310600e-01
   4.7236210e+02   7.0254000e-01
   4.7284420e+02   1.0803780e+00
   4.7332630e+02   1.3416590e+00
   4.7380840e+02   1.4864450e+00
   4.7429060e+02   1.5147360e+00
   4.7477270e+02   1.3379110e+00
   4.7525480e+02   1.0182290e+00
   4.7573690e+02   8.7798500e-01
   4.7621900e+02   9.7388600e-01
   4.7670110e+02   1.1530850e+00
   4.7718330e+02   1.2156180e+00
   4.7766540e+02   1.2104900e+00
   4.7814750e+02   1.2740030e+00
   4.7862960e+02   1.5895230e+00
   4.7911170e+02   1.9131250e+00
   4.7959380e+02   1.9489130e+00
   4.8007600e+02   1.7364860e+00
   4.8055810e+02   1.5412220e+00
   4.8104020e+02   1.4595850e+00
   4.8152230e+02   1.4903050e+00
   4.8200440e+02   1.6740290e+00
   4.8248650e+02   2.1205070e+00
   4.8296870e+02   2.4353880e+00
   4.8345080e+02   2.4109790e+00
   4.8393290e+02   2.1944860e+00
   4.8441500e+02   1.9955370e+00
   4.8489710e+02   1.7608990e+00
   4.8537920e+02   1.6414330e+00
   4.8586140e+02   1.7620060e+00
   4.8634350e+02   2.0906660e+00
   4.8682560e+02   2.1921210e+00
   4.8730770e+02   1.8469650e+00
   4.8778980e+02   1.5315470e+00
   4.8827190e+02   1.5304060e+00
   4.8875410e+02   1.9795120e+00
   4.8923620e+02   2.2919780e+00
   4.8971830e+02   2.4149800e+00
   4.9020040e+02   2.4668590e+00
   4.9068250e+02   2.6566540e+00
   4.9116460e+02   3.0071850e+00
   4.9164680e+02   3.2665250e+00
   4.9212890e+02   3.3289820e+00
   4.9261100e+02   3.2557910e+00
   4.9309310e+02   3.1494440e+00
   4.9357520e+02   3.0120640e+00
   4.9405730e+02   2.9599070e+00
   4.9453950e+02   3.1377490e+00
   4.9502160e+02   3.4481100e+00
   4.9550370e+02   3.7138500e+00
   4.9598580e+02   3.9102770e+00
   4.9646790e+02   4.0322010e+00
   4.9695000e+02   3.8371990e+00
   4.9743220e+02   3.5958410e+00
   4.9791430e+02   3.7688370e+00
   4.9839640e+02   5.1024520e+00
   4.9887850e+02   6.3954240e+00
   4.9936060e+02   6.8691230e+00
   4.9984270e+02   6.6724470e+00
   5.0032490e+02   6.4828380e+00
   5.0080700e+02   6.4053580e+00
   5.0128910e+02   6.5022330e+00
   5.0177120e+02   6.8410670e+00
   5.0225330e+02   7.5439620e+00
   5.0273540e+02   8.1535490e+00
   5.0321760e+02   8.5189760e+00
   5.0369970e+02   8.8366080e+00
   5.0418180e+02   9.3074330e+00
   5.0466390e+02   1.0019980e+01
   5.0514600e+02   1.0699460e+01
   5.0562810e+02   1.1283250e+01
   5.0611030e+02   1.1827620e+01
   5.0659240e+02   1.2528300e+01
   5.0707450e+02   1.3411340e+01
   5.0755660e+02   1.4358070e+01
   5.0803870e+02   1.5300300e+01
   5.0852080e+02   1.6240500e+01
   5.0900300e+02   1.7269740e+01
   5.0948510e+02   1.8388820e+01
   5.0996720e+02   1.9492230e+01
   5.1044930e+02   2.0386160e+01
   5.1093140e+02   2.1168740e+01
   5.1141350e+02   2.2175860e+01
   5.1189570e+02   2.3528760e+01
   5.1237780e+02   2.5012360e+01
   5.1285990e+02   2.6400620e+01
   5.1334200e+02   2.7715370e+01
   5.1382420e+02   2.9015480e+01
   5.1430630e+02   3.0326250e+01
   5.1478840e+02   3.1671390e+01
   5.1527050e+02   3.3096420e+01
   5.1575260e+02   3.4594180e+01
   5.1623470e+02   3.6087580e+01
   5.1671690e+02   3.7396780e+01
   5.1719900e+02   3.8764310e+01
   5.1768110e+02   4.0379890e+01
   5.1816320e+02   4.2612140e+01
   5.1864530e+02   4.4657150e+01
   5.1912740e+02   4.6350150e+01
   5.1960960e+02   4.7847050e+01
   5.2009170e+02   4.9349950e+01
   5.2057380e+02   5.0870910e+01
   5.2105590e+02   5.2378180e+01
   5.2153800e+02   5.3956390e+01
   5.2202010e+02   5.5575710e+01
   5.2250230e+02   5.6545200e+01
   5.2298440e+02   5.6695740e+01
   5.2346650e+02   5.6717690e+01
   5.2394860e+02   5.7208910e+01
   5.2443070e+02   5.8127450e+01
   5.2491280e+02   5.8574020e+01
   5.2539500e+02   5.8465890e+01
   5.2587710e+02   5.7904960e+01
   5.2635920e+02   5.6903650e+01
   5.2684130e+02   5.5538140e+01
   5.2732340e+02   5.4045570e+01
   5.2780550e+02   5.2524570e+01
   5.2828770e+02   5.0928730e+01
   5.2876980e+02   4.9150600e+01
   5.2925190e+02   4.7239790e+01
   5.2973400e+02   4.5317330e+01
   5.3021610e+02   4.3468940e+01
   5.3069820e+02   4.1626650e+01
   5.3118040e+02   3.9665440e+01
   5.3166250e+02   3.7577350e+01
   5.3214460e+02   3.5560440e+01
   5.3262670e+02   3.3700570e+01
   5.3310880e+02   3.1940390e+01
   5.3359090e+02   3.0252820e+01
   5.3407310e+02   2.8497910e+01
   5.3455520e+02   2.6973190e+01
   5.3503730e+02   2.5789200e+01
   5.3551940e+02   2.4835410e+01
   5.3600150e+02   2.3749660e+01
   5.3648360e+02   2.2352410e+01
   5.3696580e+02   2.1196230e+01
   5.3744790e+02   2.0545570e+01
   5.3793000e+02   2.0379430e+01
   5.3841210e+02   1.9917350e+01
   5.3889420e+02   1.9113830e+01
   5.3937630e+02   1.8278090e+01
   5.3985850e+02   1.7720250e+01
   5.4034060e+02   1.7379580e+01
   5.4082270e+02   1.6872030e+01
   5.4130480e+02   1.6068580e+01
   5.4178690e+02   1.5318380e+01
   5.4226900e+02   1.5139570e+01
   5.4275120e+02   1.5335050e+01
   5.4323330e+02   1.5418610e+01
   5.4371540e+02   1.5162300e+01
   5.4419750e+02   1.4744030e+01
   5.4467960e+02   1.4204170e+01
   5.4516170e+02   1.3586330e+01
   5.4564390e+02   1.3107000e+01
   5.4612600e+02   1.3075210e+01
   5.4660810e+02   1.3052390e+01
   5.4709020e+02   1.2740380e+01
   5.4757230e+02   1.2007380e+01
   5.4805440e+02   1.1389800e+01
   5.4853660e+02   1.1040310e+01
   5.4901870e+02   1.0789250e+01
   5.4950080e+02   1.0476950e+01
   5.4998290e+02   1.0039890e+01
   5.5046500e+02   9.6976450e+00
   5.5094710e+02   9.5079960e+00
   5.5142930e+02   9.4029870e+00
   5.5191140e+02   9.2331830e+00
   5.5239350e+02   9.0013070e+00
   5.5287560e+02   8.6948020e+00
   5.5335770e+02   8.2810990e+00
   5.5383980e+02   7.7866570e+00
   5.5432200e+02   7.3261650e+00
   5.5480410e+02   6.8984970e+00
   5.5528620e+02   6.5021920e+00
   5.5576830e+02   6.0954280e+00
   5.5625040e+02   5.7184180e+00
   5.5673250e+02   5.4266260e+00
   5.5721470e+02   5.2357070e+00
   5.5769680e+02   5.0839550e+00
   5.5817890e+02   4.9090010e+00
   5.5866100e+02   4.7417540e+00
   5.5914310e+02   4.6294140e+00
   5.5962520e+02   4.7395500e+00
   5.6010740e+02   4.7531530e+00
   5.6058950e+02   4.4371560e+00
   5.6107160e+02   3.9030380e+00
   5.6155370e+02   3.5306330e+00
   5.6203580e+02   3.5835390e+00
   5.6251790e+02   3.6233320e+00
   5.6300010e+02   3.4716920e+00
   5.6348220e+02   3.1026970e+00
   5.6396430e+02   2.8403810e+00
   5.6444640e+02   2.7568780e+00
   5.6492850e+02   2.6784430e+00
   5.6541060e+02   2.4422980e+00
   5.6589280e+02   2.0041650e+00
   5.6637490e+02   1.7162770e+00
   5.6685700e+02   1.6398720e+00
   5.6733910e+02   1.6392320e+00
   5.6782120e+02   1.4739500e+00
   5.6830330e+02   1.1725690e+00
   5.6878550e+02   9.6078900e-01
   5.6926760e+02   9.4355200e-01
   5.6974970e+02   1.0257450e+00
   5.7023180e+02   1.1458710e+00
   5.7071390e+02   1.2652940e+00
   5.7119600e+02   1.2246700e+00
   5.7167820e+02   7.0537100e-01
   5.7216030e+02   1.3763400e-01
   5.7264240e+02   8.5588999e-02
   5.7312450e+02   8.7024003e-02
   5.7360660e+02   2.6204300e-01
   5.7408870e+02   2.4650700e-01
   5.7457090e+02   1.9883000e-01
   5.7505300e+02   2.4701700e-01
   5.7553510e+02   6.0538100e-01
   5.7601720e+02   7.6995600e-01
   5.7649930e+02   6.3815000e-01
   5.7698140e+02   3.5096600e-01
   5.7746360e+02   1.2245400e-01
   5.7794570e+02   6.1253998e-02
   5.7842780e+02   1.3718000e-01
   5.7890990e+02   3.6219001e-02
   5.7939200e+02   1.6789000e-01
   5.7987410e+02   1.3807100e-01
   5.8035630e+02   1.4841700e-01
   5.8083840e+02   3.2744000e-01
   5.8132050e+02   1.8985600e-01
   5.8180260e+02   2.0478300e-01
   5.8228470e+02   3.5047600e-01
   5.8276680e+02   2.2967300e-01
   5.8324900e+02   9.9119999e-02
   5.8373110e+02   2.4235600e-01
   5.8421320e+02   4.7850000e-01
   5.8469530e+02   5.6636800e-01
   5.8517740e+02   4.0736100e-01
   5.8565950e+02   1.9291500e-01
   5.8614170e+02   1.1743500e-01
   5.8662380e+02   2.1588400e-01
   5.8710580e+02   1.8849100e-01
   5.8758800e+02   2.8966800e-01
   5.8807010e+02   7.7578200e-01
   5.8855220e+02   6.9677500e-01
   5.8903430e+02   1.9616400e-01
   5.8951640e+02   6.4585999e-02
   5.8999850e+02   2.6667999e-02
   5.9048070e+02   1.7063500e-01
   5.9096280e+02   2.6215600e-01
   5.9144490e+02   3.0115700e-01
   5.9192700e+02   2.8820100e-01
   5.9240910e+02   2.2711400e-01
   5.9289120e+02   9.6744999e-02
   5.9337340e+02   2.2910300e-01
   5.9385550e+02   1.7155000e-01
   5.9433760e+02   3.2543200e-01
   5.9481970e+02   8.7805003e-02
   5.9530180e+02   1.9668600e-01
   5.9578390e+02   1.3384300e-01
   5.9626610e+02   3.8102400e-01
   5.9674820e+02   4.7249900e-01
   5.9723030e+02   3.0376600e-01
   5.9771240e+02   5.0645001e-02
   5.9819450e+02   1.8360600e-01
   5.9867660e+02   1.3954600e-01
   5.9915880e+02   3.4463700e-01
   5.9964090e+02   3.2837200e-01
   6.0012300e+02   2.4630900e-01
   6.0060510e+02   1.3017400e-01
   6.0108720e+02   2.2435000e-02
   6.0156930e+02   1.1701400e-01
   6.0205150e+02   1.3948700e-01
   6.0253360e+02   1.2163500e-01
   6.0301570e+02   5.7487000e-02
   6.0349780e+02   7.9470001e-02
   6.0397990e+02   7.4722998e-02
   6.0446200e+02   1.1882400e-01
   6.0494420e+02   1.6108001e-02
   6.0542630e+02   4.5485001e-02
   6.0590840e+02   7.4955001e-02
   6.0639050e+02   3.9572999e-02
   6.0687260e+02   4.0672999e-02
   6.0735470e+02   4.3731000e-01
   6.0783690e+02   4.9548500e-01
   6.0831900e+02   3.0617300e-01
   6.0880110e+02   1.0243500e-01
   6.0928320e+02   2.6976001e-02
   6.0976530e+02   1.1524700e-01
   6.1024740e+02   1.1878200e-01
   6.1072960e+02   7.5594001e-02
   6.1121170e+02   5.2554999e-02
   6.1169380e+02   1.3262000e-02
   6.1217590e+02   2.2944000e-02
   6.1265800e+02   1.3511300e-01
   6.1314010e+02   1.2151900e-01
   6.1362230e+02   2.9953900e-01
   6.1410440e+02   3.8057900e-01
   6.1458650e+02   3.9590000e-01
   6.1506860e+02   3.2124700e-01
   6.1555070e+02   1.2348200e-01
   6.1603280e+02   1.7376300e-01
   6.1651500e+02   5.8838500e-01
   6.1699710e+02   1.0676500e+00
   6.1747920e+02   1.1210480e+00
   6.1796130e+02   8.2723100e-01
   6.1844340e+02   5.4377500e-01
   6.1892550e+02   3.7736400e-01
   6.1940770e+02   2.9645500e-01
   6.1988980e+02   2.8809700e-01
   6.2037190e+02   3.3850300e-01
   6.2085400e+02   4.0330000e-01
   6.2133610e+02   4.8816400e-01
   6.2181820e+02   5.5690100e-01
   6.2230040e+02   5.7486200e-01
   6.2278250e+02   5.4188000e-01
   6.2326460e+02   5.3577800e-01
   6.2374670e+02   5.0565100e-01
   6.2422880e+02   5.6436800e-01
   6.2471090e+02   7.9877600e-01
   6.2519310e+02   1.3159620e+00
   6.2567520e+02   1.6314180e+00
   6.2615730e+02   1.6926990e+00
   6.2663940e+02   1.6427580e+00
   6.2712150e+02   1.5967000e+00
   6.2760360e+02   1.5531000e+00
   6.2808580e+02   1.6065680e+00
   6.2856790e+02   1.7897580e+00
   6.2905000e+02   2.0286660e+00
   6.2953210e+02   2.2116990e+00
   6.3001420e+02   2.3564930e+00
   6.3049630e+02   2.5129770e+00
   6.3097850e+02   2.7585520e+00
   6.3146060e+02   2.9786650e+00
   6.3194270e+02   3.0067940e+00
   6.3242480e+02   2.9169590e+00
   6.3290690e+02   2.9453410e+00
   6.3338900e+02   3.3749450e+00
   6.3387120e+02   3.7767720e+00
   6.3435330e+02   3.9380460e+00
   6.3483540e+02   3.8303820e+00
   6.3531750e+02   3.7470100e+00
   6.3579960e+02   3.6639740e+00
   6.3628170e+02   3.6373810e+00
   6.3676390e+02   3.7155760e+00
   6.3724600e+02   3.9105270e+00
   6.3772810e+02   4.1164620e+00
   6.3821020e+02   4.3199980e+00
   6.3869230e+02   4.5400710e+00
   6.3917440e+02   4.9069740e+00
   6.3965660e+02   5.3662480e+00
   6.4013870e+02   5.5559170e+00
   6.4062080e+02   5.3436590e+00
   6.4110290e+02   5.0439060e+00
   6.4158500e+02   4.9902520e+00
   6.4206710e+02   5.1223370e+00
   6.4254930e+02   5.3229060e+00
   6.4303140e+02   5.6633270e+00
   6.4351350e+02   5.9522000e+00
   6.4399560e+02   6.0547600e+00
   6.4447770e+02   6.0122950e+00
   6.4495980e+02   5.9744720e+00
   6.4544200e+02   6.0113820e+00
   6.4592410e+02   6.0325890e+00
   6.4640620e+02   5.9951940e+00
   6.4688830e+02   5.9051810e+00
   6.4737040e+02   5.8997610e+00
   6.4785250e+02   6.0213560e+00
   6.4833470e+02   6.1612010e+00
   6.4881680e+02   6.2546900e+00
   6.4929890e+02   6.3050460e+00
   6.4978100e+02   6.3425070e+00
   6.5026310e+02   6.3779570e+00
   6.5074520e+02   6.3312100e+00
   6.5122740e+02   6.0024100e+00
   6.5170950e+02   5.5484930e+00
   6.5219160e+02   5.3000630e+00
   6.5267370e+02   5.3888130e+00
   6.5315580e+02   5.5134050e+00
   6.5363790e+02   5.5150980e+00
   6.5412010e+02   5.4106530e+00
   6.5460220e+02   5.2367390e+00
   6.5508430e+02   4.8484420e+00
   6.5556640e+02   4.5715250e+00
   6.5604850e+02   4.5904820e+00
   6.5653060e+02   4.7551690e+00
   6.5701280e+02   4.6818360e+00
   6.5749490e+02   4.2319720e+00
   6.5797700e+02   3.8454970e+00
   6.5845910e+02   3.6299680e+00
   6.5894120e+02   3.5622620e+00
   6.5942330e+02   3.5698210e+00
   6.5990550e+02   3.6635240e+00
   6.6038760e+02   3.7204630e+00
   6.6086970e+02   3.6643530e+00
   6.6135180e+02   3.5219750e+00
   6.6183390e+02   3.3423140e+00
   6.6231600e+02   3.1313210e+00
   6.6279820e+02   2.9663060e+00
   6.6328030e+02   2.9311960e+00
   6.6376240e+02   2.9190750e+00
   6.6424450e+02   2.8510060e+00
   6.6472660e+02   2.7297370e+00
   6.6520870e+02   2.5374100e+00
   6.6569090e+02   2.1150390e+00
   6.6617300e+02   1.7132000e+00
   6.6665510e+02   1.5520710e+00
   6.6713720e+02   1.7804570e+00
   6.6761930e+02   1.9883190e+00
   6.6810140e+02   2.2148870e+00
   6.6858360e+02   2.3850590e+00
   6.6906570e+02   2.3378620e+00
   6.6954780e+02   2.0455270e+00
   6.7002990e+02   1.8791580e+00
   6.7051200e+02   1.9437830e+00
   6.7099410e+02   2.1297090e+00
   6.7147630e+02   2.2318830e+00
   6.7195840e+02   2.2575050e+00
   6.7244050e+02   2.2370290e+00
   6.7292260e+02   2.1819660e+00
   6.7340470e+02   2.0889960e+00
   6.7388680e+02   1.9371180e+00
   6.7436900e+02   1.7416810e+00
   6.7485110e+02   1.5519320e+00
   6.7533320e+02   1.2746680e+00
   6.7581530e+02   1.1117530e+00
   6.7629740e+02   1.1988850e+00
   6.7677950e+02   1.5506000e+00
   6.7726170e+02   1.8151200e+00
   6.7774380e+02   2.0092410e+00
   6.7822590e+02   2.0921590e+00
   6.7870800e+02   1.9947620e+00
   6.7919010e+02   1.6961040e+00
   6.7967220e+02   1.5754710e+00
   6.8015440e+02   1.6500460e+00
   6.8063650e+02   1.7889450e+00
   6.8111860e+02   1.9068600e+00
   6.8160070e+02   1.9921130e+00
   6.8208280e+02   1.9978210e+00
   6.8256490e+02   1.9018050e+00
   6.8304710e+02   1.8183520e+00
   6.8352920e+02   1.8897650e+00
   6.8401130e+02   2.0102610e+00
   6.8449340e+02   2.0512170e+00
   6.8497550e+02   1.9437150e+00
   6.8545760e+02   1.8084120e+00
   6.8593980e+02   1.6556080e+00
   6.8642190e+02   1.4975220e+00
   6.8690400e+02   1.3447820e+00
   6.8738610e+02   1.1481940e+00
   6.8786820e+02   1.0628310e+00
   6.8835030e+02   1.1427250e+00
   6.8883250e+02   1.3273080e+00
   6.8931460e+02   1.4861140e+00
   6.8979670e+02   1.6200820e+00
   6.9027880e+02   1.6738030e+00
   6.9076090e+02   1.6451930e+00
   6.9124300e+02   1.5059350e+00
   6.9172520e+02   1.0691520e+00
   6.9220730e+02   4.2396500e-01
   6.9268940e+02   8.0709998e-03
   6.9317150e+02   2.3449100e-01
   6.9365360e+02   6.1073600e-01
   6.9413570e+02   7.1367400e-01
   6.9461790e+02   5.3037100e-01
   6.9510000e+02   4.3083200e-01
   6.9558210e+02   6.2996000e-01
   6.9606420e+02   8.2483200e-01
   6.9654630e+02   8.7530200e-01
   6.9702840e+02   7.6731200e-01
   6.9751060e+02   5.8928300e-01
   6.9799270e+02   3.0320700e-01
   6.9847480e+02   3.6015999e-02
   6.9895690e+02   1.0517100e-01
   6.9943900e+02   1.2460000e-01
   6.9992110e+02   4.7038000e-02
   7.0040330e+02   1.4024400e-01
   7.0088540e+02   3.2850100e-01
   7.0136750e+02   4.1134200e-01
   7.0184960e+02   4.2543900e-01
   7.0233170e+02   4.2474400e-01
   7.0281380e+02   4.0574400e-01
   7.0329600e+02   3.8680100e-01
   7.0377810e+02   4.1688000e-01
   7.0426020e+02   4.3253600e-01
   7.0474230e+02   3.5557100e-01
   7.0522440e+02   5.4799998e-04
   7.0570650e+02   1.2340000e-02
   7.0618870e+02   1.2909000e-02
   7.0667080e+02   1.0648500e-01
   7.0715290e+02   8.0215998e-02
   7.0763500e+02   6.9807999e-02
   7.0811710e+02   1.2618000e-02
   7.0859920e+02   2.8175000e-02
   7.0908140e+02   8.7782003e-02
   7.0956350e+02   1.1787300e-01
   7.1004560e+02   1.0172600e-01
   7.1052770e+02   3.3558998e-02
   7.1100980e+02   1.7699200e-01
   7.1149190e+02   4.0953300e-01
   7.1197410e+02   5.9223700e-01
   7.1245620e+02   7.1230000e-01
   7.1293830e+02   7.2820700e-01
   7.1342040e+02   5.2423000e-01
   7.1390250e+02   3.0776100e-01
   7.1438460e+02   1.5513000e-01
   7.1486680e+02   6.4866997e-02
   7.1534890e+02   3.9278999e-02
   7.1583100e+02   7.2043002e-02
   7.1631310e+02   1.4580500e-01
   7.1679520e+02   3.0773600e-01
   7.1727730e+02   5.4418300e-01
   7.1775950e+02   6.6701900e-01
   7.1824160e+02   6.7131500e-01
   7.1872370e+02   6.3298700e-01
   7.1920580e+02   5.9353400e-01
   7.1968790e+02   5.5840600e-01
   7.2017000e+02   5.2421200e-01
   7.2065220e+02   4.8733800e-01
   7.2113430e+02   5.0829500e-01
   7.2161640e+02   7.1433900e-01
   7.2209850e+02   9.3263100e-01
   7.2258060e+02   1.0207100e+00
   7.2306270e+02   8.9211800e-01
   7.2354490e+02   7.9333000e-01
   7.2402700e+02   7.4710000e-01
   7.2450910e+02   7.2371800e-01
   7.2499120e+02   6.8658100e-01
   7.2547330e+02   6.2188800e-01
   7.2595540e+02   6.3447400e-01
   7.2643760e+02   7.4988500e-01
   7.2691970e+02   8.9347100e-01
   7.2740180e+02   9.9630600e-01
   7.2788390e+02   1.0452050e+00
   7.2836600e+02   9.7408100e-01
   7.2884810e+02   7.0020100e-01
   7.2933030e+02   4.5807600e-01
   7.2981240e+02   4.8167400e-01
   7.3029450e+02   6.6021000e-01
   7.3077660e+02   8.2467400e-01
   7.3125870e+02   9.8285700e-01
   7.3174080e+02   1.0560420e+00
   7.3222300e+02   9.6301900e-01
   7.3270510e+02   7.8025000e-01
   7.3318720e+02   7.0415100e-01
   7.3366930e+02   7.7709700e-01
   7.3415140e+02   8.3776300e-01
   7.3463350e+02   8.5068600e-01
   7.3511570e+02   8.2624600e-01
   7.3559780e+02   7.6832700e-01
   7.3607990e+02   6.8525100e-01
   7.3656200e+02   6.4827600e-01
   7.3704410e+02   7.6097300e-01
   7.3752620e+02   8.8028700e-01
   7.3800840e+02   7.9211600e-01
   7.3849050e+02   5.6132100e-01
   7.3897260e+02   4.0854900e-01
   7.3945470e+02   4.8818700e-01
   7.3993680e+02   6.0942600e-01
   7.4041890e+02   7.2006400e-01
   7.4090110e+02   8.1027100e-01
   7.4138320e+02   8.1048200e-01
   7.4186530e+02   6.8427000e-01
   7.4234740e+02   5.2987000e-01
   7.4282950e+02   3.6599100e-01
   7.4331160e+02   2.0292700e-01
   7.4379380e+02   1.5215700e-01
   7.4427590e+02   2.1643800e-01
   7.4475800e+02   2.9692700e-01
   7.4524010e+02   3.3019400e-01
   7.4572220e+02   3.3385400e-01
   7.4620430e+02   3.2625100e-01
   7.4668650e+02   3.1000700e-01
   7.4716860e+02   3.0889500e-01
   7.4765070e+02   3.6708100e-01
   7.4813280e+02   4.2198100e-01
   7.4861490e+02   4.3918400e-01
   7.4909700e+02   4.1822100e-01
   7.4957920e+02   3.3128900e-01
   7.5006130e+02   1.2622500e-01
   7.5054340e+02   7.7907003e-02
   7.5102550e+02   5.3782001e-02
   7.5150760e+02   1.3162800e-01
   7.5198970e+02   1.0543700e-01
   7.5247190e+02   4.2149998e-02
   7.5295400e+02   4.6682000e-02
   7.5343610e+02   9.8955996e-02
   7.5391820e+02   8.8748001e-02
   7.5440030e+02   1.4187600e-01
   7.5488240e+02   3.0274500e-01
   7.5536460e+02   3.8507000e-01
   7.5584670e+02   1.6059100e-01
   7.5632880e+02   4.0340000e-03
   7.5681090e+02   1.6801600e-01
   7.5729300e+02   8.6162999e-02
   7.5777510e+02   7.3099998e-04
   7.5825730e+02   4.2328000e-02
   7.5873940e+02   3.9553002e-02
   7.5922150e+02   2.6410000e-02
   7.5970360e+02   5.2049998e-02
   7.6018570e+02   3.8396001e-02
   7.6066780e+02   7.6486997e-02
   7.6115000e+02   7.9810001e-02
   7.6163210e+02   7.4281000e-02
   7.6211420e+02   5.0370000e-02
   7.6259630e+02   2.3173001e-02
   7.6307840e+02   1.6582999e-02
   7.6356050e+02   1.6192000e-01
   7.6404270e+02   2.9630700e-01
   7.6452480e+02   3.9136500e-01
   7.6500690e+02   4.1732800e-01
   7.6548900e+02   2.9671600e-01
   7.6597110e+02   1.9396100e-01
   7.6645320e+02   1.1768900e-01
   7.6693540e+02   6.3378997e-02
   7.6741750e+02   2.7806001e-02
   7.6789960e+02   1.5472000e-02
   7.6838170e+02   7.6100002e-03
   7.6886380e+02   1.4572000e-02
   7.6934590e+02   7.6270001e-03
   7.6982810e+02   1.6658500e-01
   7.7031020e+02   4.3570900e-01
   7.7079230e+02   5.8290200e-01
   7.7127440e+02   4.9775700e-01
   7.7175650e+02   3.2463900e-01
   7.7223860e+02   5.2836001e-02
   7.7272080e+02   3.4768000e-02
   7.7320290e+02   5.6432001e-02
   7.7368500e+02   3.4216002e-02
   7.7416710e+02   2.8738800e-01
   7.7464920e+02   3.5706400e-01
   7.7513130e+02   3.0639800e-01
   7.7561350e+02   2.6040500e-01
   7.7609560e+02   2.1899000e-01
   7.7657770e+02   1.8733500e-01
   7.7705980e+02   1.7392800e-01
   7.7754190e+02   1.5990000e-01
   7.7802400e+02   8.5891001e-02
   7.7850620e+02   2.1268001e-02
   7.7898830e+02   7.8106999e-02
   7.7947040e+02   5.6536999e-02
   7.7995250e+02   3.7207998e-02
   7.8043460e+02   2.5322100e-01
   7.8091670e+02   5.3758500e-01
   7.8139890e+02   7.6121600e-01
   7.8188100e+02   8.8491900e-01
   7.8236310e+02   9.5863600e-01
   7.8284520e+02   9.8070500e-01
   7.8332730e+02   9.6157100e-01
   7.8380940e+02   9.3013700e-01
   7.8429160e+02   8.8653800e-01
   7.8477370e+02   8.2823100e-01
   7.8525580e+02   7.5256300e-01
   7.8573790e+02   6.6281200e-01
   7.8622000e+02   5.2622200e-01
   7.8670210e+02   3.7358900e-01
   7.8718430e+02   3.1509600e-01
   7.8766640e+02   5.8816800e-01
   7.8814850e+02   7.8913800e-01
   7.8863060e+02   5.5778200e-01
   7.8911270e+02   4.2303000e-02
   7.8959480e+02   8.9525998e-02
   7.9007700e+02   2.1638300e-01
   7.9055910e+02   5.3660400e-01
   7.9104120e+02   6.0768100e-01
   7.9152330e+02   5.0305000e-01
   7.9200540e+02   5.0308100e-01
   7.9248750e+02   6.1090000e-01
   7.9296970e+02   6.6427000e-01
   7.9345180e+02   5.5914400e-01
   7.9393390e+02   3.8564800e-01
   7.9441600e+02   2.6310500e-01
   7.9489810e+02   1.9180700e-01
   7.9538020e+02   1.7299500e-01
   7.9586240e+02   1.9643100e-01
   7.9634450e+02   2.8292300e-01
   7.9682660e+02   5.3741700e-01
   7.9730870e+02   8.8893100e-01
   7.9779080e+02   9.8420700e-01
   7.9827290e+02   6.4804800e-01
   7.9875510e+02   3.8368800e-01
   7.9923720e+02   3.6135800e-01
   7.9971930e+02   5.0620200e-01
   8.0020140e+02   5.2848200e-01
   8.0068350e+02   4.3921900e-01
   8.0116560e+02   3.9134800e-01
   8.0164780e+02   5.2075000e-01
   8.0212990e+02   6.8825100e-01
   8.0261200e+02   7.4904800e-01
   8.0309410e+02   7.1288200e-01
   8.0357620e+02   6.1055600e-01
   8.0405830e+02   2.9599100e-01
   8.0454050e+02   8.0476999e-02
   8.0502260e+02   1.6763400e-01
   8.0550470e+02   4.6108200e-01
   8.0598680e+02   6.2703200e-01
   8.0646890e+02   6.4472100e-01
   8.0695100e+02   6.2640100e-01
   8.0743320e+02   6.0920800e-01
   8.0791530e+02   5.8255600e-01
   8.0839740e+02   5.1391500e-01
   8.0887950e+02   4.0821300e-01
   8.0936160e+02   2.6124500e-01
   8.0984380e+02   1.0192000e-02
   8.1032590e+02   4.4578999e-02
   8.1080800e+02   6.4099999e-03
   8.1129010e+02   1.2363600e-01
   8.1177220e+02   3.2441001e-02
   8.1225430e+02   5.1514300e-01
   8.1273650e+02   7.7318900e-01
   8.1321860e+02   5.7049000e-01
   8.1370070e+02   6.7938000e-02
   8.1418280e+02   1.3912300e-01
   8.1466490e+02   5.0151002e-02
   8.1514700e+02   1.2993800e-01
   8.1562920e+02   3.2977600e-01
   8.1611130e+02   5.2432900e-01
   8.1659340e+02   6.9924400e-01
   8.1707550e+02   8.2918400e-01
   8.1755760e+02   8.3720100e-01
   8.1803970e+02   5.6231600e-01
   8.1852190e+02   2.9976100e-01
   8.1900400e+02   2.4249200e-01
   8.1948610e+02   3.2535800e-01
   8.1996820e+02   3.2636400e-01
   8.2045030e+02   1.5911800e-01
   8.2093240e+02   4.2844001e-02
   8.2141460e+02   1.1193000e-02
   8.2189670e+02   5.4180998e-02
   8.2237880e+02   2.0236700e-01
   8.2286090e+02   4.4209100e-01
   8.2334300e+02   5.5834200e-01
   8.2382510e+02   4.1456800e-01
   8.2430730e+02   1.8761100e-01
   8.2478940e+02   5.9349000e-02
   8.2527150e+02   1.2806000e-02
   8.2575360e+02   4.4780001e-03
   8.2623570e+02   2.3836000e-02
   8.2671780e+02   7.1804002e-02
   8.2720000e+02   1.8720700e-01
   8.2768210e+02   3.2375800e-01
   8.2816420e+02   3.8231900e-01
   8.2864630e+02   4.1029998e-03
   8.2912840e+02   4.0465800e-01
   8.2961050e+02   6.3782500e-01
   8.3009270e+02   7.0483000e-01
   8.3057480e+02   9.8996997e-02
   8.3105690e+02   3.4756300e-01
   8.3153900e+02   2.7147800e-01
   8.3202110e+02   1.7662200e-01
   8.3250320e+02   5.5797800e-01
   8.3298540e+02   5.7769999e-02
   8.3346750e+02   4.3117400e-01
   8.3394960e+02   4.5579700e-01
   8.3443170e+02   6.4001400e-01
   8.3491380e+02   4.7864900e-01
   8.3539590e+02   4.2418900e-01
   8.3587810e+02   7.1583300e-01
   8.3636020e+02   8.1508300e-01
   8.3684230e+02   6.0934900e-01
   8.3732440e+02   8.0054600e-01
   8.3780650e+02   2.8844500e-01
   8.3828860e+02   3.9659200e-01
   8.3877080e+02   7.7249700e-01
   8.3925290e+02   5.8967700e-01
   8.3973500e+02   7.9174700e-01
   8.4021710e+02   8.4720000e-01
   8.4069920e+02   2.3648200e-01
   8.4118130e+02   7.8263500e-01
   8.4166350e+02   8.2811700e-01
   8.4214560e+02   3.5973800e-01
   8.4262770e+02   8.6634800e-01
   8.4310980e+02   4.6955400e-01
   8.4359190e+02   3.9446500e-01
   8.4407400e+02   5.6182800e-01
   8.4455620e+02   4.7603300e-01
   8.4503830e+02   7.9049200e-01
   8.4552040e+02   7.1993200e-01
   8.4600250e+02   6.1524900e-01
   8.4648460e+02   6.6070600e-01
   8.4696670e+02   2.8052100e-01
   8.4744890e+02   6.7905200e-01
   8.4793100e+02   5.4897500e-01
   8.4841310e+02   6.8643000e-01
   8.4889520e+02   8.8413600e-01
   8.4937730e+02   6.1783400e-01
   8.4985940e+02   8.4334400e-01
   8.5034160e+02   3.0574000e-01
   8.5082370e+02   4.0590800e-01
   8.5130580e+02   4.3786200e-01
   8.5178790e+02   8.7715200e-01
   8.5227000e+02   3.4434400e-01
   8.5275210e+02   4.2783500e-01
   8.5323430e+02   7.7393700e-01
   8.5371640e+02   8.3133000e-01
   8.5419850e+02   5.9372200e-01
   8.5468060e+02   3.9794100e-01
   8.5516270e+02   3.5698300e-01
   8.5564480e+02   4.0072500e-01
   8.5612700e+02   5.3215700e-01
   8.5660910e+02   7.4718300e-01
   8.5709120e+02   7.9126000e-01
   8.5757330e+02   6.3387400e-01
   8.5805540e+02   4.8310600e-01
   8.5853750e+02   5.1129300e-01
   8.5901970e+02   6.2612700e-01
   8.5950180e+02   6.2058100e-01
   8.5998390e+02   5.1348300e-01
   8.6046600e+02   4.1334200e-01
   8.6094810e+02   4.3663000e-01
   8.6143020e+02   4.2994400e-01
   8.6191240e+02   2.1522100e-01
   8.6239450e+02   1.2775500e-01
   8.6287660e+02   8.0342002e-02
   8.6335870e+02   2.3071600e-01
   8.6384080e+02   6.4261700e-01
   8.6432290e+02   8.6254600e-01
   8.6480510e+02   9.2446100e-01
   8.6528720e+02   8.5933700e-01
   8.6576930e+02   6.9740400e-01
   8.6625140e+02   6.2591100e-01
   8.6673350e+02   8.4330400e-01
   8.6721560e+02   1.0702900e+00
   8.6769780e+02   1.0261670e+00
   8.6817990e+02   8.0896000e-01
   8.6866200e+02   6.8784400e-01
   8.6914410e+02   8.1688900e-01
   8.6962620e+02   9.5279300e-01
   8.7010830e+02   1.0745710e+00
   8.7059050e+02   1.1495500e+00
   8.7107260e+02   1.0707680e+00
   8.7155470e+02   8.4452400e-01
   8.7203680e+02   7.3816400e-01
   8.7251890e+02   8.7756200e-01
   8.7300100e+02   1.0762540e+00
   8.7348320e+02   1.1436730e+00
   8.7396530e+02   1.1100160e+00
   8.7444740e+02   1.0128820e+00
   8.7492950e+02   7.8891200e-01
   8.7541160e+02   6.5244600e-01
   8.7589370e+02   7.4883900e-01
   8.7637590e+02   8.9122000e-01
   8.7685800e+02   8.8477300e-01
   8.7734010e+02   6.8275600e-01
   8.7782220e+02   6.2341100e-01
   8.7830430e+02   7.6461200e-01
   8.7878640e+02   8.9495700e-01
   8.7926860e+02   7.2109900e-01
   8.7975070e+02   4.0740900e-01
   8.8023280e+02   2.2796600e-01
   8.8071490e+02   2.3817000e-01
   8.8119700e+02   2.8505200e-01
   8.8167910e+02   3.1994800e-01
   8.8216130e+02   3.4626000e-01
   8.8264340e+02   3.4878600e-01
   8.8312550e+02   3.1055700e-01
   8.8360760e+02   4.0915700e-01
   8.8408970e+02   7.1280400e-01
   8.8457180e+02   9.3852500e-01
   8.8505400e+02   7.9738400e-01
   8.8553610e+02   4.3398900e-01
   8.8601820e+02   3.6132200e-01
   8.8650030e+02   5.4308600e-01
   8.8698240e+02   6.7021600e-01
   8.8746450e+02   4.9321300e-01
   8.8794670e+02   2.6056400e-01
   8.8842880e+02   6.5892003e-02
   8.8891090e+02   6.5615997e-02
   8.8939300e+02   1.7971000e-02
   8.8987510e+02   4.6291800e-01
   8.9035720e+02   7.9278100e-01
   8.9083940e+02   8.2428000e-01
   8.9132150e+02   6.5892800e-01
   8.9180360e+02   5.6544400e-01
   8.9228570e+02   5.3345700e-01
   8.9276780e+02   4.9763700e-01
   8.9324990e+02   4.0349800e-01
   8.9373210e+02   3.2623500e-01
   8.9421420e+02   3.4739800e-01
   8.9469630e+02   4.2101100e-01
   8.9517840e+02   4.5817000e-01
   8.9566050e+02   4.3265000e-01
   8.9614260e+02   3.7878900e-01
   8.9662480e+02   2.6849600e-01
   8.9710690e+02   1.6910400e-01
   8.9758900e+02   2.0754900e-01
   8.9807110e+02   3.6622800e-01
   8.9855320e+02   4.7560500e-01
   8.9903530e+02   5.0525400e-01
   8.9951750e+02   4.8467500e-01
   8.9999960e+02   4.2933500e-01
   9.0048170e+02   2.9818400e-01
   9.0096380e+02   5.1593400e-01
   9.0144590e+02   6.3471000e-01
   9.0192800e+02   6.6091800e-01
   9.0241020e+02   3.1870600e-01
   9.0289230e+02   4.6420600e-01
   9.0337440e+02   4.0763400e-01
   9.0385650e+02   3.4178400e-01
   9.0433860e+02   5.4440200e-01
   9.0482070e+02   2.5700100e-01
   9.0530290e+02   4.5611000e-01
   9.0578500e+02   4.5760800e-01
   9.0626710e+02   5.4803200e-01
   9.0674920e+02   4.4490300e-01
   9.0723130e+02   4.0202700e-01
   9.0771340e+02   5.5196700e-01
   9.0819560e+02   5.9458600e-01
   9.0867770e+02   4.6860100e-01
   9.0915980e+02   5.6405400e-01
   9.0964190e+02   2.6483000e-01
   9.1012400e+02   3.1292100e-01
   9.1060610e+02   2.7973400e-01
   9.1108830e+02   2.6666300e-01
   9.1157040e+02   5.7371002e-02
   9.1205250e+02   4.5929998e-03
   9.1253460e+02   7.9001002e-02
   9.1301670e+02   2.2807000e-02
   9.1349880e+02   8.3959997e-02
   9.1398100e+02   1.6935100e-01
   9.1446310e+02   3.0891900e-01
   9.1494520e+02   2.0157500e-01
   9.1542730e+02   5.0800000e-03
   9.1590940e+02   6.3357003e-02
   9.1639150e+02   8.0057003e-02
   9.1687370e+02   1.9959001e-02
   9.1735580e+02   1.3088300e-01
   9.1783790e+02   2.7297600e-01
   9.1832000e+02   2.7319400e-01
   9.1880210e+02   2.1770400e-01
   9.1928420e+02   2.1848700e-01
   9.1976640e+02   3.1674200e-01
   9.2024850e+02   4.0693700e-01
   9.2073060e+02   5.1393500e-01
   9.2121270e+02   5.8182400e-01
   9.2169480e+02   5.6269600e-01
   9.2217690e+02   4.5304600e-01
   9.2265910e+02   2.8704500e-01
   9.2314120e+02   5.6010999e-02
   9.2362330e+02   2.2658000e-02
   9.2410540e+02   1.2865300e-01
   9.2458750e+02   2.0804400e-01
   9.2506960e+02   1.5372400e-01
   9.2555180e+02   5.8370000e-03
   9.2603390e+02   5.5946998e-02
   9.2651600e+02   1.8843999e-02
   9.2699810e+02   2.1484001e-02
   9.2748020e+02   3.7413001e-02
   9.2796230e+02   2.2732200e-01
   9.2844450e+02   3.2426100e-01
   9.2892660e+02   2.4257500e-01
   9.2940870e+02   1.1636300e-01
   9.2989080e+02   4.1232001e-02
   9.3037290e+02   5.3399999e-04
   9.3085500e+02   5.3650001e-03
   9.3133720e+02   7.4579000e-02
   9.3181930e+02   3.5310001e-03
   9.3230140e+02   3.9650001e-02
   9.3278350e+02   6.7151003e-02
   9.3326560e+02   8.2428999e-02
   9.3374770e+02   1.0177100e-01
   9.3422990e+02   1.4837600e-01
   9.3471200e+02   2.2871600e-01
   9.3519410e+02   2.7855900e-01
   9.3567620e+02   2.9665700e-01
   9.3615830e+02   2.6924900e-01
   9.3664040e+02   8.2062997e-02
   9.3712260e+02   6.1423998e-02
   9.3760470e+02   9.6899997e-03
   9.3808680e+02   3.9011600e-01
   9.3856890e+02   6.5074700e-01
   9.3905100e+02   4.2981900e-01
   9.3953310e+02   2.5924200e-01
   9.4001530e+02   4.0910400e-01
   9.4049740e+02   7.9921300e-01
   9.4097950e+02   8.2319800e-01
   9.4146160e+02   4.7510700e-01
   9.4194370e+02   1.8185900e-01
   9.4242580e+02   1.7383500e-01
   9.4290800e+02   2.8404400e-01
   9.4339010e+02   3.7387700e-01
   9.4387220e+02   4.2310900e-01
   9.4435430e+02   3.8926300e-01
   9.4483640e+02   1.6013800e-01
   9.4531850e+02   2.6393000e-02
   9.4580070e+02   9.7300002e-04
   9.4628280e+02   5.8127001e-02
   9.4676490e+02   5.7006001e-02
   9.4724700e+02   1.5888800e-01
   9.4772910e+02   4.0001700e-01
   9.4821120e+02   5.8815900e-01
   9.4869340e+02   6.6664000e-01
   9.4917550e+02   4.6028600e-01
   9.4965760e+02   1.8578200e-01
   9.5013970e+02   9.5123999e-02
   9.5062180e+02   2.5565700e-01
   9.5110390e+02   3.9001500e-01
   9.5158610e+02   4.4192500e-01
   9.5206820e+02   4.9330200e-01
   9.5255030e+02   6.1798400e-01
   9.5303240e+02   7.8334000e-01
   9.5351450e+02   6.9655500e-01
   9.5399660e+02   3.8426000e-01
   9.5447880e+02   1.6624400e-01
   9.5496090e+02   3.0092000e-01
   9.5544300e+02   5.3826700e-01
   9.5592510e+02   7.5194100e-01
   9.5640720e+02   9.0977200e-01
   9.5688930e+02   9.1010100e-01
   9.5737150e+02   5.6260700e-01
   9.5785360e+02   3.8025900e-01
   9.5833570e+02   5.0950500e-01
   9.5881780e+02   7.1014600e-01
   9.5929990e+02   5.0346900e-01
   9.5978200e+02   3.1069999e-03
   9.6026420e+02   6.5632999e-02
   9.6074630e+02   1.1988800e-01
   9.6122840e+02   4.1989200e-01
   9.6171050e+02   2.4306300e-01
   9.6219260e+02   1.6357999e-02
   9.6267470e+02   3.4352001e-02
   9.6315690e+02   5.3927900e-01
   9.6363900e+02   7.6167900e-01
   9.6412110e+02   5.8919100e-01
   9.6460320e+02   4.4755200e-01
   9.6508530e+02   7.2199400e-01
   9.6556740e+02   1.1969250e+00
   9.6604960e+02   1.1521250e+00
   9.6653170e+02   6.9008000e-01
   9.6701380e+02   3.0387400e-01
   9.6749590e+02   2.7951300e-01
   9.6797800e+02   3.6802900e-01
   9.6846010e+02   5.0451400e-01
   9.6894230e+02   6.6010200e-01
   9.6942440e+02   7.8117300e-01
   9.6990650e+02   8.7587000e-01
   9.7038860e+02   8.4530600e-01
   9.7087070e+02   6.4229000e-01
   9.7135280e+02   4.2673200e-01
   9.7183500e+02   5.2696800e-01
   9.7231710e+02   7.3955500e-01
   9.7279920e+02   6.4500400e-01
   9.7328130e+02   5.3056002e-02
   9.7376340e+02   1.8336000e-01
   9.7424550e+02   1.6185001e-02
   9.7472770e+02   4.3017400e-01
   9.7520980e+02   4.4871200e-01
   9.7569190e+02   6.0876001e-02
   9.7617400e+02   7.5314999e-02
   9.7665610e+02   4.8664000e-02
   9.7713820e+02   2.3003300e-01
   9.7762040e+02   4.0406400e-01
   9.7810250e+02   5.2522200e-01
   9.7858460e+02   4.9175000e-01
   9.7906670e+02   3.5732700e-01
   9.7954880e+02   2.8066800e-01
   9.8003090e+02   3.3107100e-01
   9.8051310e+02   4.2236700e-01
   9.8099520e+02   5.5640600e-01
   9.8147730e+02   6.9740100e-01
   9.8195940e+02   8.2781600e-01
   9.8244150e+02   9.3931600e-01
   9.8292360e+02   9.2257900e-01
   9.8340580e+02   7.3750700e-01
   9.8388790e+02   5.8060600e-01
   9.8437000e+02   6.5965000e-01
   9.8485210e+02   8.1497100e-01
   9.8533420e+02   9.2685700e-01
   9.8581630e+02   9.9241500e-01
   9.8629850e+02   8.6004300e-01
   9.8678060e+02   3.9101500e-01
   9.8726270e+02   4.4948999e-02
   9.8774480e+02   1.2700800e-01
   9.8822690e+02   4.7870400e-01
   9.8870900e+02   6.3369100e-01
   9.8919120e+02   4.4493100e-01
   9.8967330e+02   6.6973200e-01
   9.9015540e+02   7.9689000e-01
   9.9063750e+02   8.3119100e-01
   9.9111960e+02   4.9379900e-01
   9.9160170e+02   6.3657000e-01
   9.9208390e+02   5.8713700e-01
   9.9256600e+02   5.3012000e-01
   9.9304810e+02   7.4110300e-01
   9.9353020e+02   4.5856800e-01
   9.9401230e+02   6.6516400e-01
   9.9449440e+02   6.7558100e-01
   9.9497660e+02   7.6614900e-01
   9.9545870e+02   6.7027500e-01
   9.9594080e+02   6.3753000e-01
   9.9642290e+02   7.9946800e-01
   9.9690500e+02   8.5321200e-01
   9.9738710e+02   7.3771900e-01
   9.9786930e+02   8.4435100e-01
   9.9835140e+02   5.5624000e-01
   9.9883350e+02   6.1543300e-01
   9.9931560e+02   8.2359600e-01
   9.9979770e+02   7.1731700e-01
   1.0002800e+03   7.2183200e-01
   1.0007620e+03   7.8454400e-01
   1.0012440e+03   8.4372500e-01
   1.0017260e+03   8.9654400e-01
   1.0022080e+03   9.3876000e-01
   1.0026900e+03   9.8929100e-01
   1.0031730e+03   9.8359000e-01
   1.0036550e+03   8.9147900e-01
   1.0041370e+03   7.9682100e-01
   1.0046190e+03   8.0009300e-01
   1.0051010e+03   8.8248600e-01
   1.0055830e+03   9.7170200e-01
   1.0060650e+03   1.0598160e+00
   1.0065470e+03   1.0677500e+00
   1.0070290e+03   7.9006700e-01
   1.0075120e+03   5.6939300e-01
   1.0079940e+03   7.1514400e-01
   1.0084760e+03   1.1012330e+00
   1.0089580e+03   1.1412240e+00
   1.0094400e+03   7.6116600e-01
   1.0099220e+03   5.2960700e-01
   1.0104040e+03   6.8807100e-01
   1.0108860e+03   9.1564500e-01
   1.0113690e+03   7.0424700e-01
   1.0118510e+03   2.6538500e-01
   1.0123330e+03   3.8557000e-02
   1.0128150e+03   7.1509004e-02
   1.0132970e+03   7.0583001e-02
   1.0137790e+03   1.0153500e-01
   1.0142610e+03   8.8091001e-02
   1.0147430e+03   7.9508997e-02
   1.0152250e+03   3.8417800e-01
   1.0157080e+03   3.9615100e-01
   1.0161900e+03   1.3534100e-01
   1.0166720e+03   9.2386998e-02
   1.0171540e+03   6.1521001e-02
   1.0176360e+03   4.8884999e-02
   1.0181180e+03   1.3431100e-01
   1.0186000e+03   2.0858400e-01
   1.0190820e+03   2.5692500e-01
   1.0195650e+03   2.2149200e-01
   1.0200470e+03   3.2712500e-01
   1.0205290e+03   6.7857300e-01
   1.0210110e+03   1.0335110e+00
   1.0214930e+03   1.0027610e+00
   1.0219750e+03   7.3950600e-01
   1.0224570e+03   5.5096700e-01
   1.0229390e+03   4.9281700e-01
   1.0234210e+03   5.1928000e-01
   1.0239040e+03   8.0713300e-01
   1.0243860e+03   9.8049900e-01
   1.0248680e+03   7.6773500e-01
   1.0253500e+03   2.4282600e-01
   1.0258320e+03   1.5188600e-01
   1.0263140e+03   4.9228000e-01
   1.0267960e+03   7.6095000e-01
   1.0272780e+03   6.5413000e-01
   1.0277600e+03   4.7338400e-01
   1.0282430e+03   5.7206900e-01
   1.0287250e+03   7.9782100e-01
   1.0292070e+03   8.7206200e-01
   1.0296890e+03   5.6216100e-01
   1.0301710e+03   4.2772700e-01
   1.0306530e+03   5.3370600e-01
   1.0311350e+03   6.9091500e-01
   1.0316170e+03   6.9761200e-01
   1.0321000e+03   6.2672100e-01
   1.0325820e+03   5.8855300e-01
   1.0330640e+03   5.8257900e-01
   1.0335460e+03   5.6388800e-01
   1.0340280e+03   4.1817800e-01
   1.0345100e+03   3.6584800e-01
   1.0349920e+03   6.1953900e-01
   1.0354740e+03   1.0152540e+00
   1.0359570e+03   9.7463700e-01
   1.0364390e+03   4.5317400e-01
   1.0369210e+03   3.3873200e-01
   1.0374030e+03   9.5504000e-01
   1.0378850e+03   1.6436570e+00
   1.0383670e+03   1.5941830e+00
   1.0388490e+03   1.2093160e+00
   1.0393310e+03   9.9543800e-01
   1.0398130e+03   1.0979100e+00
   1.0402960e+03   1.1027800e+00
   1.0407780e+03   9.5077600e-01
   1.0412600e+03   7.6819000e-01
   1.0417420e+03   6.0015400e-01
   1.0422240e+03   4.6385500e-01
   1.0427060e+03   4.3930800e-01
   1.0431880e+03   5.0555300e-01
   1.0436700e+03   5.8240700e-01
   1.0441520e+03   6.2700500e-01
   1.0446350e+03   6.8259400e-01
   1.0451170e+03   8.0961800e-01
   1.0455990e+03   9.3143500e-01
   1.0460810e+03   9.3719600e-01
   1.0465630e+03   8.0690900e-01
   1.0470450e+03   7.0574600e-01
   1.0475270e+03   6.4357500e-01
   1.0480090e+03   6.2450300e-01
   1.0484920e+03   7.0068500e-01
   1.0489740e+03   7.9167700e-01
   1.0494560e+03   7.8767900e-01
   1.0499380e+03   6.9097800e-01
   1.0504200e+03   6.4129400e-01
   1.0509020e+03   6.5784500e-01
   1.0513840e+03   7.3035800e-01
   1.0518660e+03   8.9686800e-01
   1.0523490e+03   1.0600810e+00
   1.0528310e+03   9.7028500e-01
   1.0533130e+03   7.1929200e-01
   1.0537950e+03   6.0059600e-01
   1.0542770e+03   7.1375200e-01
   1.0547590e+03   8.5307600e-01
   1.0552410e+03   9.7385300e-01
   1.0557230e+03   1.0408270e+00
   1.0562050e+03   1.0308180e+00
   1.0566880e+03   9.4538000e-01
   1.0571700e+03   7.8332200e-01
   1.0576520e+03   5.4588800e-01
   1.0581340e+03   4.6773800e-01
   1.0586160e+03   8.5601500e-01
   1.0590980e+03   1.2581830e+00
   1.0595800e+03   1.1982850e+00
   1.0600620e+03   8.6537900e-01
   1.0605440e+03   6.0885700e-01
   1.0610270e+03   4.6070000e-01
   1.0615090e+03   4.4807400e-01
   1.0619910e+03   6.1740100e-01
   1.0624730e+03   7.9438400e-01
   1.0629550e+03   8.3295700e-01
   1.0634370e+03   7.4319200e-01
   1.0639190e+03   4.8241800e-01
   1.0644010e+03   8.1749998e-02
   1.0648840e+03   4.6350001e-03
   1.0653660e+03   1.1647300e-01
   1.0658480e+03   7.5130001e-02
   1.0663300e+03   2.6272001e-02
   1.0668120e+03   3.1815900e-01
   1.0672940e+03   5.1497000e-01
   1.0677760e+03   5.7159600e-01
   1.0682580e+03   5.1896600e-01
   1.0687400e+03   3.3899400e-01
   1.0692230e+03   1.9902700e-01
   1.0697050e+03   2.9317400e-01
   1.0701870e+03   4.3720900e-01
   1.0706690e+03   4.7476600e-01
   1.0711510e+03   3.9625600e-01
   1.0716330e+03   2.9071300e-01
   1.0721150e+03   1.4364100e-01
   1.0725970e+03   5.7711001e-02
   1.0730790e+03   1.0001300e-01
   1.0735620e+03   1.8373400e-01
   1.0740440e+03   1.6621300e-01
   1.0745260e+03   8.9006998e-02
   1.0750080e+03   5.2232001e-02
   1.0754900e+03   1.0148300e-01
   1.0759720e+03   1.4831600e-01
   1.0764540e+03   1.8187200e-01
   1.0769360e+03   2.2370300e-01
   1.0774190e+03   2.8161300e-01
   1.0779010e+03   3.4898400e-01
   1.0783830e+03   4.5881700e-01
   1.0788650e+03   5.9255700e-01
   1.0793470e+03   6.1118100e-01
   1.0798290e+03   2.2927000e-01
   1.0803110e+03   5.5718001e-02
   1.0807930e+03   8.1754997e-02
   1.0812750e+03   4.1315900e-01
   1.0817580e+03   6.1683400e-01
   1.0822400e+03   6.9499300e-01
   1.0827220e+03   5.8249600e-01
   1.0832040e+03   2.4476900e-01
   1.0836860e+03   2.6187999e-02
   1.0841680e+03   1.5577400e-01
   1.0846500e+03   4.2330500e-01
   1.0851320e+03   4.0630400e-01
   1.0856150e+03   9.1261998e-02
   1.0860970e+03   1.0170500e-01
   1.0865790e+03   2.7001999e-02
   1.0870610e+03   5.3539998e-03
   1.0875430e+03   1.6504001e-02
   1.0880250e+03   1.3771000e-02
   1.0885070e+03   9.2519997e-03
   1.0889890e+03   3.4159999e-03
   1.0894710e+03   3.1613000e-02
   1.0899530e+03   7.1166001e-02
   1.0904360e+03   6.4999998e-02
   1.0909180e+03   1.1812900e-01
   1.0914000e+03   2.6767800e-01
   1.0918820e+03   2.9306300e-01
   1.0923640e+03   2.3007600e-01
   1.0928460e+03   2.4330700e-01
   1.0933280e+03   3.2181700e-01
   1.0938100e+03   4.1985500e-01
   1.0942930e+03   5.8386400e-01
   1.0947750e+03   6.6974800e-01
   1.0952570e+03   5.1844500e-01
   1.0957390e+03   3.1532300e-01
   1.0962210e+03   2.7181700e-01
   1.0967030e+03   4.1567300e-01
   1.0971850e+03   4.6357300e-01
   1.0976670e+03   4.0887600e-01
   1.0981500e+03   3.4643900e-01
   1.0986320e+03   3.8344900e-01
   1.0991140e+03   4.0998400e-01
   1.0995960e+03   2.5768500e-01
   1.1000780e+03   1.6052000e-02
   1.1005600e+03   4.5779999e-03
   1.1010420e+03   3.1682000e-01
   1.1015240e+03   5.3163800e-01
   1.1020060e+03   5.7787000e-01
   1.1024890e+03   5.4230000e-01
   1.1029710e+03   4.4553500e-01
   1.1034530e+03   3.4262500e-01
   1.1039350e+03   3.3925400e-01
   1.1044170e+03   4.4073600e-01
   1.1048990e+03   4.5371100e-01
   1.1053810e+03   2.5053600e-01
   1.1058630e+03   6.3403003e-02
   1.1063450e+03   6.2972002e-02
   1.1068280e+03   7.1598999e-02
   1.1073100e+03   5.1116001e-02
   1.1077920e+03   1.1608100e-01
   1.1082740e+03   3.0688800e-01
   1.1087560e+03   5.4239500e-01
   1.1092380e+03   6.2254300e-01
   1.1097200e+03   1.7369300e-01
   1.1102020e+03   5.0579999e-03
   1.1106850e+03   2.0669999e-03
   1.1111670e+03   5.9727900e-01
   1.1116490e+03   8.1353300e-01
   1.1121310e+03   6.7855700e-01
   1.1126130e+03   5.1407300e-01
   1.1130950e+03   4.6478500e-01
   1.1135770e+03   4.1572500e-01
   1.1140590e+03   2.3767600e-01
   1.1145420e+03   4.4413999e-02
   1.1150240e+03   3.8392000e-02
   1.1155060e+03   1.2728000e-02
   1.1159880e+03   1.8221400e-01
   1.1164700e+03   5.7230500e-01
   1.1169520e+03   8.6392200e-01
   1.1174340e+03   7.6321900e-01
   1.1179160e+03   5.4033700e-01
   1.1183980e+03   5.0263800e-01
   1.1188800e+03   5.7441800e-01
   1.1193630e+03   5.5707100e-01
   1.1198450e+03   3.1083900e-01
   1.1203270e+03   2.4373300e-01
   1.1208090e+03   4.3578000e-01
   1.1212910e+03   6.3363500e-01
   1.1217730e+03   5.5547300e-01
   1.1222550e+03   3.2301200e-01
   1.1227370e+03   1.0393800e-01
   1.1232200e+03   8.0154002e-02
   1.1237020e+03   4.5200000e-03
   1.1241840e+03   5.5730000e-02
   1.1246660e+03   3.9556000e-02
   1.1251480e+03   3.0921900e-01
   1.1256300e+03   6.0262800e-01
   1.1261120e+03   7.8193800e-01
   1.1265940e+03   8.5420100e-01
   1.1270770e+03   8.2152000e-01
   1.1275590e+03   6.8113700e-01
   1.1280410e+03   5.2937800e-01
   1.1285230e+03   3.1440500e-01
   1.1290050e+03   2.2386000e-01
   1.1294870e+03   4.1643700e-01
   1.1299690e+03   7.5156300e-01
   1.1304510e+03   7.5993400e-01
   1.1309330e+03   4.9240600e-01
   1.1314160e+03   2.3473300e-01
   1.1318980e+03   3.6982998e-02
   1.1323800e+03   4.2996999e-02
   1.1328620e+03   1.9691100e-01
   1.1333440e+03   4.3224800e-01
   1.1338260e+03   3.3278500e-01
   1.1343080e+03   6.6119999e-02
   1.1347900e+03   5.7202000e-02
   1.1352720e+03   3.6224900e-01
   1.1357550e+03   6.7883800e-01
   1.1362370e+03   6.6749600e-01
   1.1367190e+03   5.4630700e-01
   1.1372010e+03   4.3897900e-01
   1.1376830e+03   3.8046600e-01
   1.1381650e+03   4.3697100e-01
   1.1386470e+03   6.7197300e-01
   1.1391290e+03   7.8252700e-01
   1.1396120e+03   7.6057600e-01
   1.1400940e+03   6.6456200e-01
   1.1405760e+03   4.4791200e-01
   1.1410580e+03   2.4786000e-01
   1.1415400e+03   2.7155200e-01
   1.1420220e+03   4.4242900e-01
   1.1425040e+03   5.9063200e-01
   1.1429860e+03   7.6221800e-01
   1.1434690e+03   7.2535100e-01
   1.1439510e+03   3.8406600e-01
   1.1444330e+03   5.8499001e-02
   1.1449150e+03   9.4834998e-02
   1.1453970e+03   3.2267200e-01
   1.1458790e+03   4.4537100e-01
   1.1463610e+03   4.8249500e-01
   1.1468430e+03   5.0404300e-01
   1.1473250e+03   6.2429100e-01
   1.1478070e+03   6.1753300e-01
   1.1482900e+03   4.1022100e-01
   1.1487720e+03   1.6639100e-01
   1.1492540e+03   8.1573002e-02
   1.1497360e+03   1.0920300e-01
   1.1502180e+03   1.5747900e-01
   1.1507000e+03   2.1843700e-01
   1.1511820e+03   2.5245300e-01
   1.1516640e+03   2.3556200e-01
   1.1521470e+03   1.8961800e-01
   1.1526290e+03   9.6473001e-02
   1.1531110e+03   1.4139000e-02
   1.1535930e+03   7.9099000e-02
   1.1540750e+03   2.2709200e-01
   1.1545570e+03   2.7293900e-01
   1.1550390e+03   1.9525400e-01
   1.1555210e+03   1.3400500e-01
   1.1560040e+03   1.6162600e-01
   1.1564860e+03   2.3623100e-01
   1.1569680e+03   3.6622700e-01
   1.1574500e+03   5.0827500e-01
   1.1579320e+03   5.3186800e-01
   1.1584140e+03   4.4611300e-01
   1.1588960e+03   2.8114500e-01
   1.1593780e+03   6.6700000e-03
   1.1598600e+03   7.9829998e-02
   1.1603430e+03   4.1947000e-02
   1.1608250e+03   2.7823400e-01
   1.1613070e+03   2.6597800e-01
   1.1617890e+03   5.0744001e-02
   1.1622710e+03   8.1219999e-03
   1.1627530e+03   1.2893300e-01
   1.1632350e+03   2.3471600e-01
   1.1637170e+03   2.7467300e-01
   1.1641990e+03   2.4753200e-01
   1.1646820e+03   4.1349001e-02
   1.1651640e+03   4.9222000e-02
   1.1656460e+03   1.6961001e-02
   1.1661280e+03   2.5773500e-01
   1.1666100e+03   4.3022900e-01
   1.1670920e+03   4.3137100e-01
   1.1675740e+03   3.8182200e-01
   1.1680560e+03   3.1444000e-01
   1.1685390e+03   2.7113900e-01
   1.1690210e+03   2.3791200e-01
   1.1695030e+03   2.3799900e-01
   1.1699850e+03   3.3425800e-01
   1.1704670e+03   5.8832800e-01
   1.1709490e+03   6.8257600e-01
   1.1714310e+03   6.0504800e-01
   1.1719130e+03   4.9094000e-01
   1.1723960e+03   3.4195200e-01
   1.1728780e+03   2.6122400e-01
   1.1733600e+03   4.8488100e-01
   1.1738420e+03   8.5459300e-01
   1.1743240e+03   1.0576600e+00
   1.1748060e+03   1.0110110e+00
   1.1752880e+03   9.6261900e-01
   1.1757700e+03   9.2663400e-01
   1.1762520e+03   8.4017200e-01
   1.1767340e+03   5.7596100e-01
   1.1772170e+03   2.8511900e-01
   1.1776990e+03   1.5166800e-01
   1.1781810e+03   1.5312100e-01
   1.1786630e+03   2.2754000e-01
   1.1791450e+03   4.1359700e-01
   1.1796270e+03   5.6205400e-01
   1.1801090e+03   6.4964400e-01
   1.1805910e+03   6.8396400e-01
   1.1810740e+03   6.5988800e-01
   1.1815560e+03   6.0212100e-01
   1.1820380e+03   5.2243400e-01
   1.1825200e+03   4.3252900e-01
   1.1830020e+03   3.5218200e-01
   1.1834840e+03   2.5998300e-01
   1.1839660e+03   2.2565100e-01
   1.1844480e+03   2.6855700e-01
   1.1849310e+03   3.4630300e-01
   1.1854130e+03   4.7148200e-01
   1.1858950e+03   5.6245600e-01
   1.1863770e+03   3.9196100e-01
   1.1868590e+03   3.0687001e-02
   1.1873410e+03   9.8894998e-02
   1.1878230e+03   5.7425800e-01
   1.1883050e+03   8.9847600e-01
   1.1887870e+03   6.5120600e-01
   1.1892700e+03   2.3421900e-01
   1.1897520e+03   2.2417100e-01
   1.1902340e+03   4.0460900e-01
   1.1907160e+03   4.0317200e-01
   1.1911980e+03   1.8672000e-01
   1.1916800e+03   5.0725002e-02
   1.1921620e+03   2.1074600e-01
   1.1926440e+03   2.1801500e-01
   1.1931260e+03   1.0018500e-01
   1.1936090e+03   3.9512400e-01
   1.1940910e+03   3.9174200e-01
   1.1945730e+03   2.2977800e-01
   1.1950550e+03   1.6720100e-01
   1.1955370e+03   2.4304000e-01
   1.1960190e+03   2.9014500e-01
   1.1965010e+03   2.5187100e-01
   1.1969830e+03   2.1921500e-01
   1.1974660e+03   2.1831600e-01
   1.1979480e+03   2.3518700e-01
   1.1984300e+03   2.4935500e-01
   1.1989120e+03   2.6091200e-01
   1.1993940e+03   2.8199200e-01
   1.1998760e+03   3.2246500e-01
   1.2003580e+03   2.8929800e-01
   1.2008400e+03   5.4531999e-02
   1.2013230e+03   1.1679700e-01
   1.2018050e+03   3.7556900e-01
   1.2022870e+03   9.3924000e-01
   1.2027690e+03   7.7753100e-01
   1.2032510e+03   2.1154300e-01
   1.2037330e+03   1.6493800e-01
   1.2042150e+03   3.0407100e-01
   1.2046970e+03   5.6325600e-01
   1.2051790e+03   6.6205500e-01
   1.2056610e+03   6.2719600e-01
   1.2061440e+03   4.0275800e-01
   1.2066260e+03   1.2576500e-01
   1.2071080e+03   1.4898200e-01
   1.2075900e+03   3.5612800e-01
   1.2080720e+03   4.9861100e-01
   1.2085540e+03   4.9840100e-01
   1.2090360e+03   4.6064000e-01
   1.2095180e+03   4.0762100e-01
   1.2100010e+03   3.0043600e-01
   1.2104830e+03   5.4644000e-02
   1.2109650e+03   3.0684100e-01
   1.2114470e+03   1.6344300e-01
   1.2119290e+03   3.1734200e-01
   1.2124110e+03   6.3082500e-01
   1.2128930e+03   7.9665100e-01
   1.2133750e+03   8.2522900e-01
   1.2138580e+03   6.5845800e-01
   1.2143400e+03   4.9856700e-01
   1.2148220e+03   4.7091800e-01
   1.2153040e+03   5.2079700e-01
   1.2157860e+03   5.3108600e-01
   1.2162680e+03   5.0917600e-01
   1.2167500e+03   4.6487400e-01
   1.2172320e+03   3.6460300e-01
   1.2177140e+03   3.1652600e-01
   1.2181970e+03   3.7524700e-01
   1.2186790e+03   4.3668600e-01
   1.2191610e+03   4.1010600e-01
   1.2196430e+03   3.6375300e-01
   1.2201250e+03   4.7706300e-01
   1.2206070e+03   6.8246400e-01
   1.2210890e+03   8.0527500e-01
   1.2215710e+03   7.5490900e-01
   1.2220530e+03   6.8007500e-01
   1.2225360e+03   5.7958400e-01
   1.2230180e+03   4.6635300e-01
   1.2235000e+03   3.5157300e-01
   1.2239820e+03   2.6138700e-01
   1.2244640e+03   2.8046100e-01
   1.2249460e+03   3.4442600e-01
   1.2254280e+03   3.0650000e-01
   1.2259100e+03   4.7231000e-02
   1.2263930e+03   5.1883999e-02
   1.2268750e+03   6.0187001e-02
   1.2273570e+03   9.7646996e-02
   1.2278390e+03   2.5250800e-01
   1.2283210e+03   3.4577000e-01
   1.2288030e+03   2.3234900e-01
   1.2292850e+03   1.6195999e-02
   1.2297670e+03   5.7833001e-02
   1.2302500e+03   1.5333400e-01
   1.2307320e+03   3.5247700e-01
   1.2312140e+03   5.5594900e-01
   1.2316960e+03   6.8126300e-01
   1.2321780e+03   6.1611400e-01
   1.2326600e+03   4.6620900e-01
   1.2331420e+03   2.9722500e-01
   1.2336240e+03   1.7189200e-01
   1.2341060e+03   2.5914600e-01
   1.2345890e+03   7.4495900e-01
   1.2350710e+03   1.0050860e+00
   1.2355530e+03   1.0157400e+00
   1.2360350e+03   8.4632800e-01
   1.2365170e+03   3.5679300e-01
   1.2369990e+03   1.2935000e-02
   1.2374810e+03   8.6323000e-02
   1.2379630e+03   5.1855002e-02
   1.2384450e+03   1.9666300e-01
   1.2389280e+03   5.7534900e-01
   1.2394100e+03   6.7361700e-01
   1.2398920e+03   4.4492900e-01
   1.2403740e+03   2.5133700e-01
   1.2408560e+03   5.3166800e-01
   1.2413380e+03   8.2292800e-01
   1.2418200e+03   5.9823500e-01
   1.2423020e+03   1.0137200e-01
   1.2427850e+03   3.4102999e-02
   1.2432670e+03   8.6586997e-02
   1.2437490e+03   7.0472002e-02
   1.2442310e+03   3.5223900e-01
   1.2447130e+03   5.7603000e-01
   1.2451950e+03   6.3685600e-01
   1.2456770e+03   5.9797000e-01
   1.2461590e+03   3.3569800e-01
   1.2466410e+03   5.1460002e-02
   1.2471240e+03   1.5334800e-01
   1.2476060e+03   7.1593300e-01
   1.2480880e+03   7.2912300e-01
   1.2485700e+03   1.8656500e-01
   1.2490520e+03   2.6062001e-02
   1.2495340e+03   3.6830999e-02
   1.2500160e+03   4.4259999e-02
   1.2504980e+03   4.6435500e-01
   1.2509800e+03   8.2782800e-01
   1.2514630e+03   7.4689400e-01
   1.2519450e+03   2.3215300e-01
   1.2524270e+03   1.2592100e-01
   1.2529090e+03   4.2745700e-01
   1.2533910e+03   7.0977500e-01
   1.2538730e+03   5.6821900e-01
   1.2543550e+03   4.5264400e-01
   1.2548370e+03   5.2499600e-01
   1.2553200e+03   6.7723900e-01
   1.2558020e+03   8.7152900e-01
   1.2562840e+03   1.0755790e+00
   1.2567660e+03   1.0478540e+00
   1.2572480e+03   8.3889600e-01
   1.2577300e+03   6.2188600e-01
   1.2582120e+03   7.0622900e-01
   1.2586940e+03   6.4456000e-01
   1.2591770e+03   1.8395900e-01
   1.2596590e+03   1.8503900e-01
   1.2601410e+03   7.4937001e-02
   1.2606230e+03   4.6988800e-01
   1.2611050e+03   7.9735700e-01
   1.2615870e+03   9.3653600e-01
   1.2620690e+03   9.8182600e-01
   1.2625510e+03   8.5515600e-01
   1.2630330e+03   8.5082400e-01
   1.2635160e+03   1.0311520e+00
   1.2639980e+03   1.2418300e+00
   1.2644800e+03   1.1962320e+00
   1.2649620e+03   9.7555500e-01
   1.2654440e+03   6.8727100e-01
   1.2659260e+03   4.5378100e-01
   1.2664080e+03   3.4081400e-01
   1.2668900e+03   4.3119300e-01
   1.2673720e+03   6.2283500e-01
   1.2678550e+03   8.8433300e-01
   1.2683370e+03   1.0938350e+00
   1.2688190e+03   1.2123960e+00
   1.2693010e+03   1.2028110e+00
   1.2697830e+03   8.7981200e-01
   1.2702650e+03   3.9918900e-01
   1.2707470e+03   2.0181400e-01
   1.2712290e+03   5.4849900e-01
   1.2717120e+03   5.8880700e-01
   1.2721940e+03   3.7891800e-01
   1.2726760e+03   2.8466100e-01
   1.2731580e+03   6.2568700e-01
   1.2736400e+03   1.0002070e+00
   1.2741220e+03   1.0811860e+00
   1.2746040e+03   9.6139600e-01
   1.2750860e+03   8.5905500e-01
   1.2755680e+03   8.0511100e-01
   1.2760510e+03   5.8498700e-01
   1.2765330e+03   1.5405600e-01
   1.2770150e+03   4.2475000e-02
   1.2774970e+03   6.2710800e-01
   1.2779790e+03   1.2343800e+00
   1.2784610e+03   1.0447130e+00
   1.2789430e+03   5.3877500e-01
   1.2794250e+03   3.1052300e-01
   1.2799070e+03   3.5430800e-01
   1.2803900e+03   2.4914600e-01
   1.2808720e+03   1.4770400e-01
   1.2813540e+03   6.9583997e-02
   1.2818360e+03   1.0273300e-01
   1.2823180e+03   1.2812600e-01
   1.2828000e+03   6.6145003e-02
   1.2832820e+03   0.0000000e+00
   1.5000000e+03   0.0000000e+00
