   1.0000000e+02   0.0000000e+00
   1.3326990e+02   0.0000000e+00
   1.3375200e+02   4.6160900e-01
   1.3423410e+02   7.9464700e-01
   1.3471620e+02   4.3888550e+00
   1.3519830e+02   1.4936490e+01
   1.3568040e+02   2.3222720e+01
   1.3616260e+02   2.7628170e+01
   1.3664470e+02   3.0478520e+01
   1.3712680e+02   3.6396060e+01
   1.3760890e+02   4.5521420e+01
   1.3809100e+02   5.6159850e+01
   1.3857310e+02   6.7128780e+01
   1.3905530e+02   7.8552430e+01
   1.3953740e+02   9.0661190e+01
   1.4001950e+02   1.0462580e+02
   1.4050160e+02   1.1899520e+02
   1.4098370e+02   1.2607310e+02
   1.4146580e+02   1.2063940e+02
   1.4194800e+02   1.1625330e+02
   1.4243010e+02   1.2368690e+02
   1.4291220e+02   1.5201690e+02
   1.4339430e+02   1.7237270e+02
   1.4387640e+02   1.7798690e+02
   1.4435850e+02   1.6921810e+02
   1.4484070e+02   1.6912370e+02
   1.4532280e+02   1.8242970e+02
   1.4580490e+02   2.0079300e+02
   1.4628700e+02   2.1644040e+02
   1.4676910e+02   2.2762560e+02
   1.4725120e+02   2.3808820e+02
   1.4773340e+02   2.4901740e+02
   1.4821550e+02   2.6161540e+02
   1.4869760e+02   2.6981290e+02
   1.4917970e+02   2.7503640e+02
   1.4966180e+02   2.7562920e+02
   1.5014390e+02   2.6871560e+02
   1.5062610e+02   2.5092680e+02
   1.5110820e+02   2.2912870e+02
   1.5159030e+02   2.0433170e+02
   1.5207240e+02   1.7438890e+02
   1.5255450e+02   1.4653910e+02
   1.5303660e+02   1.1889900e+02
   1.5351880e+02   9.3906250e+01
   1.5400090e+02   7.6416140e+01
   1.5448300e+02   7.2045650e+01
   1.5496510e+02   7.1513980e+01
   1.5544720e+02   7.0907840e+01
   1.5592930e+02   7.0618900e+01
   1.5641150e+02   6.8877010e+01
   1.5689360e+02   6.5354610e+01
   1.5737570e+02   6.0109860e+01
   1.5785780e+02   5.3379580e+01
   1.5833990e+02   4.0841190e+01
   1.5882210e+02   2.9371030e+01
   1.5930420e+02   2.3380430e+01
   1.5978630e+02   3.1295290e+01
   1.6026840e+02   3.7633790e+01
   1.6075050e+02   3.5646610e+01
   1.6123260e+02   2.6456670e+01
   1.6171480e+02   1.8698610e+01
   1.6219690e+02   1.7176880e+01
   1.6267900e+02   1.8351140e+01
   1.6316110e+02   1.8814760e+01
   1.6364320e+02   1.8292180e+01
   1.6412530e+02   1.6138370e+01
   1.6460750e+02   1.0014590e+01
   1.6508960e+02   2.3199500e-01
   1.6557170e+02   6.8933110e+00
   1.6605380e+02   1.8545530e+00
   1.6653590e+02   8.8333740e+00
   1.6701800e+02   1.6516970e+01
   1.6750020e+02   1.4413450e+01
   1.6798230e+02   1.0045780e+01
   1.6846440e+02   9.2277220e+00
   1.6894650e+02   1.2728030e+01
   1.6942860e+02   1.7409610e+01
   1.6991070e+02   2.2317080e+01
   1.7039290e+02   2.6728150e+01
   1.7087500e+02   2.9308900e+01
   1.7135710e+02   2.8234010e+01
   1.7183920e+02   2.5482790e+01
   1.7232130e+02   2.2609310e+01
   1.7280340e+02   1.9590330e+01
   1.7328560e+02   1.7532350e+01
   1.7376770e+02   1.7536620e+01
   1.7424980e+02   1.9410830e+01
   1.7473190e+02   2.2444580e+01
   1.7521400e+02   2.8616760e+01
   1.7569610e+02   3.5166560e+01
   1.7617830e+02   3.7139280e+01
   1.7666040e+02   3.1915530e+01
   1.7714250e+02   2.4875610e+01
   1.7762460e+02   2.2870850e+01
   1.7810670e+02   2.5302800e+01
   1.7858880e+02   2.8257570e+01
   1.7907100e+02   2.8581730e+01
   1.7955310e+02   2.7297910e+01
   1.8003520e+02   2.6714970e+01
   1.8051730e+02   2.7798160e+01
   1.8099940e+02   2.9397030e+01
   1.8148150e+02   2.9153690e+01
   1.8196370e+02   2.7146910e+01
   1.8244580e+02   2.5460210e+01
   1.8292790e+02   2.6073430e+01
   1.8341000e+02   2.8555420e+01
   1.8389210e+02   3.1238890e+01
   1.8437420e+02   3.3164980e+01
   1.8485640e+02   3.5207640e+01
   1.8533850e+02   4.0001220e+01
   1.8582060e+02   4.7832210e+01
   1.8630270e+02   5.5599790e+01
   1.8678480e+02   5.9244810e+01
   1.8726690e+02   5.9424070e+01
   1.8774910e+02   6.1419560e+01
   1.8823120e+02   6.9016660e+01
   1.8871330e+02   7.9914250e+01
   1.8919540e+02   8.4727910e+01
   1.8967750e+02   8.2415280e+01
   1.9015960e+02   7.8486210e+01
   1.9064180e+02   7.8895690e+01
   1.9112390e+02   8.2641110e+01
   1.9160600e+02   8.9664370e+01
   1.9208810e+02   1.0014500e+02
   1.9257020e+02   1.1385270e+02
   1.9305240e+02   1.3003100e+02
   1.9353450e+02   1.4983170e+02
   1.9401660e+02   1.6897690e+02
   1.9449870e+02   1.7765750e+02
   1.9498080e+02   1.7489540e+02
   1.9546290e+02   1.7638950e+02
   1.9594510e+02   1.9300540e+02
   1.9642720e+02   2.2453890e+02
   1.9690930e+02   2.4718840e+02
   1.9739140e+02   2.5909080e+02
   1.9787350e+02   2.6386540e+02
   1.9835560e+02   2.6775710e+02
   1.9883780e+02   2.7079850e+02
   1.9931990e+02   2.7267020e+02
   1.9980200e+02   2.7503330e+02
   2.0028410e+02   2.7848410e+02
   2.0076620e+02   2.7238460e+02
   2.0124830e+02   2.5424630e+02
   2.0173050e+02   2.2794160e+02
   2.0221260e+02   2.0237380e+02
   2.0269470e+02   1.7756360e+02
   2.0317680e+02   1.5341720e+02
   2.0365890e+02   1.2979720e+02
   2.0414100e+02   1.0689220e+02
   2.0462320e+02   8.4268920e+01
   2.0510530e+02   6.0820800e+01
   2.0558740e+02   3.7916870e+01
   2.0606950e+02   2.2345520e+01
   2.0655160e+02   1.5904850e+01
   2.0703370e+02   1.3818790e+01
   2.0751590e+02   1.4233030e+01
   2.0799800e+02   1.8378170e+01
   2.0848010e+02   1.8604250e+01
   2.0896220e+02   1.2210630e+01
   2.0944430e+02   1.0317990e+00
   2.0992640e+02   4.0632930e+00
   2.1040860e+02   1.3905640e+00
   2.1089070e+02   4.0103760e+00
   2.1137280e+02   8.6932370e+00
   2.1185490e+02   1.3001950e+01
   2.1233700e+02   1.5559570e+01
   2.1281910e+02   1.6024660e+01
   2.1330130e+02   1.4701970e+01
   2.1378340e+02   1.2429930e+01
   2.1426550e+02   8.0607910e+00
   2.1474760e+02   3.7620850e+00
   2.1522970e+02   1.9476930e+00
   2.1571180e+02   3.6500850e+00
   2.1619400e+02   5.9254150e+00
   2.1667610e+02   7.4777220e+00
   2.1715820e+02   8.2919310e+00
   2.1764030e+02   1.4001710e+01
   2.1812240e+02   2.6942570e+01
   2.1860450e+02   4.0516360e+01
   2.1908670e+02   4.8802430e+01
   2.1956880e+02   4.9236630e+01
   2.2005090e+02   5.0776370e+01
   2.2053300e+02   5.5532530e+01
   2.2101510e+02   6.3669250e+01
   2.2149720e+02   7.1355350e+01
   2.2197940e+02   7.8294860e+01
   2.2246150e+02   8.4271850e+01
   2.2294360e+02   8.8537170e+01
   2.2342570e+02   8.7930240e+01
   2.2390780e+02   9.3107120e+01
   2.2438990e+02   1.0905790e+02
   2.2487210e+02   1.3760160e+02
   2.2535420e+02   1.5491680e+02
   2.2583630e+02   1.5387460e+02
   2.2631840e+02   1.4852570e+02
   2.2680050e+02   1.5768000e+02
   2.2728270e+02   1.9331050e+02
   2.2776480e+02   2.2014110e+02
   2.2824690e+02   2.2607090e+02
   2.2872900e+02   2.0705840e+02
   2.2921110e+02   1.9919490e+02
   2.2969320e+02   2.0876100e+02
   2.3017540e+02   2.2445760e+02
   2.3065750e+02   2.3150620e+02
   2.3113960e+02   2.2626030e+02
   2.3162170e+02   2.1862040e+02
   2.3210380e+02   2.1097030e+02
   2.3258590e+02   2.0337190e+02
   2.3306810e+02   1.9504130e+02
   2.3355020e+02   1.8375070e+02
   2.3403230e+02   1.7333530e+02
   2.3451440e+02   1.7002800e+02
   2.3499650e+02   1.7863130e+02
   2.3547860e+02   1.8620440e+02
   2.3596080e+02   1.8782710e+02
   2.3644290e+02   1.8101150e+02
   2.3692500e+02   1.8011620e+02
   2.3740710e+02   1.8878850e+02
   2.3788920e+02   2.0112390e+02
   2.3837130e+02   2.0685080e+02
   2.3885350e+02   1.9953200e+02
   2.3933560e+02   1.9650100e+02
   2.3981770e+02   2.0520600e+02
   2.4029980e+02   2.3098650e+02
   2.4078190e+02   2.4753410e+02
   2.4126400e+02   2.5070190e+02
   2.4174620e+02   2.4733580e+02
   2.4222830e+02   2.5013960e+02
   2.4271040e+02   2.6566640e+02
   2.4319250e+02   2.7655200e+02
   2.4367460e+02   2.7627030e+02
   2.4415670e+02   2.6138480e+02
   2.4463890e+02   2.4702400e+02
   2.4512100e+02   2.3451390e+02
   2.4560310e+02   2.2177800e+02
   2.4608520e+02   2.0413560e+02
   2.4656730e+02   1.7598900e+02
   2.4704940e+02   1.5258510e+02
   2.4753160e+02   1.4146110e+02
   2.4801370e+02   1.4931950e+02
   2.4849580e+02   1.4600120e+02
   2.4897790e+02   1.2630060e+02
   2.4946000e+02   9.8344670e+01
   2.4994210e+02   7.7496220e+01
   2.5042430e+02   6.5524230e+01
   2.5090640e+02   5.7210750e+01
   2.5138850e+02   5.0750730e+01
   2.5187060e+02   4.5927860e+01
   2.5235270e+02   4.4163820e+01
   2.5283480e+02   4.7735470e+01
   2.5331700e+02   5.2957700e+01
   2.5379910e+02   5.2117740e+01
   2.5428120e+02   4.1744630e+01
   2.5476330e+02   3.1976750e+01
   2.5524540e+02   2.6964540e+01
   2.5572750e+02   2.8371280e+01
   2.5620970e+02   2.8536740e+01
   2.5669180e+02   2.7276790e+01
   2.5717390e+02   2.4896550e+01
   2.5765600e+02   2.1474670e+01
   2.5813810e+02   1.5623170e+01
   2.5862020e+02   1.1622990e+01
   2.5910240e+02   1.1847050e+01
   2.5958450e+02   1.7986820e+01
   2.6006660e+02   2.1427920e+01
   2.6054870e+02   2.2315920e+01
   2.6103080e+02   2.0373840e+01
   2.6151290e+02   1.3289610e+01
   2.6199510e+02   3.3748170e+00
   2.6247720e+02   1.4352170e+01
   2.6295930e+02   1.0945010e+01
   2.6344140e+02   1.1932500e+01
   2.6392350e+02   2.4573970e+01
   2.6440560e+02   2.4236760e+01
   2.6488780e+02   1.6329960e+01
   2.6536990e+02   9.0355830e+00
   2.6585200e+02   7.2332800e-01
   2.6633410e+02   2.4071660e+00
   2.6681620e+02   4.3010250e+00
   2.6729830e+02   2.3389340e+01
   2.6778050e+02   3.5590150e+01
   2.6826260e+02   4.0189090e+01
   2.6874470e+02   3.8625370e+01
   2.6922680e+02   3.2016420e+01
   2.6970890e+02   1.8666380e+01
   2.7019100e+02   6.3610840e+00
   2.7067320e+02   2.4014890e+00
   2.7115530e+02   7.5630490e+00
   2.7163740e+02   8.1727910e+00
   2.7211950e+02   2.1129760e+00
   2.7260160e+02   5.3947140e+00
   2.7308370e+02   4.4577030e+00
   2.7356590e+02   6.7928470e+00
   2.7404800e+02   1.6491090e+01
   2.7453010e+02   2.0955440e+01
   2.7501220e+02   2.0506710e+01
   2.7549430e+02   1.4376100e+01
   2.7597640e+02   2.6355000e-01
   2.7645860e+02   1.5283690e+01
   2.7694070e+02   2.2318360e+01
   2.7742280e+02   2.0328490e+01
   2.7790490e+02   1.4715090e+01
   2.7838700e+02   5.0238040e+00
   2.7886910e+02   8.2246090e+00
   2.7935130e+02   1.4170100e+01
   2.7983340e+02   1.1465150e+01
   2.8031550e+02   4.9246830e+00
   2.8079760e+02   7.3596200e-01
   2.8127980e+02   1.1457520e+00
   2.8176190e+02   3.1308590e+00
   2.8224400e+02   5.3464360e+00
   2.8272610e+02   7.7625730e+00
   2.8320820e+02   1.2014770e+01
   2.8369030e+02   1.8778320e+01
   2.8417250e+02   2.5367310e+01
   2.8465460e+02   2.8600710e+01
   2.8513670e+02   2.8500370e+01
   2.8561880e+02   2.6402590e+01
   2.8610090e+02   2.1292720e+01
   2.8658300e+02   1.4422000e+01
   2.8706520e+02   1.1583740e+01
   2.8754730e+02   1.3194700e+01
   2.8802940e+02   1.6490840e+01
   2.8851150e+02   1.7850100e+01
   2.8899360e+02   1.8068970e+01
   2.8947570e+02   2.1097170e+01
   2.8995790e+02   2.9806270e+01
   2.9044000e+02   4.1171390e+01
   2.9092210e+02   4.7987920e+01
   2.9140420e+02   5.0379030e+01
   2.9188630e+02   4.8760620e+01
   2.9236840e+02   3.8887080e+01
   2.9285060e+02   2.3776000e+01
   2.9333270e+02   1.6789790e+01
   2.9381480e+02   2.7033200e+01
   2.9429690e+02   4.5117070e+01
   2.9477900e+02   5.1723750e+01
   2.9526110e+02   4.6844850e+01
   2.9574330e+02   4.0393680e+01
   2.9622540e+02   4.1979860e+01
   2.9670750e+02   4.9102540e+01
   2.9718960e+02   5.3861330e+01
   2.9767170e+02   5.1389890e+01
   2.9815380e+02   4.7544920e+01
   2.9863600e+02   5.2347050e+01
   2.9911810e+02   6.5230590e+01
   2.9960020e+02   7.8694580e+01
   3.0008230e+02   8.7859010e+01
   3.0056440e+02   9.3549800e+01
   3.0104650e+02   9.7424930e+01
   3.0152870e+02   9.9975340e+01
   3.0201080e+02   1.0201980e+02
   3.0249290e+02   1.0277800e+02
   3.0297500e+02   1.0247020e+02
   3.0345710e+02   1.0346300e+02
   3.0393920e+02   1.0561400e+02
   3.0442140e+02   1.1076210e+02
   3.0490350e+02   1.2251510e+02
   3.0538560e+02   1.4568160e+02
   3.0586770e+02   1.6919870e+02
   3.0634980e+02   1.8214650e+02
   3.0683190e+02   1.8663680e+02
   3.0731410e+02   1.9042250e+02
   3.0779620e+02   1.9882460e+02
   3.0827830e+02   2.0854740e+02
   3.0876040e+02   2.1563500e+02
   3.0924250e+02   2.1898080e+02
   3.0972460e+02   2.2191520e+02
   3.1020680e+02   2.2709380e+02
   3.1068890e+02   2.3357470e+02
   3.1117100e+02   2.3907740e+02
   3.1165310e+02   2.4615260e+02
   3.1213520e+02   2.4984330e+02
   3.1261730e+02   2.4413750e+02
   3.1309950e+02   2.2498230e+02
   3.1358160e+02   2.0809920e+02
   3.1406370e+02   2.0413330e+02
   3.1454580e+02   2.0726610e+02
   3.1502790e+02   2.0650320e+02
   3.1551000e+02   1.9618400e+02
   3.1599220e+02   1.8195290e+02
   3.1647430e+02   1.6552310e+02
   3.1695640e+02   1.4585270e+02
   3.1743850e+02   1.2950400e+02
   3.1792060e+02   1.1918360e+02
   3.1840270e+02   1.1348180e+02
   3.1888490e+02   1.1035780e+02
   3.1936700e+02   1.1695470e+02
   3.1984910e+02   1.1911800e+02
   3.2033120e+02   1.0782690e+02
   3.2081330e+02   7.9544560e+01
   3.2129540e+02   6.0452390e+01
   3.2177760e+02   6.0776370e+01
   3.2225970e+02   6.9907960e+01
   3.2274180e+02   7.6541260e+01
   3.2322390e+02   7.8451540e+01
   3.2370600e+02   7.8288570e+01
   3.2418810e+02   7.6661620e+01
   3.2467030e+02   7.3924930e+01
   3.2515240e+02   6.8932010e+01
   3.2563450e+02   5.8245240e+01
   3.2611660e+02   4.7101930e+01
   3.2659870e+02   3.9637450e+01
   3.2708080e+02   3.8173710e+01
   3.2756300e+02   3.7698610e+01
   3.2804510e+02   3.8199100e+01
   3.2852720e+02   3.9410400e+01
   3.2900930e+02   3.9636600e+01
   3.2949140e+02   4.0953250e+01
   3.2997350e+02   4.0080930e+01
   3.3045570e+02   3.3909790e+01
   3.3093780e+02   1.5830320e+01
   3.3141990e+02   3.1394040e+00
   3.3190200e+02   1.6551510e+00
   3.3238410e+02   3.0847200e-01
   3.3286620e+02   3.0108640e+00
   3.3334840e+02   8.0699460e+00
   3.3383050e+02   1.2439210e+01
   3.3431260e+02   1.2867430e+01
   3.3479470e+02   6.5253910e+00
   3.3527680e+02   4.7896730e+00
   3.3575890e+02   1.0188230e+01
   3.3624110e+02   1.9415770e+01
   3.3672320e+02   2.3899050e+01
   3.3720530e+02   2.3337890e+01
   3.3768740e+02   2.0104610e+01
   3.3816950e+02   1.3655150e+01
   3.3865160e+02   2.8922120e+00
   3.3913380e+02   2.2120360e+00
   3.3961590e+02   5.9265100e-01
   3.4009800e+02   5.2969970e+00
   3.4058010e+02   1.2623780e+01
   3.4106220e+02   2.1928470e+01
   3.4154430e+02   2.8362180e+01
   3.4202650e+02   2.9215940e+01
   3.4250860e+02   2.5049320e+01
   3.4299070e+02   2.0676880e+01
   3.4347280e+02   1.5788330e+01
   3.4395490e+02   1.2030760e+01
   3.4443700e+02   1.3548830e+01
   3.4491920e+02   1.9481930e+01
   3.4540130e+02   2.1310060e+01
   3.4588340e+02   1.3136110e+01
   3.4636550e+02   5.1513700e-01
   3.4684760e+02   7.5725100e+00
   3.4732970e+02   7.9346920e+00
   3.4781190e+02   4.6463620e+00
   3.4829400e+02   1.0686040e+00
   3.4877610e+02   8.4083250e+00
   3.4925820e+02   1.4918330e+01
   3.4974030e+02   2.0505370e+01
   3.5022250e+02   2.4523320e+01
   3.5070460e+02   2.5181150e+01
   3.5118670e+02   2.2889770e+01
   3.5166880e+02   2.0708250e+01
   3.5215090e+02   2.2820800e+01
   3.5263310e+02   2.5947880e+01
   3.5311520e+02   2.4399170e+01
   3.5359730e+02   1.4363160e+01
   3.5407940e+02   4.1739500e+00
   3.5456150e+02   2.1716310e+00
   3.5504360e+02   6.3304440e+00
   3.5552580e+02   1.0480350e+01
   3.5600790e+02   1.1172000e+01
   3.5649000e+02   1.0408200e+01
   3.5697210e+02   1.0576170e+01
   3.5745420e+02   1.3177860e+01
   3.5793630e+02   1.2858520e+01
   3.5841850e+02   1.8319090e+00
   3.5890060e+02   1.3651250e+01
   3.5938270e+02   2.2780520e+01
   3.5986480e+02   1.5434940e+01
   3.6034690e+02   5.3334960e+00
   3.6082900e+02   8.0570001e-03
   3.6131120e+02   8.2373000e-01
   3.6179330e+02   6.1926300e-01
   3.6227540e+02   4.9686280e+00
   3.6275750e+02   1.2025760e+01
   3.6323960e+02   1.6321660e+01
   3.6372170e+02   1.6095340e+01
   3.6420390e+02   1.3750120e+01
   3.6468600e+02   7.2039790e+00
   3.6516810e+02   3.5858150e+00
   3.6565020e+02   7.3254390e+00
   3.6613230e+02   5.9223630e+00
   3.6661440e+02   2.1342650e+01
   3.6709660e+02   2.8727660e+01
   3.6757870e+02   2.1411870e+01
   3.6806080e+02   1.3623170e+01
   3.6854290e+02   3.6372070e+00
   3.6902500e+02   6.9732670e+00
   3.6950710e+02   9.5761720e+00
   3.6998930e+02   2.1806640e+00
   3.7047140e+02   1.4532230e+01
   3.7095350e+02   2.0447270e+01
   3.7143560e+02   1.5763060e+01
   3.7191770e+02   1.4337890e+01
   3.7239980e+02   1.8753300e+01
   3.7288200e+02   2.5296880e+01
   3.7336410e+02   2.4079960e+01
   3.7384620e+02   1.0425290e+01
   3.7432830e+02   1.2465820e+00
   3.7481040e+02   5.9167480e+00
   3.7529250e+02   2.6406010e+01
   3.7577470e+02   3.7403200e+01
   3.7625680e+02   3.7053960e+01
   3.7673890e+02   3.1106200e+01
   3.7722100e+02   2.5564210e+01
   3.7770310e+02   2.0158200e+01
   3.7818520e+02   1.9376590e+01
   3.7866740e+02   2.6653930e+01
   3.7914950e+02   3.9537110e+01
   3.7963160e+02   4.8026980e+01
   3.8011370e+02   5.1888670e+01
   3.8059580e+02   5.2748660e+01
   3.8107790e+02   5.0172000e+01
   3.8156010e+02   4.5167720e+01
   3.8204220e+02   4.2811400e+01
   3.8252430e+02   4.4415280e+01
   3.8300640e+02   4.8937130e+01
   3.8348850e+02   5.6234990e+01
   3.8397060e+02   6.5823610e+01
   3.8445280e+02   7.3547730e+01
   3.8493490e+02   7.5621340e+01
   3.8541700e+02   7.4291870e+01
   3.8589910e+02   7.3778810e+01
   3.8638120e+02   7.5400020e+01
   3.8686330e+02   7.5637570e+01
   3.8734550e+02   6.8823120e+01
   3.8782760e+02   5.8010990e+01
   3.8830970e+02   5.0115230e+01
   3.8879180e+02   5.0800780e+01
   3.8927390e+02   5.4142210e+01
   3.8975600e+02   5.5257200e+01
   3.9023820e+02   5.3822390e+01
   3.9072030e+02   5.4521240e+01
   3.9120240e+02   6.3461180e+01
   3.9168450e+02   7.4581300e+01
   3.9216660e+02   8.1074580e+01
   3.9264870e+02   7.2880000e+01
   3.9313090e+02   6.6739260e+01
   3.9361300e+02   7.1243040e+01
   3.9409510e+02   8.5410640e+01
   3.9457720e+02   9.7713870e+01
   3.9505930e+02   1.0310070e+02
   3.9554140e+02   1.0707580e+02
   3.9602360e+02   1.1302090e+02
   3.9650570e+02   1.2660970e+02
   3.9698780e+02   1.3555700e+02
   3.9746990e+02   1.3566810e+02
   3.9795200e+02   1.3032320e+02
   3.9843410e+02   1.2956740e+02
   3.9891630e+02   1.3700670e+02
   3.9939840e+02   1.4511740e+02
   3.9988050e+02   1.5144480e+02
   4.0036260e+02   1.5598890e+02
   4.0084470e+02   1.5842570e+02
   4.0132680e+02   1.5666780e+02
   4.0180900e+02   1.5434140e+02
   4.0229110e+02   1.5713620e+02
   4.0277320e+02   1.6719060e+02
   4.0325530e+02   1.7656670e+02
   4.0373740e+02   1.8241740e+02
   4.0421950e+02   1.8477230e+02
   4.0470170e+02   1.9126650e+02
   4.0518380e+02   2.0437780e+02
   4.0566590e+02   2.1668310e+02
   4.0614800e+02   2.1827360e+02
   4.0663010e+02   2.0872690e+02
   4.0711220e+02   2.0817150e+02
   4.0759440e+02   2.2291670e+02
   4.0807650e+02   2.4593590e+02
   4.0855860e+02   2.5918410e+02
   4.0904070e+02   2.6292100e+02
   4.0952280e+02   2.6744080e+02
   4.1000490e+02   2.8133480e+02
   4.1048710e+02   3.0121480e+02
   4.1096920e+02   3.1787930e+02
   4.1145130e+02   3.3028860e+02
   4.1193340e+02   3.3994680e+02
   4.1241550e+02   3.4646240e+02
   4.1289760e+02   3.5181650e+02
   4.1337980e+02   3.6084940e+02
   4.1386190e+02   3.8225260e+02
   4.1434400e+02   4.0478500e+02
   4.1482610e+02   4.1653560e+02
   4.1530820e+02   4.1729420e+02
   4.1579030e+02   4.1380910e+02
   4.1627250e+02   4.0443730e+02
   4.1675460e+02   3.9464750e+02
   4.1723670e+02   3.9172380e+02
   4.1771880e+02   4.0261740e+02
   4.1820090e+02   4.1787320e+02
   4.1868300e+02   4.3481840e+02
   4.1916520e+02   4.5244040e+02
   4.1964730e+02   4.6770630e+02
   4.2012940e+02   4.8081740e+02
   4.2061150e+02   4.9074600e+02
   4.2109370e+02   4.9638820e+02
   4.2157580e+02   4.9434770e+02
   4.2205790e+02   4.9474940e+02
   4.2254000e+02   5.0237450e+02
   4.2302210e+02   5.1214230e+02
   4.2350420e+02   5.1641000e+02
   4.2398640e+02   5.0769980e+02
   4.2446850e+02   5.0271810e+02
   4.2495060e+02   5.0634060e+02
   4.2543270e+02   5.1931850e+02
   4.2591480e+02   5.3090590e+02
   4.2639690e+02   5.4247780e+02
   4.2687910e+02   5.5050820e+02
   4.2736120e+02   5.5198850e+02
   4.2784330e+02   5.4604590e+02
   4.2832540e+02   5.3862110e+02
   4.2880750e+02   5.2938170e+02
   4.2928960e+02   5.1955200e+02
   4.2977180e+02   5.1358500e+02
   4.3025390e+02   5.1207960e+02
   4.3073600e+02   5.1279020e+02
   4.3121810e+02   5.1633950e+02
   4.3170020e+02   5.2253640e+02
   4.3218230e+02   5.2078390e+02
   4.3266450e+02   5.0876310e+02
   4.3314660e+02   4.9582260e+02
   4.3362870e+02   4.9848470e+02
   4.3411080e+02   5.1306160e+02
   4.3459290e+02   5.2063070e+02
   4.3507500e+02   5.0610050e+02
   4.3555720e+02   4.8278230e+02
   4.3603930e+02   4.7724850e+02
   4.3652140e+02   4.8919850e+02
   4.3700350e+02   4.9952670e+02
   4.3748560e+02   4.8963530e+02
   4.3796770e+02   4.6959410e+02
   4.3844990e+02   4.5435250e+02
   4.3893200e+02   4.5080910e+02
   4.3941410e+02   4.4748280e+02
   4.3989620e+02   4.3396440e+02
   4.4037830e+02   4.1444560e+02
   4.4086040e+02   3.9849270e+02
   4.4134260e+02   3.9293440e+02
   4.4182470e+02   3.8950160e+02
   4.4230680e+02   3.8419980e+02
   4.4278890e+02   3.7672910e+02
   4.4327100e+02   3.6794340e+02
   4.4375310e+02   3.5690160e+02
   4.4423530e+02   3.4513390e+02
   4.4471740e+02   3.3415430e+02
   4.4519950e+02   3.2487880e+02
   4.4568160e+02   3.1578600e+02
   4.4616370e+02   3.0622730e+02
   4.4664580e+02   2.9642690e+02
   4.4712800e+02   2.8801890e+02
   4.4761010e+02   2.8107760e+02
   4.4809220e+02   2.7543430e+02
   4.4857430e+02   2.7209530e+02
   4.4905640e+02   2.7492830e+02
   4.4953850e+02   2.6867350e+02
   4.5002070e+02   2.4912300e+02
   4.5050280e+02   2.2386950e+02
   4.5098490e+02   2.0833910e+02
   4.5146700e+02   2.0473960e+02
   4.5194910e+02   2.0030000e+02
   4.5243120e+02   1.8903120e+02
   4.5291340e+02   1.7271060e+02
   4.5339550e+02   1.6276430e+02
   4.5387760e+02   1.5973600e+02
   4.5435970e+02   1.5695810e+02
   4.5484180e+02   1.4555000e+02
   4.5532390e+02   1.2861330e+02
   4.5580610e+02   1.2057870e+02
   4.5628820e+02   1.2811060e+02
   4.5677030e+02   1.4046790e+02
   4.5725240e+02   1.4452500e+02
   4.5773450e+02   1.4224770e+02
   4.5821660e+02   1.3824600e+02
   4.5869880e+02   1.3667350e+02
   4.5918090e+02   1.3408670e+02
   4.5966300e+02   1.2485350e+02
   4.6014510e+02   1.0703970e+02
   4.6062720e+02   9.2232540e+01
   4.6110930e+02   9.1417720e+01
   4.6159150e+02   9.6790770e+01
   4.6207360e+02   9.9071410e+01
   4.6255570e+02   8.9517820e+01
   4.6303780e+02   8.0948970e+01
   4.6351990e+02   8.0038330e+01
   4.6400200e+02   8.5965330e+01
   4.6448420e+02   8.9015870e+01
   4.6496630e+02   8.5597900e+01
   4.6544840e+02   7.9924320e+01
   4.6593050e+02   7.4251100e+01
   4.6641260e+02   6.9810420e+01
   4.6689470e+02   6.2937010e+01
   4.6737690e+02   4.8500000e+01
   4.6785900e+02   3.3940430e+01
   4.6834110e+02   3.2924560e+01
   4.6882320e+02   5.5423580e+01
   4.6930530e+02   7.1290280e+01
   4.6978740e+02   7.0044680e+01
   4.7026960e+02   5.2970340e+01
   4.7075170e+02   4.6030640e+01
   4.7123380e+02   5.1039550e+01
   4.7171590e+02   5.7059200e+01
   4.7219800e+02   5.6360470e+01
   4.7268010e+02   5.0213130e+01
   4.7316230e+02   4.0249020e+01
   4.7364440e+02   2.4668700e+01
   4.7412650e+02   9.2375490e+00
   4.7460860e+02   4.2709960e+00
   4.7509070e+02   8.8333740e+00
   4.7557280e+02   1.6846800e+01
   4.7605500e+02   2.7408940e+01
   4.7653710e+02   3.8610350e+01
   4.7701920e+02   4.7764160e+01
   4.7750130e+02   5.4851200e+01
   4.7798340e+02   5.8864750e+01
   4.7846550e+02   5.8692630e+01
   4.7894770e+02   5.5068360e+01
   4.7942980e+02   4.8615110e+01
   4.7991190e+02   3.5041260e+01
   4.8039400e+02   2.4266600e+01
   4.8087610e+02   2.4439940e+01
   4.8135820e+02   3.1943120e+01
   4.8184040e+02   3.6371580e+01
   4.8232250e+02   3.0176270e+01
   4.8280460e+02   2.3571900e+01
   4.8328670e+02   2.1506710e+01
   4.8376880e+02   2.5990970e+01
   4.8425090e+02   3.0325200e+01
   4.8473310e+02   3.6349370e+01
   4.8521520e+02   3.9780640e+01
   4.8569730e+02   3.6978270e+01
   4.8617940e+02   2.3186160e+01
   4.8666150e+02   1.1068970e+01
   4.8714360e+02   1.3867190e+00
   4.8762580e+02   5.3813480e+00
   4.8810790e+02   5.6445310e+00
   4.8859000e+02   3.2996830e+00
   4.8907210e+02   1.1272710e+01
   4.8955420e+02   1.1226440e+01
   4.9003630e+02   3.0718990e+00
   4.9051850e+02   6.0974100e-01
   4.9100060e+02   1.2037350e+00
   4.9148270e+02   5.2211910e+00
   4.9196480e+02   8.7515870e+00
   4.9244700e+02   1.1325930e+01
   4.9292910e+02   9.6362300e+00
   4.9341120e+02   1.1514890e+00
   4.9389330e+02   1.3581180e+01
   4.9437540e+02   1.4853760e+01
   4.9485750e+02   6.3016360e+00
   4.9533970e+02   3.6949460e+00
   4.9582180e+02   1.3345950e+01
   4.9630390e+02   1.9880000e+01
   4.9678600e+02   1.8792110e+01
   4.9726810e+02   7.2445070e+00
   4.9775020e+02   3.0953370e+00
   4.9823240e+02   7.7054440e+00
   4.9871450e+02   6.9619140e+00
   4.9919660e+02   1.4346920e+00
   4.9967870e+02   1.6641360e+01
   5.0016080e+02   3.1486690e+01
   5.0064290e+02   3.7380980e+01
   5.0112510e+02   3.4711550e+01
   5.0160720e+02   3.1336060e+01
   5.0208930e+02   2.6496950e+01
   5.0257140e+02   2.2201900e+01
   5.0305350e+02   1.9275150e+01
   5.0353560e+02   1.7467290e+01
   5.0401780e+02   1.7950930e+01
   5.0449990e+02   2.2348390e+01
   5.0498200e+02   2.7538330e+01
   5.0546410e+02   2.8766480e+01
   5.0594620e+02   2.5567630e+01
   5.0642830e+02   2.0489990e+01
   5.0691050e+02   1.2591670e+01
   5.0739260e+02   3.7614750e+00
   5.0787470e+02   3.9592290e+00
   5.0835680e+02   1.3799070e+01
   5.0883890e+02   2.1354370e+01
   5.0932100e+02   1.4095580e+01
   5.0980320e+02   2.2109380e+00
   5.1028530e+02   1.1487550e+01
   5.1076740e+02   1.1125370e+01
   5.1124950e+02   6.3190920e+00
   5.1173160e+02   1.8588870e+00
   5.1221370e+02   1.0358760e+01
   5.1269590e+02   1.2891970e+01
   5.1317800e+02   4.0576170e+00
   5.1366010e+02   1.8717290e+01
   5.1414220e+02   1.2101680e+01
   5.1462430e+02   1.2362790e+01
   5.1510640e+02   3.0521480e+01
   5.1558860e+02   2.8989750e+01
   5.1607070e+02   2.0988400e+01
   5.1655280e+02   1.4173340e+01
   5.1703490e+02   9.2797850e+00
   5.1751700e+02   5.9877930e+00
   5.1799910e+02   6.4150390e+00
   5.1848130e+02   7.6129150e+00
   5.1896340e+02   5.2961430e+00
   5.1944550e+02   5.6500240e+00
   5.1992760e+02   1.1054570e+01
   5.2040970e+02   5.8872070e+00
   5.2089180e+02   7.6737060e+00
   5.2137400e+02   1.5856930e+01
   5.2185610e+02   1.7828000e+01
   5.2233820e+02   1.7180420e+01
   5.2282030e+02   1.5892210e+01
   5.2330240e+02   1.3953740e+01
   5.2378450e+02   1.0782840e+01
   5.2426670e+02   5.9324950e+00
   5.2474880e+02   1.3867190e+00
   5.2523090e+02   5.0744600e-01
   5.2571300e+02   1.2085000e-01
   5.2619510e+02   1.5965580e+00
   5.2667720e+02   7.7073970e+00
   5.2715940e+02   1.1772340e+01
   5.2764150e+02   7.6672400e-01
   5.2812360e+02   2.0972290e+01
   5.2860570e+02   3.4542240e+01
   5.2908780e+02   2.0654420e+01
   5.2956990e+02   9.5825002e-02
   5.3005210e+02   1.2132450e+01
   5.3053420e+02   1.2158690e+01
   5.3101630e+02   9.9117430e+00
   5.3149840e+02   5.0876460e+00
   5.3198050e+02   1.0386960e+00
   5.3246260e+02   1.2731930e+00
   5.3294480e+02   1.4743650e+01
   5.3342690e+02   2.2256710e+01
   5.3390900e+02   1.8340940e+01
   5.3439110e+02   6.5517580e+00
   5.3487320e+02   1.1444090e+00
   5.3535530e+02   4.9949950e+00
   5.3583750e+02   9.7905270e+00
   5.3631960e+02   1.1511840e+01
   5.3680170e+02   9.9360350e+00
   5.3728380e+02   1.1293330e+01
   5.3776590e+02   1.6395630e+01
   5.3824800e+02   2.1820920e+01
   5.3873020e+02   2.4539060e+01
   5.3921230e+02   2.4557130e+01
   5.3969440e+02   2.1205570e+01
   5.4017650e+02   1.3106810e+01
   5.4065860e+02   3.8469240e+00
   5.4114070e+02   4.1424560e+00
   5.4162290e+02   9.7093510e+00
   5.4210500e+02   8.9235840e+00
   5.4258710e+02   9.2365720e+00
   5.4306920e+02   2.8872800e+01
   5.4355130e+02   3.3013060e+01
   5.4403340e+02   2.0885620e+01
   5.4451560e+02   1.0648190e+01
   5.4499770e+02   1.2866700e+01
   5.4547980e+02   1.8840450e+01
   5.4596190e+02   2.2167480e+01
   5.4644400e+02   1.7575810e+01
   5.4692610e+02   1.7001220e+01
   5.4740830e+02   2.6250370e+01
   5.4789040e+02   3.9699830e+01
   5.4837250e+02   4.6758540e+01
   5.4885460e+02   4.3084590e+01
   5.4933670e+02   4.0781370e+01
   5.4981880e+02   4.2599240e+01
   5.5030100e+02   4.8340210e+01
   5.5078310e+02   5.7924320e+01
   5.5126520e+02   7.3983030e+01
   5.5174730e+02   8.3630860e+01
   5.5222940e+02   7.2591190e+01
   5.5271150e+02   4.4630250e+01
   5.5319370e+02   3.4107910e+01
   5.5367580e+02   4.5919190e+01
   5.5415790e+02   6.3658330e+01
   5.5464000e+02   6.5008300e+01
   5.5512210e+02   5.5614260e+01
   5.5560420e+02   5.1446900e+01
   5.5608640e+02   6.1973750e+01
   5.5656850e+02   7.6931400e+01
   5.5705060e+02   8.8166140e+01
   5.5753270e+02   9.5766600e+01
   5.5801480e+02   1.0001430e+02
   5.5849690e+02   9.6840090e+01
   5.5897910e+02   9.3648930e+01
   5.5946120e+02   9.4127440e+01
   5.5994330e+02   9.8200320e+01
   5.6042540e+02   1.0827760e+02
   5.6090750e+02   1.3124100e+02
   5.6138960e+02   1.5677650e+02
   5.6187180e+02   1.7609380e+02
   5.6235390e+02   1.8612730e+02
   5.6283600e+02   1.9456620e+02
   5.6331810e+02   1.9868860e+02
   5.6380020e+02   2.0299520e+02
   5.6428230e+02   2.2129130e+02
   5.6476450e+02   2.5742070e+02
   5.6524660e+02   2.8918740e+02
   5.6572870e+02   3.0375290e+02
   5.6621080e+02   3.0633180e+02
   5.6669290e+02   3.2327710e+02
   5.6717500e+02   3.5484610e+02
   5.6765720e+02   3.9150890e+02
   5.6813930e+02   4.2864180e+02
   5.6862140e+02   4.6447690e+02
   5.6910350e+02   4.9215860e+02
   5.6958560e+02   5.0959020e+02
   5.7006770e+02   5.2450930e+02
   5.7054990e+02   5.4130420e+02
   5.7103200e+02   5.6043460e+02
   5.7151410e+02   5.8269560e+02
   5.7199620e+02   6.0902930e+02
   5.7247830e+02   6.4121940e+02
   5.7296040e+02   6.8302400e+02
   5.7344260e+02   7.3156300e+02
   5.7392470e+02   7.7337790e+02
   5.7440680e+02   8.0545320e+02
   5.7488890e+02   8.3053670e+02
   5.7537100e+02   8.4866540e+02
   5.7585310e+02   8.5849220e+02
   5.7633530e+02   8.6763500e+02
   5.7681740e+02   8.7733200e+02
   5.7729950e+02   8.8394740e+02
   5.7778160e+02   8.8676860e+02
   5.7826370e+02   8.8736470e+02
   5.7874580e+02   8.7181880e+02
   5.7922800e+02   8.3275320e+02
   5.7971010e+02   7.8531510e+02
   5.8019220e+02   7.5648580e+02
   5.8067430e+02   7.4396460e+02
   5.8115640e+02   7.3475710e+02
   5.8163850e+02   7.1885770e+02
   5.8212070e+02   7.0497280e+02
   5.8260280e+02   7.0719140e+02
   5.8308490e+02   7.2377860e+02
   5.8356700e+02   7.4190380e+02
   5.8404910e+02   7.5192110e+02
   5.8453130e+02   7.6170780e+02
   5.8501340e+02   7.7992920e+02
   5.8549550e+02   8.1372170e+02
   5.8597760e+02   8.3522630e+02
   5.8645970e+02   8.3390530e+02
   5.8694180e+02   8.2051890e+02
   5.8742400e+02   8.0581990e+02
   5.8790610e+02   7.9524490e+02
   5.8838820e+02   7.7255640e+02
   5.8887030e+02   7.3366800e+02
   5.8935240e+02   6.8219650e+02
   5.8983450e+02   6.2697310e+02
   5.9031670e+02   5.6608470e+02
   5.9079880e+02   5.0837940e+02
   5.9128090e+02   4.5906370e+02
   5.9176300e+02   4.1673080e+02
   5.9224510e+02   3.7599300e+02
   5.9272720e+02   3.3674180e+02
   5.9320940e+02   3.0173110e+02
   5.9369150e+02   2.7807520e+02
   5.9417360e+02   2.5931310e+02
   5.9465570e+02   2.3021850e+02
   5.9513780e+02   1.8546140e+02
   5.9561990e+02   1.4509140e+02
   5.9610210e+02   1.2669070e+02
   5.9658420e+02   1.2168300e+02
   5.9706630e+02   1.1782840e+02
   5.9754850e+02   1.0863200e+02
   5.9803060e+02   1.0254050e+02
   5.9851270e+02   1.0490940e+02
   5.9899480e+02   1.1319920e+02
   5.9947690e+02   1.1682790e+02
   5.9995900e+02   1.1308950e+02
   6.0044120e+02   1.0836150e+02
   6.0092330e+02   1.0361760e+02
   6.0140540e+02   9.8711300e+01
   6.0188750e+02   9.5467900e+01
   6.0236960e+02   9.3203860e+01
   6.0285170e+02   9.4379390e+01
   6.0333390e+02   1.0510240e+02
   6.0381600e+02   1.2403200e+02
   6.0429810e+02   1.2899910e+02
   6.0478020e+02   1.1429550e+02
   6.0526230e+02   9.6754270e+01
   6.0574440e+02   1.0032960e+02
   6.0622660e+02   1.1902610e+02
   6.0670870e+02   1.3642940e+02
   6.0719080e+02   1.4452530e+02
   6.0767290e+02   1.5152990e+02
   6.0815500e+02   1.6577220e+02
   6.0863710e+02   1.8446310e+02
   6.0911930e+02   1.9931520e+02
   6.0960140e+02   1.9527500e+02
   6.1008350e+02   1.9683580e+02
   6.1056560e+02   2.1739140e+02
   6.1104770e+02   2.6014730e+02
   6.1152980e+02   3.0307080e+02
   6.1201200e+02   3.4191960e+02
   6.1249410e+02   3.8365160e+02
   6.1297620e+02   4.3329170e+02
   6.1345830e+02   4.9338530e+02
   6.1394040e+02   5.5107080e+02
   6.1442250e+02   6.0435420e+02
   6.1490470e+02   6.5780830e+02
   6.1538680e+02   7.1939750e+02
   6.1586890e+02   7.8899120e+02
   6.1635100e+02   8.5956860e+02
   6.1683310e+02   9.2929960e+02
   6.1731520e+02   9.9855520e+02
   6.1779740e+02   1.0660490e+03
   6.1827950e+02   1.1330490e+03
   6.1876160e+02   1.2078430e+03
   6.1924370e+02   1.2937970e+03
   6.1972580e+02   1.3896060e+03
   6.2020790e+02   1.5013340e+03
   6.2069010e+02   1.6283630e+03
   6.2117220e+02   1.7463230e+03
   6.2165430e+02   1.8422730e+03
   6.2213640e+02   1.9299380e+03
   6.2261850e+02   2.0171250e+03
   6.2310060e+02   2.1075010e+03
   6.2358280e+02   2.1944140e+03
   6.2406490e+02   2.2942440e+03
   6.2454700e+02   2.3755690e+03
   6.2502910e+02   2.4017100e+03
   6.2551120e+02   2.3691920e+03
   6.2599330e+02   2.2928030e+03
   6.2647550e+02   2.1694790e+03
   6.2695760e+02   2.0128920e+03
   6.2743970e+02   1.8446450e+03
   6.2792180e+02   1.6662910e+03
   6.2840390e+02   1.4897970e+03
   6.2888600e+02   1.3153880e+03
   6.2936820e+02   1.1483840e+03
   6.2985030e+02   9.9635550e+02
   6.3033240e+02   8.5941140e+02
   6.3081450e+02   7.4175950e+02
   6.3129660e+02   6.5112500e+02
   6.3177870e+02   5.7791870e+02
   6.3226090e+02   5.1868090e+02
   6.3274300e+02   4.7690600e+02
   6.3322510e+02   4.3375340e+02
   6.3370720e+02   3.7858200e+02
   6.3418930e+02   3.2553700e+02
   6.3467140e+02   2.8678470e+02
   6.3515360e+02   2.7025920e+02
   6.3563570e+02   2.5009670e+02
   6.3611780e+02   2.2245560e+02
   6.3659990e+02   1.9253890e+02
   6.3708200e+02   1.7021190e+02
   6.3756410e+02   1.5590660e+02
   6.3804630e+02   1.4474510e+02
   6.3852840e+02   1.3451900e+02
   6.3901050e+02   1.2674760e+02
   6.3949260e+02   1.2784180e+02
   6.3997470e+02   1.3559120e+02
   6.4045680e+02   1.3725130e+02
   6.4093900e+02   1.1637370e+02
   6.4142110e+02   9.1730100e+01
   6.4190320e+02   8.2368410e+01
   6.4238530e+02   8.9777340e+01
   6.4286740e+02   9.4875730e+01
   6.4334950e+02   8.8803830e+01
   6.4383170e+02   7.8580810e+01
   6.4431380e+02   6.8693240e+01
   6.4479590e+02   5.8332760e+01
   6.4527800e+02   5.1195920e+01
   6.4576010e+02   4.9587280e+01
   6.4624220e+02   4.9198970e+01
   6.4672440e+02   4.3858030e+01
   6.4720650e+02   3.1807370e+01
   6.4768860e+02   2.4407840e+01
   6.4817070e+02   2.4588750e+01
   6.4865280e+02   2.9186280e+01
   6.4913490e+02   3.3061400e+01
   6.4961710e+02   3.5949830e+01
   6.5009920e+02   3.6737430e+01
   6.5058130e+02   3.2252200e+01
   6.5106340e+02   2.6998050e+01
   6.5154550e+02   2.7052370e+01
   6.5202760e+02   3.1661620e+01
   6.5250980e+02   3.6613650e+01
   6.5299190e+02   4.1515990e+01
   6.5347400e+02   4.4394410e+01
   6.5395610e+02   4.3774780e+01
   6.5443820e+02   3.9218140e+01
   6.5492030e+02   3.2869630e+01
   6.5540250e+02   2.0230830e+01
   6.5588460e+02   9.7471920e+00
   6.5636670e+02   8.5701900e+00
   6.5684880e+02   2.2723880e+01
   6.5733090e+02   2.7407230e+01
   6.5781300e+02   1.8761230e+01
   6.5829520e+02   5.7270510e+00
   6.5877730e+02   2.8527800e-01
   6.5925940e+02   4.5190400e-01
   6.5974150e+02   6.4729000e+00
   6.6022360e+02   2.1059570e+01
   6.6070570e+02   3.4625980e+01
   6.6118790e+02   2.8086180e+01
   6.6167000e+02   8.6011960e+00
   6.6215210e+02   3.7717290e+00
   6.6263420e+02   1.0987180e+01
   6.6311630e+02   2.7060670e+01
   6.6359840e+02   2.6409550e+01
   6.6408060e+02   1.0859010e+01
   6.6456270e+02   1.5258790e+00
   6.6504480e+02   5.5776370e+00
   6.6552690e+02   5.9444580e+00
   6.6600900e+02   4.0196530e+00
   6.6649110e+02   6.4477500e-01
   6.6697330e+02   3.9163820e+00
   6.6745540e+02   5.0233150e+00
   6.6793750e+02   6.2675780e+00
   6.6841960e+02   1.0695070e+01
   6.6890170e+02   1.8093750e+01
   6.6938390e+02   2.1364870e+01
   6.6986600e+02   1.9681030e+01
   6.7034810e+02   1.4774290e+01
   6.7083020e+02   6.4229740e+00
   6.7131230e+02   3.4622800e+00
   6.7179440e+02   1.0818850e+01
   6.7227660e+02   1.4248290e+01
   6.7275870e+02   1.4925660e+01
   6.7324080e+02   1.3405400e+01
   6.7372290e+02   9.7283940e+00
   6.7420500e+02   3.9514160e+00
   6.7468710e+02   1.0724240e+01
   6.7516930e+02   2.0057740e+01
   6.7565140e+02   1.7036990e+01
   6.7613350e+02   4.6489260e+00
   6.7661560e+02   1.5091550e+00
   6.7709770e+02   8.4619100e-01
   6.7757980e+02   4.4892580e+00
   6.7806200e+02   6.3287350e+00
   6.7854410e+02   6.3732910e+00
   6.7902620e+02   6.0944820e+00
   6.7950830e+02   5.6422120e+00
   6.7999040e+02   5.8831790e+00
   6.8047250e+02   9.7093510e+00
   6.8095470e+02   1.4125730e+01
   6.8143680e+02   1.1734500e+01
   6.8191890e+02   6.4282200e-01
   6.8240100e+02   7.4154050e+00
   6.8288310e+02   1.2753910e+00
   6.8336520e+02   1.0327390e+01
   6.8384740e+02   1.8783570e+01
   6.8432950e+02   2.3416140e+01
   6.8481160e+02   2.2828120e+01
   6.8529370e+02   1.1791500e+01
   6.8577580e+02   2.3327640e+00
   6.8625790e+02   9.5629880e+00
   6.8674010e+02   7.2327880e+00
   6.8722220e+02   5.4090580e+00
   6.8770430e+02   6.2821040e+00
   6.8818640e+02   8.3012700e+00
   6.8866850e+02   7.3486330e+00
   6.8915060e+02   3.6118160e+00
   6.8963280e+02   1.1413600e-01
   6.9011490e+02   1.8673100e+00
   6.9059700e+02   2.8107910e+00
   6.9107910e+02   3.3933110e+00
   6.9156120e+02   3.5888670e+00
   6.9204330e+02   3.2593990e+00
   6.9252550e+02   1.4859620e+00
   6.9300760e+02   1.5454100e-01
   6.9348970e+02   4.7497600e-01
   6.9397180e+02   7.4365200e-01
   6.9445390e+02   1.5777590e+00
   6.9493600e+02   8.4741200e-01
   6.9541820e+02   1.2790530e+00
   6.9590030e+02   4.6746830e+00
   6.9638240e+02   2.0527340e+01
   6.9686450e+02   2.6483520e+01
   6.9734660e+02   2.1322020e+01
   6.9782870e+02   1.2219120e+01
   6.9831090e+02   4.1768800e+00
   6.9879300e+02   9.7729500e-01
   6.9927510e+02   2.4000240e+00
   6.9975720e+02   1.7814580e+01
   7.0023930e+02   3.2430790e+01
   7.0072140e+02   3.0402100e+01
   7.0120360e+02   1.8856690e+01
   7.0168570e+02   9.6119380e+00
   7.0216780e+02   5.5904540e+00
   7.0264990e+02   6.0823970e+00
   7.0313200e+02   1.5717410e+01
   7.0361410e+02   2.9587890e+01
   7.0409630e+02   3.5085820e+01
   7.0457840e+02   2.6457640e+01
   7.0506050e+02   1.7436650e+01
   7.0554260e+02   9.8468020e+00
   7.0602470e+02   4.1571040e+00
   7.0650680e+02   3.4881590e+00
   7.0698900e+02   8.4506840e+00
   7.0747110e+02   1.3285640e+01
   7.0795320e+02   1.5288330e+01
   7.0843530e+02   1.4907230e+01
   7.0891740e+02   1.1190190e+01
   7.0939950e+02   5.0444340e+00
   7.0988170e+02   2.9576420e+00
   7.1036380e+02   1.4712890e+01
   7.1084590e+02   2.9408940e+01
   7.1132800e+02   3.7400880e+01
   7.1181010e+02   3.7304320e+01
   7.1229220e+02   3.4333130e+01
   7.1277440e+02   2.7800660e+01
   7.1325650e+02   2.0434080e+01
   7.1373860e+02   1.3319460e+01
   7.1422070e+02   3.4487300e+00
   7.1470280e+02   3.1210940e+00
   7.1518490e+02   1.6787960e+01
   7.1566710e+02   3.2484380e+01
   7.1614920e+02   3.5416500e+01
   7.1663130e+02   2.6775880e+01
   7.1711340e+02   2.1461550e+01
   7.1759550e+02   2.2505620e+01
   7.1807760e+02   2.6021730e+01
   7.1855980e+02   2.8466800e+01
   7.1904190e+02   2.9847530e+01
   7.1952400e+02   3.0178960e+01
   7.2000610e+02   2.9521850e+01
   7.2048820e+02   2.8302370e+01
   7.2097030e+02   2.4710450e+01
   7.2145250e+02   2.0663090e+01
   7.2193460e+02   2.0570800e+01
   7.2241670e+02   3.1247800e+01
   7.2289880e+02   3.7357790e+01
   7.2338090e+02   3.3985960e+01
   7.2386300e+02   2.4357790e+01
   7.2434520e+02   2.1784300e+01
   7.2482730e+02   2.7103030e+01
   7.2530940e+02   3.2696170e+01
   7.2579150e+02   3.5699580e+01
   7.2627360e+02   3.6147460e+01
   7.2675570e+02   3.2991330e+01
   7.2723790e+02   2.6700680e+01
   7.2772000e+02   2.0969970e+01
   7.2820210e+02   1.5242550e+01
   7.2868420e+02   1.3176270e+01
   7.2916630e+02   2.1155030e+01
   7.2964840e+02   3.9844730e+01
   7.3013060e+02   5.0610350e+01
   7.3061270e+02   4.1801880e+01
   7.3109480e+02   2.9075680e+01
   7.3157690e+02   2.1137080e+01
   7.3205900e+02   1.9245730e+01
   7.3254110e+02   1.6899660e+01
   7.3302330e+02   1.3839720e+01
   7.3350540e+02   1.0462890e+01
   7.3398750e+02   6.4345700e+00
   7.3446960e+02   2.0230710e+00
   7.3495170e+02   3.6511200e-01
   7.3543380e+02   8.0688500e-01
   7.3591600e+02   2.2862550e+00
   7.3639810e+02   1.6798830e+01
   7.3688020e+02   3.3920780e+01
   7.3736230e+02   3.9512450e+01
   7.3784440e+02   2.2203370e+01
   7.3832660e+02   7.6768800e+00
   7.3880870e+02   8.3204350e+00
   7.3929080e+02   1.6694580e+01
   7.3977290e+02   2.2000980e+01
   7.4025510e+02   2.1869260e+01
   7.4073720e+02   2.1811160e+01
   7.4121930e+02   2.1981080e+01
   7.4170140e+02   2.2314700e+01
   7.4218350e+02   2.2055300e+01
   7.4266560e+02   2.1175780e+01
   7.4314780e+02   2.3767940e+01
   7.4362990e+02   3.3330080e+01
   7.4411200e+02   4.3781620e+01
   7.4459410e+02   4.6348510e+01
   7.4507620e+02   4.2567140e+01
   7.4555830e+02   3.7264770e+01
   7.4604050e+02   2.6576170e+01
   7.4652260e+02   2.1006840e+01
   7.4700470e+02   3.2734010e+01
   7.4748680e+02   5.7342770e+01
   7.4796890e+02   6.8693970e+01
   7.4845100e+02   5.3946290e+01
   7.4893320e+02   3.7965090e+01
   7.4941530e+02   2.7472780e+01
   7.4989740e+02   2.2329220e+01
   7.5037950e+02   2.0659180e+01
   7.5086160e+02   2.2615840e+01
   7.5134380e+02   2.6265620e+01
   7.5182590e+02   3.2470580e+01
   7.5230800e+02   3.9066650e+01
   7.5279010e+02   4.1891720e+01
   7.5327220e+02   4.0783330e+01
   7.5375430e+02   3.4253780e+01
   7.5423650e+02   9.5638430e+00
   7.5471860e+02   1.3230350e+01
   7.5520070e+02   1.4951170e+01
   7.5568280e+02   1.0782230e+01
   7.5616490e+02   3.1859990e+01
   7.5664700e+02   4.2358400e+01
   7.5712920e+02   4.7078490e+01
   7.5761130e+02   4.7735600e+01
   7.5809340e+02   4.3171020e+01
   7.5857550e+02   4.0446900e+01
   7.5905760e+02   4.0004520e+01
   7.5953970e+02   3.9030760e+01
   7.6002190e+02   3.1154300e+01
   7.6050400e+02   2.0138430e+01
   7.6098610e+02   2.0331180e+01
   7.6146820e+02   3.6117430e+01
   7.6195030e+02   5.1231690e+01
   7.6243240e+02   4.8469120e+01
   7.6291460e+02   3.9626460e+01
   7.6339670e+02   3.9357060e+01
   7.6387880e+02   6.3449340e+01
   7.6436090e+02   7.6130860e+01
   7.6484300e+02   6.4766110e+01
   7.6532510e+02   4.2909910e+01
   7.6580730e+02   2.3925290e+01
   7.6628940e+02   6.5510250e+00
   7.6677150e+02   2.2635500e+00
   7.6725360e+02   1.0229500e-01
   7.6773570e+02   8.3906250e+00
   7.6821780e+02   1.7383670e+01
   7.6870000e+02   2.6472410e+01
   7.6918210e+02   3.4253170e+01
   7.6966420e+02   4.2005740e+01
   7.7014630e+02   4.5433230e+01
   7.7062840e+02   3.5113400e+01
   7.7111050e+02   1.8417480e+01
   7.7159270e+02   9.5981450e+00
   7.7207480e+02   2.0762570e+01
   7.7255690e+02   3.1263430e+01
   7.7303900e+02   3.6844730e+01
   7.7352110e+02   3.8314210e+01
   7.7400320e+02   3.7988650e+01
   7.7448540e+02   3.6495480e+01
   7.7496750e+02   3.1290530e+01
   7.7544960e+02   1.8242680e+01
   7.7593170e+02   2.8085940e+00
   7.7641380e+02   8.3911100e-01
   7.7689590e+02   1.0198000e+01
   7.7737810e+02   1.9119750e+01
   7.7786020e+02   2.0759890e+01
   7.7834230e+02   2.0261350e+01
   7.7882440e+02   1.8827880e+01
   7.7930650e+02   1.7501710e+01
   7.7978860e+02   2.1453120e+01
   7.8027080e+02   4.4770260e+01
   7.8075290e+02   5.9923460e+01
   7.8123500e+02   5.4422610e+01
   7.8171710e+02   3.1285160e+01
   7.8219920e+02   1.9746700e+01
   7.8268130e+02   2.2390010e+01
   7.8316350e+02   2.6715210e+01
   7.8364560e+02   2.5944210e+01
   7.8412770e+02   2.2029050e+01
   7.8460980e+02   2.1144900e+01
   7.8509190e+02   2.3188350e+01
   7.8557400e+02   2.6988040e+01
   7.8605620e+02   3.5499390e+01
   7.8653830e+02   4.2789550e+01
   7.8702040e+02   4.2630980e+01
   7.8750250e+02   3.4748660e+01
   7.8798460e+02   2.7852910e+01
   7.8846670e+02   2.1763670e+01
   7.8894890e+02   2.0245360e+01
   7.8943100e+02   2.5820070e+01
   7.8991310e+02   3.9295170e+01
   7.9039520e+02   4.1244870e+01
   7.9087730e+02   2.8957280e+01
   7.9135940e+02   1.7677000e+01
   7.9184160e+02   2.1961790e+01
   7.9232370e+02   3.5922000e+01
   7.9280580e+02   4.3338620e+01
   7.9328790e+02   4.3414670e+01
   7.9377000e+02   3.8742800e+01
   7.9425210e+02   2.5357420e+01
   7.9473430e+02   1.1942260e+01
   7.9521640e+02   5.9089360e+00
   7.9569850e+02   8.9815670e+00
   7.9618060e+02   1.3421630e+01
   7.9666270e+02   1.8410640e+01
   7.9714480e+02   2.4108400e+01
   7.9762700e+02   3.0371830e+01
   7.9810910e+02   3.7629640e+01
   7.9859120e+02   4.2166020e+01
   7.9907330e+02   4.4064210e+01
   7.9955540e+02   4.2862060e+01
   8.0003750e+02   3.4672360e+01
   8.0051970e+02   2.3989380e+01
   8.0100180e+02   2.1047490e+01
   8.0148390e+02   2.8161740e+01
   8.0196600e+02   3.4751100e+01
   8.0244810e+02   3.2525020e+01
   8.0293020e+02   2.8562740e+01
   8.0341240e+02   2.8710570e+01
   8.0389450e+02   3.8085080e+01
   8.0437660e+02   4.2162960e+01
   8.0485870e+02   3.7396610e+01
   8.0534080e+02   3.1887940e+01
   8.0582290e+02   3.4830690e+01
   8.0630510e+02   4.6124880e+01
   8.0678720e+02   4.8482540e+01
   8.0726930e+02   3.9224850e+01
   8.0775140e+02   2.8425540e+01
   8.0823350e+02   2.6234860e+01
   8.0871560e+02   2.9379030e+01
   8.0919780e+02   3.3463380e+01
   8.0967990e+02   3.8658330e+01
   8.1016200e+02   4.1076660e+01
   8.1064410e+02   3.6358150e+01
   8.1112620e+02   2.9613890e+01
   8.1160830e+02   2.6179320e+01
   8.1209050e+02   3.0222170e+01
   8.1257260e+02   2.8680660e+01
   8.1305470e+02   1.9421630e+01
   8.1353680e+02   1.0535640e+01
   8.1401890e+02   9.5701900e+00
   8.1450100e+02   1.4938720e+01
   8.1498320e+02   1.6661500e+01
   8.1546530e+02   1.2168580e+01
   8.1594740e+02   8.6262210e+00
   8.1642950e+02   1.5888790e+01
   8.1691160e+02   2.6638670e+01
   8.1739370e+02   3.1422120e+01
   8.1787590e+02   2.4371340e+01
   8.1835800e+02   1.8203120e+01
   8.1884010e+02   1.3862670e+01
   8.1932220e+02   1.2673100e+01
   8.1980430e+02   1.7662600e+01
   8.2028640e+02   3.1779660e+01
   8.2076860e+02   3.7426390e+01
   8.2125070e+02   3.1474850e+01
   8.2173280e+02   2.1849490e+01
   8.2221490e+02   1.9408080e+01
   8.2269700e+02   2.2104610e+01
   8.2317910e+02   2.5500980e+01
   8.2366130e+02   3.0123290e+01
   8.2414340e+02   3.1818970e+01
   8.2462550e+02   2.4220340e+01
   8.2510760e+02   1.3420290e+01
   8.2558970e+02   5.8891600e+00
   8.2607180e+02   1.1918950e+00
   8.2655400e+02   2.8322750e+00
   8.2703610e+02   1.4083130e+01
   8.2751820e+02   2.7889280e+01
   8.2800030e+02   3.5887570e+01
   8.2848240e+02   3.8171510e+01
   8.2896450e+02   4.0580810e+01
   8.2944670e+02   4.4670410e+01
   8.2992880e+02   4.6703740e+01
   8.3041090e+02   4.0794560e+01
   8.3089300e+02   3.0235840e+01
   8.3137510e+02   1.9306030e+01
   8.3185720e+02   6.5993650e+00
   8.3233940e+02   3.9318800e-01
   8.3282150e+02   4.6016850e+00
   8.3330360e+02   1.4750980e+01
   8.3378570e+02   2.2860230e+01
   8.3426780e+02   3.0903320e+01
   8.3474990e+02   3.0279540e+01
   8.3523210e+02   1.6927980e+01
   8.3571420e+02   2.5699460e+00
   8.3619630e+02   4.4448240e+00
   8.3667840e+02   1.8473510e+01
   8.3716050e+02   2.9940060e+01
   8.3764260e+02   3.5836300e+01
   8.3812480e+02   3.8020630e+01
   8.3860690e+02   3.5605590e+01
   8.3908900e+02   3.1886840e+01
   8.3957110e+02   2.8978270e+01
   8.4005320e+02   2.5765500e+01
   8.4053530e+02   3.5566890e+01
   8.4101750e+02   4.1042360e+01
   8.4149960e+02   4.2425420e+01
   8.4198170e+02   2.7464970e+01
   8.4246380e+02   3.3603030e+01
   8.4294590e+02   3.1282710e+01
   8.4342800e+02   2.8612550e+01
   8.4391020e+02   3.7713380e+01
   8.4439230e+02   1.9360720e+01
   8.4487440e+02   3.0444700e+01
   8.4535650e+02   2.9884160e+01
   8.4583860e+02   1.0207280e+01
   8.4632070e+02   4.2301030e+00
   8.4680290e+02   9.7656300e-01
   8.4728500e+02   1.2888920e+01
   8.4776710e+02   2.0486820e+01
   8.4824920e+02   2.3690670e+01
   8.4873130e+02   2.1135380e+01
   8.4921340e+02   1.0389770e+01
   8.4969560e+02   9.6313000e-02
   8.5017770e+02   1.5893550e+00
   8.5065980e+02   1.0833860e+01
   8.5114190e+02   1.2872070e+01
   8.5162400e+02   5.3671880e+00
   8.5210610e+02   3.4946290e+00
   8.5258830e+02   1.1954590e+01
   8.5307040e+02   1.6358640e+01
   8.5355250e+02   1.1707030e+01
   8.5403460e+02   7.4550780e+00
   8.5451670e+02   2.0603880e+01
   8.5499880e+02   2.4807980e+01
   8.5548100e+02   2.5150270e+01
   8.5596310e+02   2.5325200e+01
   8.5644520e+02   2.5366460e+01
   8.5692730e+02   2.2080080e+01
   8.5740940e+02   1.5238160e+01
   8.5789150e+02   7.4068600e+00
   8.5837370e+02   2.8918460e+00
   8.5885580e+02   1.0907590e+01
   8.5933790e+02   7.3248290e+00
   8.5982000e+02   1.0007690e+01
   8.6030210e+02   2.1048100e+01
   8.6078420e+02   8.7802730e+00
   8.6126640e+02   3.7967530e+00
   8.6174850e+02   2.0518800e+00
   8.6223060e+02   1.6391240e+01
   8.6271270e+02   2.3599490e+01
   8.6319480e+02   1.7043700e+01
   8.6367690e+02   1.0686280e+01
   8.6415910e+02   1.9231930e+01
   8.6464120e+02   3.4255130e+01
   8.6512330e+02   3.2809450e+01
   8.6560540e+02   1.5587400e+01
   8.6608750e+02   1.1627200e+00
   8.6656960e+02   1.4357910e+00
   8.6705180e+02   7.2799070e+00
   8.6753390e+02   1.6385620e+01
   8.6801600e+02   2.8771120e+01
   8.6849810e+02   2.7399050e+01
   8.6898020e+02   3.7088620e+00
   8.6946230e+02   1.5634520e+01
   8.6994450e+02   1.6206670e+01
   8.7042660e+02   2.2138670e+00
   8.7090870e+02   8.3684080e+00
   8.7139080e+02   1.5554200e+01
   8.7187290e+02   1.9339110e+01
   8.7235500e+02   1.7744630e+01
   8.7283720e+02   1.4558110e+01
   8.7331930e+02   1.3264160e+01
   8.7380140e+02   1.3387450e+01
   8.7428350e+02   1.2010010e+01
   8.7476560e+02   5.0676270e+00
   8.7524770e+02   4.1381800e-01
   8.7572990e+02   6.3305700e-01
   8.7621200e+02   4.4880370e+00
   8.7669410e+02   8.2741700e+00
   8.7717620e+02   1.2005860e+01
   8.7765830e+02   1.2276610e+01
   8.7814040e+02   3.6914060e+00
   8.7862260e+02   5.2475590e+00
   8.7910470e+02   1.4665530e+00
   8.7958690e+02   1.6991210e+01
   8.8006900e+02   2.3924070e+01
   8.8055110e+02   5.4226070e+00
   8.8103320e+02   1.0794190e+01
   8.8151530e+02   1.6434330e+01
   8.8199740e+02   1.4667720e+01
   8.8247960e+02   1.0941650e+01
   8.8296170e+02   4.8986820e+00
   8.8344380e+02   8.4545900e-01
   8.8392590e+02   6.4370120e+00
   8.8440800e+02   1.0100340e+01
   8.8489010e+02   6.1259770e+00
   8.8537230e+02   2.2448730e+00
   8.8585440e+02   6.6428220e+00
   8.8633650e+02   1.4853520e+00
   8.8681860e+02   3.8398440e+00
   8.8730070e+02   2.3271480e+00
   8.8778280e+02   2.1435500e-01
   8.8826500e+02   5.3518070e+00
   8.8874710e+02   2.5594730e+01
   8.8922920e+02   3.5581790e+01
   8.8971130e+02   3.1031250e+01
   8.9019340e+02   2.0041990e+01
   8.9067550e+02   1.3221920e+01
   8.9115770e+02   9.3654790e+00
   8.9163980e+02   3.6545410e+00
   8.9212190e+02   5.4912110e+00
   8.9260400e+02   1.2604000e+01
   8.9308610e+02   1.1916990e+01
   8.9356820e+02   8.8513180e+00
   8.9405040e+02   8.0471190e+00
   8.9453250e+02   1.2510990e+01
   8.9501460e+02   1.2280760e+01
   8.9549670e+02   5.1979980e+00
   8.9597880e+02   2.5771480e+00
   8.9646090e+02   4.6586910e+00
   8.9694310e+02   2.3759770e+00
   8.9742520e+02   4.3505860e+00
   8.9790730e+02   1.1078610e+01
   8.9838940e+02   1.8637450e+01
   8.9887150e+02   2.8348880e+01
   8.9935360e+02   3.4699710e+01
   8.9983580e+02   2.9748540e+01
   9.0031790e+02   1.1312990e+01
   9.0080000e+02   3.4650880e+00
   9.0128210e+02   1.5048340e+01
   9.0176420e+02   2.7811280e+01
   9.0224630e+02   3.4896240e+01
   9.0272850e+02   3.6218020e+01
   9.0321060e+02   2.9108640e+01
   9.0369270e+02   1.4010250e+01
   9.0417480e+02   1.8981930e+00
   9.0465690e+02   2.2502440e+00
   9.0513900e+02   8.9995120e+00
   9.0562120e+02   1.8804690e+01
   9.0610330e+02   2.9884770e+01
   9.0658540e+02   3.5965820e+01
   9.0706750e+02   2.9836910e+01
   9.0754960e+02   2.4344480e+01
   9.0803170e+02   2.2547120e+01
   9.0851390e+02   2.4375240e+01
   9.0899600e+02   3.0477780e+01
   9.0947810e+02   4.0763430e+01
   9.0996020e+02   4.7142090e+01
   9.1044230e+02   4.6239500e+01
   9.1092440e+02   4.1276120e+01
   9.1140660e+02   3.2970700e+01
   9.1188870e+02   2.5130860e+01
   9.1237080e+02   2.2323970e+01
   9.1285290e+02   2.8967770e+01
   9.1333500e+02   3.7944820e+01
   9.1381710e+02   5.0543460e+01
   9.1429930e+02   6.2837160e+01
   9.1478140e+02   6.7797360e+01
   9.1526350e+02   6.4436770e+01
   9.1574560e+02   6.9396480e+01
   9.1622770e+02   8.7378170e+01
   9.1670980e+02   1.0157470e+02
   9.1719200e+02   8.1313720e+01
   9.1767410e+02   5.0412110e+01
   9.1815620e+02   4.6459230e+01
   9.1863830e+02   8.7062740e+01
   9.1912040e+02   1.1844820e+02
   9.1960250e+02   1.1144140e+02
   9.2008470e+02   1.0168600e+02
   9.2056680e+02   1.1566670e+02
   9.2104890e+02   1.5952880e+02
   9.2153100e+02   1.8159200e+02
   9.2201310e+02   1.7998050e+02
   9.2249520e+02   1.7192750e+02
   9.2297740e+02   1.6469560e+02
   9.2345950e+02   1.6309230e+02
   9.2394160e+02   1.8056520e+02
   9.2442370e+02   2.1579980e+02
   9.2490580e+02   2.4014700e+02
   9.2538790e+02   2.2569120e+02
   9.2587010e+02   2.1517040e+02
   9.2635220e+02   2.2951370e+02
   9.2683430e+02   2.6481880e+02
   9.2731640e+02   2.8588260e+02
   9.2779850e+02   2.9189790e+02
   9.2828060e+02   3.0268630e+02
   9.2876280e+02   3.2688480e+02
   9.2924490e+02   3.5922000e+02
   9.2972700e+02   3.9271460e+02
   9.3020910e+02   4.2785670e+02
   9.3069120e+02   4.6698660e+02
   9.3117330e+02   5.0874220e+02
   9.3165550e+02   5.5695310e+02
   9.3213760e+02   6.1675220e+02
   9.3261970e+02   6.8170040e+02
   9.3310180e+02   7.3584350e+02
   9.3358390e+02   7.7447920e+02
   9.3406600e+02   8.4054350e+02
   9.3454820e+02   9.4203120e+02
   9.3503030e+02   1.0744610e+03
   9.3551240e+02   1.2346260e+03
   9.3599450e+02   1.4235910e+03
   9.3647660e+02   1.6358380e+03
   9.3695870e+02   1.8606230e+03
   9.3744090e+02   2.1451140e+03
   9.3792300e+02   2.5037130e+03
   9.3840510e+02   2.9359650e+03
   9.3888720e+02   3.4412440e+03
   9.3936930e+02   4.0282690e+03
   9.3985140e+02   4.6637640e+03
   9.4033360e+02   5.3397230e+03
   9.4081570e+02   6.0808390e+03
   9.4129780e+02   6.9172020e+03
   9.4177990e+02   7.8332500e+03
   9.4226200e+02   8.8100280e+03
   9.4274410e+02   9.8427450e+03
   9.4322630e+02   1.0955410e+04
   9.4370840e+02   1.2144430e+04
   9.4419050e+02   1.3406910e+04
   9.4467260e+02   1.4740210e+04
   9.4515470e+02   1.6139750e+04
   9.4563680e+02   1.7584240e+04
   9.4611900e+02   1.9088580e+04
   9.4660110e+02   2.0593060e+04
   9.4708320e+02   2.2148430e+04
   9.4756530e+02   2.3609170e+04
   9.4804740e+02   2.4985330e+04
   9.4852950e+02   2.6121500e+04
   9.4901170e+02   2.6656360e+04
   9.4949380e+02   2.6433900e+04
   9.4997590e+02   2.5592780e+04
   9.5045800e+02   2.4047930e+04
   9.5094010e+02   2.2030030e+04
   9.5142220e+02   1.9811780e+04
   9.5190440e+02   1.7378460e+04
   9.5238650e+02   1.5071340e+04
   9.5286860e+02   1.2934390e+04
   9.5335070e+02   1.0985060e+04
   9.5383280e+02   9.2349290e+03
   9.5431490e+02   7.6862620e+03
   9.5479710e+02   6.3387220e+03
   9.5527920e+02   5.2305110e+03
   9.5576130e+02   4.2878250e+03
   9.5624340e+02   3.5149840e+03
   9.5672550e+02   2.8752050e+03
   9.5720760e+02   2.3591290e+03
   9.5768980e+02   1.9639060e+03
   9.5817190e+02   1.6531460e+03
   9.5865400e+02   1.4238510e+03
   9.5913610e+02   1.2382410e+03
   9.5961820e+02   1.0771440e+03
   9.6010030e+02   9.3933280e+02
   9.6058250e+02   8.2253930e+02
   9.6106460e+02   7.2647390e+02
   9.6154670e+02   6.5098340e+02
   9.6202880e+02   6.0966190e+02
   9.6251090e+02   5.6800390e+02
   9.6299300e+02   5.1612920e+02
   9.6347520e+02   4.6175440e+02
   9.6395730e+02   4.2672880e+02
   9.6443940e+02   4.0888090e+02
   9.6492150e+02   3.9366770e+02
   9.6540360e+02   3.7841090e+02
   9.6588570e+02   3.5990040e+02
   9.6636790e+02   3.2958010e+02
   9.6685000e+02   2.9684840e+02
   9.6733210e+02   2.7541720e+02
   9.6781420e+02   2.7887210e+02
   9.6829630e+02   2.7210720e+02
   9.6877840e+02   2.5113380e+02
   9.6926060e+02   2.2682420e+02
   9.6974270e+02   2.1468160e+02
   9.7022480e+02   2.0954710e+02
   9.7070690e+02   1.8687940e+02
   9.7118900e+02   1.4526440e+02
   9.7167110e+02   1.1701170e+02
   9.7215330e+02   1.4087740e+02
   9.7263540e+02   1.7046020e+02
   9.7311750e+02   1.7158760e+02
   9.7359960e+02   1.4451420e+02
   9.7408170e+02   1.3026200e+02
   9.7456380e+02   1.3010060e+02
   9.7504600e+02   1.3350440e+02
   9.7552810e+02   1.3906370e+02
   9.7601020e+02   1.4453540e+02
   9.7649230e+02   1.4414580e+02
   9.7697440e+02   1.3987180e+02
   9.7745650e+02   1.3753710e+02
   9.7793870e+02   1.4160860e+02
   9.7842080e+02   1.4481100e+02
   9.7890290e+02   1.4335670e+02
   9.7938500e+02   1.3980570e+02
   9.7986710e+02   1.3782280e+02
   9.8034920e+02   1.3786380e+02
   9.8083140e+02   1.3896780e+02
   9.8131350e+02   1.4134910e+02
   9.8179560e+02   1.4442210e+02
   9.8227770e+02   1.4748170e+02
   9.8275980e+02   1.4991110e+02
   9.8324190e+02   1.5163840e+02
   9.8372410e+02   1.5252440e+02
   9.8420620e+02   1.5328640e+02
   9.8468830e+02   1.5202370e+02
   9.8517040e+02   1.5450630e+02
   9.8565250e+02   1.6309130e+02
   9.8613460e+02   1.7570530e+02
   9.8661680e+02   1.8715870e+02
   9.8709890e+02   1.9752170e+02
   9.8758100e+02   2.0896630e+02
   9.8806310e+02   2.2445830e+02
   9.8854520e+02   2.4021120e+02
   9.8902730e+02   2.4898540e+02
   9.8950950e+02   2.5518120e+02
   9.8999160e+02   2.7024050e+02
   9.9047370e+02   3.0100880e+02
   9.9095580e+02   3.3380960e+02
   9.9143790e+02   3.6772580e+02
   9.9192000e+02   4.0160770e+02
   9.9240220e+02   4.2974560e+02
   9.9288430e+02   4.5528100e+02
   9.9336640e+02   4.9461940e+02
   9.9384850e+02   5.5193510e+02
   9.9433060e+02   6.1332790e+02
   9.9481270e+02   6.6941650e+02
   9.9529490e+02   7.2532450e+02
   9.9577700e+02   7.8381790e+02
   9.9625910e+02   8.4373240e+02
   9.9674120e+02   9.1431740e+02
   9.9722330e+02   9.9535300e+02
   9.9770540e+02   1.0856320e+03
   9.9818760e+02   1.1957550e+03
   9.9866970e+02   1.3096310e+03
   9.9915180e+02   1.3906910e+03
   9.9963390e+02   1.4444860e+03
   1.0001160e+03   1.4945620e+03
   1.0005980e+03   1.5456030e+03
   1.0010800e+03   1.6023920e+03
   1.0015620e+03   1.6782150e+03
   1.0020440e+03   1.7558880e+03
   1.0025270e+03   1.8096050e+03
   1.0030090e+03   1.8397100e+03
   1.0034910e+03   1.8349750e+03
   1.0039730e+03   1.7931400e+03
   1.0044550e+03   1.7172960e+03
   1.0049370e+03   1.5965200e+03
   1.0054190e+03   1.4511760e+03
   1.0059010e+03   1.3061370e+03
   1.0063840e+03   1.1644370e+03
   1.0068660e+03   1.0302720e+03
   1.0073480e+03   9.0021440e+02
   1.0078300e+03   7.8375900e+02
   1.0083120e+03   6.8808010e+02
   1.0087940e+03   6.1117700e+02
   1.0092760e+03   5.4082710e+02
   1.0097580e+03   4.7686620e+02
   1.0102400e+03   4.1548440e+02
   1.0107230e+03   3.4748900e+02
   1.0112050e+03   2.8824540e+02
   1.0116870e+03   2.4902390e+02
   1.0121690e+03   2.2639160e+02
   1.0126510e+03   2.1000680e+02
   1.0131330e+03   2.0182520e+02
   1.0136150e+03   1.9204320e+02
   1.0140970e+03   1.7860470e+02
   1.0145800e+03   1.6465450e+02
   1.0150620e+03   1.5599190e+02
   1.0155440e+03   1.4975950e+02
   1.0160260e+03   1.3982230e+02
   1.0165080e+03   1.2431740e+02
   1.0169900e+03   1.0987010e+02
   1.0174720e+03   9.6405760e+01
   1.0179540e+03   8.7821040e+01
   1.0184360e+03   8.9663570e+01
   1.0189190e+03   1.0080320e+02
   1.0194010e+03   9.2814210e+01
   1.0198830e+03   6.5643070e+01
   1.0203650e+03   3.9655270e+01
   1.0208470e+03   2.6151120e+01
   1.0213290e+03   1.9798340e+01
   1.0218110e+03   1.9248540e+01
   1.0222930e+03   2.1444340e+01
   1.0227760e+03   1.8594480e+01
   1.0232580e+03   1.4213870e+00
   1.0237400e+03   7.0720210e+00
   1.0242220e+03   1.4213870e+00
   1.0247040e+03   8.2092290e+00
   1.0251860e+03   5.7080080e+00
   1.0256680e+03   4.6635740e+00
   1.0261500e+03   6.6909180e+00
   1.0266320e+03   2.6115720e+00
   1.0271150e+03   9.7927250e+00
   1.0275970e+03   4.0458980e+00
   1.0280790e+03   4.3886720e+00
   1.0285610e+03   9.1574710e+00
   1.0290430e+03   1.0249760e+01
   1.0295250e+03   7.6555180e+00
   1.0300070e+03   5.3247100e-01
   1.0304890e+03   2.6169430e+00
   1.0309720e+03   6.1335450e+00
   1.0314540e+03   1.6489010e+01
   1.0319360e+03   1.0071530e+01
   1.0324180e+03   5.2736820e+00
   1.0329000e+03   1.2665530e+01
   1.0333820e+03   3.0102500e-01
   1.0338640e+03   1.1670410e+01
   1.0343460e+03   2.2523440e+01
   1.0348280e+03   3.0389160e+01
   1.0353110e+03   3.2640140e+01
   1.0357930e+03   2.9748780e+01
   1.0362750e+03   2.3638920e+01
   1.0367570e+03   1.4396480e+01
   1.0372390e+03   6.3178710e+00
   1.0377210e+03   2.2978520e+00
   1.0382030e+03   6.1572300e-01
   1.0386850e+03   1.8242190e+00
   1.0391670e+03   5.0422360e+00
   1.0396500e+03   2.7153320e+00
   1.0401320e+03   7.2438960e+00
   1.0406140e+03   1.3955080e+01
   1.0410960e+03   1.3474370e+01
   1.0415780e+03   8.1611330e+00
   1.0420600e+03   4.7617190e+00
   1.0425420e+03   1.8268550e+01
   1.0430240e+03   1.8109860e+01
   1.0435070e+03   1.0572020e+01
   1.0439890e+03   3.1903080e+01
   1.0444710e+03   3.7375730e+01
   1.0449530e+03   3.6343990e+01
   1.0454350e+03   3.5929930e+01
   1.0459170e+03   3.5822020e+01
   1.0463990e+03   2.8411620e+01
   1.0468810e+03   1.4297120e+01
   1.0473640e+03   7.4626460e+00
   1.0478460e+03   2.4251460e+01
   1.0483280e+03   4.5197270e+01
   1.0488100e+03   5.7338130e+01
   1.0492920e+03   6.1995360e+01
   1.0497740e+03   6.8210690e+01
   1.0502560e+03   7.7276370e+01
   1.0507380e+03   8.3897710e+01
   1.0512200e+03   8.5781010e+01
   1.0517030e+03   8.5871580e+01
   1.0521850e+03   8.6525150e+01
   1.0526670e+03   9.0929930e+01
   1.0531490e+03   1.0587670e+02
   1.0536310e+03   1.3514480e+02
   1.0541130e+03   1.6313350e+02
   1.0545950e+03   1.8201930e+02
   1.0550770e+03   2.0293700e+02
   1.0555590e+03   2.3143900e+02
   1.0560420e+03   2.6679740e+02
   1.0565240e+03   3.0276290e+02
   1.0570060e+03   3.4077000e+02
   1.0574880e+03   3.9255930e+02
   1.0579700e+03   4.6636820e+02
   1.0584520e+03   5.5433060e+02
   1.0589340e+03   6.5768510e+02
   1.0594160e+03   7.7104100e+02
   1.0598990e+03   8.8011740e+02
   1.0603810e+03   9.7713480e+02
   1.0608630e+03   1.1008060e+03
   1.0613450e+03   1.2590080e+03
   1.0618270e+03   1.4256410e+03
   1.0623090e+03   1.5704920e+03
   1.0627910e+03   1.7108720e+03
   1.0632730e+03   1.8713210e+03
   1.0637550e+03   2.0550260e+03
   1.0642380e+03   2.2439990e+03
   1.0647200e+03   2.4454000e+03
   1.0652020e+03   2.6398070e+03
   1.0656840e+03   2.8245240e+03
   1.0661660e+03   2.9941270e+03
   1.0666480e+03   3.1561320e+03
   1.0671300e+03   3.2918480e+03
   1.0676120e+03   3.3244710e+03
   1.0680940e+03   3.2151930e+03
   1.0685770e+03   3.0300140e+03
   1.0690590e+03   2.7753620e+03
   1.0695410e+03   2.4834140e+03
   1.0700230e+03   2.1766610e+03
   1.0705050e+03   1.8439520e+03
   1.0709870e+03   1.5569840e+03
   1.0714690e+03   1.3133730e+03
   1.0719510e+03   1.1034980e+03
   1.0724340e+03   9.2176730e+02
   1.0729160e+03   7.6624220e+02
   1.0733980e+03   6.2974120e+02
   1.0738800e+03   5.1480350e+02
   1.0743620e+03   4.3189970e+02
   1.0748440e+03   4.0097310e+02
   1.0753260e+03   3.6871530e+02
   1.0758080e+03   3.2440800e+02
   1.0762910e+03   2.8346660e+02
   1.0767730e+03   2.7197680e+02
   1.0772550e+03   2.8080520e+02
   1.0777370e+03   2.8505000e+02
   1.0782190e+03   2.8109230e+02
   1.0787010e+03   2.7407100e+02
   1.0791830e+03   2.6290580e+02
   1.0796650e+03   2.5314580e+02
   1.0801470e+03   2.4784840e+02
   1.0806300e+03   2.4622070e+02
   1.0811120e+03   2.4360420e+02
   1.0815940e+03   2.3963990e+02
   1.0820760e+03   2.3564720e+02
   1.0825580e+03   2.3214430e+02
   1.0830400e+03   2.2745340e+02
   1.0835220e+03   2.1627250e+02
   1.0840040e+03   2.0450540e+02
   1.0844860e+03   2.0197170e+02
   1.0849690e+03   2.1750540e+02
   1.0854510e+03   2.1601490e+02
   1.0859330e+03   1.9306200e+02
   1.0864150e+03   1.6840410e+02
   1.0868970e+03   1.5823050e+02
   1.0873790e+03   1.5651950e+02
   1.0878610e+03   1.5464670e+02
   1.0883430e+03   1.5208060e+02
   1.0888260e+03   1.4663500e+02
   1.0893080e+03   1.3427100e+02
   1.0897900e+03   1.2296190e+02
   1.0902720e+03   1.1435620e+02
   1.0907540e+03   1.0812180e+02
   1.0912360e+03   1.0493550e+02
   1.0917180e+03   1.0300240e+02
   1.0922000e+03   9.9380860e+01
   1.0926820e+03   9.4175050e+01
   1.0931650e+03   8.6935550e+01
   1.0936470e+03   7.3676270e+01
   1.0941290e+03   6.2330570e+01
   1.0946110e+03   6.1218260e+01
   1.0950930e+03   6.7508060e+01
   1.0955750e+03   5.6603030e+01
   1.0960570e+03   2.6710210e+01
   1.0965390e+03   9.0500490e+00
   1.0970220e+03   2.1877930e+01
   1.0975040e+03   4.0189450e+01
   1.0979860e+03   3.3329100e+01
   1.0984680e+03   1.7638180e+01
   1.0989500e+03   1.8133790e+01
   1.0994320e+03   5.1726810e+01
   1.0999140e+03   6.2897950e+01
   1.1003960e+03   4.5219730e+01
   1.1008790e+03   2.5196780e+01
   1.1013610e+03   2.4104740e+01
   1.1018430e+03   3.2765620e+01
   1.1023250e+03   3.6632080e+01
   1.1028070e+03   3.6838380e+01
   1.1032890e+03   3.8112550e+01
   1.1037710e+03   4.4601560e+01
   1.1042530e+03   4.9202640e+01
   1.1047350e+03   5.1366210e+01
   1.1052180e+03   5.0494630e+01
   1.1057000e+03   4.5271480e+01
   1.1061820e+03   3.6260500e+01
   1.1066640e+03   2.5759520e+01
   1.1071460e+03   1.3860350e+01
   1.1076280e+03   4.1701660e+00
   1.1081100e+03   5.5185550e+00
   1.1085920e+03   7.8737790e+00
   1.1090740e+03   5.2766110e+00
   1.1095570e+03   2.8839110e+01
   1.1100390e+03   4.2639160e+01
   1.1105210e+03   4.6692140e+01
   1.1110030e+03   4.7066890e+01
   1.1114850e+03   4.3814450e+01
   1.1119670e+03   4.2651860e+01
   1.1124490e+03   5.6093020e+01
   1.1129310e+03   7.0452390e+01
   1.1134140e+03   6.9000490e+01
   1.1138960e+03   4.6327390e+01
   1.1143780e+03   2.7420170e+01
   1.1148600e+03   1.1917720e+01
   1.1153420e+03   1.8046880e+00
   1.1158240e+03   9.7778300e-01
   1.1163060e+03   1.6166990e+00
   1.1167880e+03   9.0583500e+00
   1.1172710e+03   1.9073240e+01
   1.1177530e+03   2.6768310e+01
   1.1182350e+03   2.7584960e+01
   1.1187170e+03   3.0624510e+01
   1.1191990e+03   3.7293210e+01
   1.1196810e+03   4.4732670e+01
   1.1201630e+03   5.2393800e+01
   1.1206450e+03   5.8216800e+01
   1.1211270e+03   5.2167970e+01
   1.1216090e+03   3.5756100e+01
   1.1220920e+03   2.6367680e+01
   1.1225740e+03   4.3029300e+01
   1.1230560e+03   5.5452640e+01
   1.1235380e+03   5.1091060e+01
   1.1240200e+03   3.8771000e+01
   1.1245020e+03   3.6734130e+01
   1.1249840e+03   4.3617920e+01
   1.1254660e+03   4.7905030e+01
   1.1259490e+03   4.7338620e+01
   1.1264310e+03   4.5185550e+01
   1.1269130e+03   4.3610840e+01
   1.1273950e+03   4.1315430e+01
   1.1278770e+03   3.5681880e+01
   1.1283590e+03   2.7761470e+01
   1.1288410e+03   2.7362790e+01
   1.1293230e+03   3.4904540e+01
   1.1298060e+03   4.3344480e+01
   1.1302880e+03   5.1984860e+01
   1.1307700e+03   5.6436280e+01
   1.1312520e+03   4.4754640e+01
   1.1317340e+03   2.9703120e+01
   1.1322160e+03   3.0608640e+01
   1.1326980e+03   5.8367190e+01
   1.1331800e+03   6.7071780e+01
   1.1336620e+03   5.2464360e+01
   1.1341450e+03   3.6472170e+01
   1.1346270e+03   3.2179930e+01
   1.1351090e+03   3.5617920e+01
   1.1355910e+03   4.5491940e+01
   1.1360730e+03   5.7810300e+01
   1.1365550e+03   6.2121340e+01
   1.1370370e+03   4.5578860e+01
   1.1375190e+03   3.6123290e+01
   1.1380010e+03   3.7398190e+01
   1.1384840e+03   4.1783940e+01
   1.1389660e+03   4.1155270e+01
   1.1394480e+03   3.7581540e+01
   1.1399300e+03   3.5034420e+01
   1.1404120e+03   3.4047610e+01
   1.1408940e+03   3.6785890e+01
   1.1413760e+03   5.2510740e+01
   1.1418580e+03   6.1356930e+01
   1.1423410e+03   5.6653080e+01
   1.1428230e+03   4.3716550e+01
   1.1433050e+03   2.9299320e+01
   1.1437870e+03   1.4566650e+01
   1.1442690e+03   5.2612300e+00
   1.1447510e+03   2.7956540e+00
   1.1452330e+03   8.9721700e-01
   1.1457150e+03   6.2382810e+00
   1.1461980e+03   1.1560300e+01
   1.1466800e+03   1.0178960e+01
   1.1471620e+03   4.0200200e+00
   1.1476440e+03   3.6010740e+00
   1.1481260e+03   8.2648930e+00
   1.1486080e+03   9.2084960e+00
   1.1490900e+03   3.2724610e+00
   1.1495720e+03   6.1921390e+00
   1.1500540e+03   2.2566410e+01
   1.1505360e+03   3.7955810e+01
   1.1510190e+03   4.3926760e+01
   1.1515010e+03   4.0972410e+01
   1.1519830e+03   2.9749510e+01
   1.1524650e+03   9.6601560e+00
   1.1529470e+03   5.1762700e+00
   1.1534290e+03   5.7265630e+00
   1.1539110e+03   7.6391600e-01
   1.1543930e+03   9.3232420e+00
   1.1548760e+03   1.9876950e+01
   1.1553580e+03   3.2380620e+01
   1.1558400e+03   5.1193360e+01
   1.1563220e+03   5.6314700e+01
   1.1568040e+03   4.5326660e+01
   1.1572860e+03   3.2411870e+01
   1.1577680e+03   2.9026370e+01
   1.1582500e+03   3.0412840e+01
   1.1587330e+03   2.8070310e+01
   1.1592150e+03   2.4837650e+01
   1.1596970e+03   3.2911130e+01
   1.1601790e+03   6.6497560e+01
   1.1606610e+03   8.2010740e+01
   1.1611430e+03   7.0043950e+01
   1.1616250e+03   5.1457030e+01
   1.1621070e+03   5.3333500e+01
   1.1625890e+03   6.4334720e+01
   1.1630720e+03   6.3801510e+01
   1.1635540e+03   5.0627440e+01
   1.1640360e+03   3.8406010e+01
   1.1645180e+03   2.9234380e+01
   1.1650000e+03   2.4382570e+01
   1.1654820e+03   2.4406740e+01
   1.1659640e+03   2.8057620e+01
   1.1664460e+03   3.7967770e+01
   1.1669280e+03   5.0527830e+01
   1.1674110e+03   5.3652340e+01
   1.1678930e+03   4.3392820e+01
   1.1683750e+03   3.6893070e+01
   1.1688570e+03   4.6339600e+01
   1.1693390e+03   5.1644290e+01
   1.1698210e+03   4.1461180e+01
   1.1703030e+03   2.4479980e+01
   1.1707850e+03   2.9956540e+01
   1.1712680e+03   5.0678710e+01
   1.1717500e+03   6.3038570e+01
   1.1722320e+03   5.7869380e+01
   1.1727140e+03   4.7774410e+01
   1.1731960e+03   3.1517330e+01
   1.1736780e+03   1.7651610e+01
   1.1741600e+03   1.2113530e+01
   1.1746420e+03   1.4290530e+01
   1.1751250e+03   2.3034670e+01
   1.1756070e+03   3.7081540e+01
   1.1760890e+03   4.9330810e+01
   1.1765710e+03   5.9697270e+01
   1.1770530e+03   6.3383060e+01
   1.1775350e+03   4.9927250e+01
   1.1780170e+03   3.5084230e+01
   1.1784990e+03   3.4601810e+01
   1.1789810e+03   4.8284910e+01
   1.1794640e+03   5.9889160e+01
   1.1799460e+03   6.8984380e+01
   1.1804280e+03   7.2231690e+01
   1.1809100e+03   6.2755620e+01
   1.1813920e+03   5.2217530e+01
   1.1818740e+03   4.5105710e+01
   1.1823560e+03   4.1282230e+01
   1.1828380e+03   4.2923580e+01
   1.1833200e+03   5.0212400e+01
   1.1838030e+03   5.9659180e+01
   1.1842850e+03   7.1188480e+01
   1.1847670e+03   7.8485350e+01
   1.1852490e+03   7.7888180e+01
   1.1857310e+03   7.0572020e+01
   1.1862130e+03   5.0579350e+01
   1.1866950e+03   2.5454590e+01
   1.1871770e+03   1.6490720e+01
   1.1876600e+03   2.4690920e+01
   1.1881420e+03   3.4090330e+01
   1.1886240e+03   4.2152590e+01
   1.1891060e+03   5.0171140e+01
   1.1895880e+03   6.5287600e+01
   1.1900700e+03   7.5832760e+01
   1.1905520e+03   6.7439210e+01
   1.1910340e+03   4.3615230e+01
   1.1915160e+03   3.2273930e+01
   1.1919990e+03   3.4942870e+01
   1.1924810e+03   3.4035640e+01
   1.1929630e+03   2.3237300e+01
   1.1934450e+03   1.4426030e+01
   1.1939270e+03   2.1911380e+01
   1.1944090e+03   3.5723390e+01
   1.1948910e+03   4.8202880e+01
   1.1953730e+03   5.8764890e+01
   1.1958550e+03   5.5487550e+01
   1.1963380e+03   3.6230470e+01
   1.1968200e+03   2.2209720e+01
   1.1973020e+03   2.4591550e+01
   1.1977840e+03   2.9700440e+01
   1.1982660e+03   1.9218510e+01
   1.1987480e+03   4.3637700e+00
   1.1992300e+03   3.8573999e-02
   1.1997120e+03   8.9008790e+00
   1.2001950e+03   2.0349610e+01
   1.2006770e+03   3.5781490e+01
   1.2011590e+03   4.2921630e+01
   1.2016410e+03   2.9857180e+01
   1.2021230e+03   1.1766110e+01
   1.2026050e+03   4.4970700e+00
   1.2030870e+03   4.8359380e+00
   1.2035690e+03   7.5131840e+00
   1.2040520e+03   1.3771970e+01
   1.2045340e+03   1.6786380e+01
   1.2050160e+03   1.6303710e+01
   1.2054980e+03   1.6066410e+01
   1.2059800e+03   2.3061770e+01
   1.2064620e+03   2.8158450e+01
   1.2069440e+03   1.4518800e+01
   1.2074260e+03   7.9719240e+00
   1.2079080e+03   1.5416500e+01
   1.2083910e+03   1.2209470e+00
   1.2088730e+03   1.4941890e+01
   1.2093550e+03   3.3833250e+01
   1.2098370e+03   4.7032470e+01
   1.2103190e+03   4.5249510e+01
   1.2108010e+03   3.4984380e+01
   1.2112830e+03   2.0888670e+01
   1.2117650e+03   5.8122560e+00
   1.2122470e+03   2.5698240e+00
   1.2127300e+03   2.6154790e+00
   1.2132120e+03   1.1425800e-01
   1.2136940e+03   5.1723630e+00
   1.2141760e+03   8.9526370e+00
   1.2146580e+03   4.4328610e+00
   1.2151400e+03   1.8769530e+00
   1.2156220e+03   3.4880370e+00
   1.2161040e+03   6.6161998e-02
   1.2165870e+03   9.2167970e+00
   1.2170690e+03   2.7784180e+01
   1.2175510e+03   3.8202390e+01
   1.2180330e+03   3.7291020e+01
   1.2185150e+03   2.9078370e+01
   1.2189970e+03   1.1461670e+01
   1.2194790e+03   6.5166020e+00
   1.2199610e+03   1.4369380e+01
   1.2204430e+03   1.1221680e+01
   1.2209260e+03   4.3413090e+00
   1.2214080e+03   8.1308590e+00
   1.2218900e+03   1.4908200e+01
   1.2223720e+03   1.1821530e+01
   1.2228540e+03   7.5959470e+00
   1.2233360e+03   1.6743900e+01
   1.2238180e+03   2.8023190e+01
   1.2243000e+03   2.5438960e+01
   1.2247820e+03   6.6987300e+00
   1.2252650e+03   2.4709470e+00
   1.2257470e+03   1.6957030e+01
   1.2262290e+03   2.5562500e+01
   1.2267110e+03   1.9089110e+01
   1.2271930e+03   8.3293460e+00
   1.2276750e+03   3.2492680e+00
   1.2281570e+03   3.1911620e+00
   1.2286390e+03   1.0262940e+01
   1.2291220e+03   2.5967040e+01
   1.2296040e+03   2.5827880e+01
   1.2300860e+03   6.0092770e+00
   1.2305680e+03   2.6853030e+00
   1.2310500e+03   1.7521730e+01
   1.2315320e+03   4.1401120e+01
   1.2320140e+03   3.7016600e+01
   1.2324960e+03   2.0925780e+01
   1.2329790e+03   1.3671390e+01
   1.2334610e+03   1.7720700e+01
   1.2339430e+03   2.2552490e+01
   1.2344250e+03   2.8201420e+01
   1.2349070e+03   3.4329830e+01
   1.2353890e+03   4.4090580e+01
   1.2358710e+03   4.8836430e+01
   1.2363530e+03   3.3124020e+01
   1.2368350e+03   1.1081300e+01
   1.2373180e+03   3.2744140e+00
   1.2378000e+03   1.3105960e+01
   1.2382820e+03   1.1768800e+01
   1.2387640e+03   1.5617680e+00
   1.2392460e+03   8.7988280e+00
   1.2397280e+03   5.6394040e+00
   1.2402100e+03   2.3283690e+01
   1.2406920e+03   3.1268800e+01
   1.2411750e+03   3.1245120e+01
   1.2416570e+03   2.3510740e+01
   1.2421390e+03   4.7736820e+00
   1.2426210e+03   4.4558110e+00
   1.2431030e+03   2.2752930e+01
   1.2435850e+03   3.9426270e+01
   1.2440670e+03   3.9628660e+01
   1.2445490e+03   3.6879390e+01
   1.2450310e+03   4.2044190e+01
   1.2455140e+03   4.8848390e+01
   1.2459960e+03   4.7938720e+01
   1.2464780e+03   3.8471190e+01
   1.2469600e+03   3.0542240e+01
   1.2474420e+03   2.4470460e+01
   1.2479240e+03   2.3684080e+01
   1.2484060e+03   3.4828370e+01
   1.2488880e+03   4.6970460e+01
   1.2493700e+03   5.6824460e+01
   1.2498530e+03   6.2316410e+01
   1.2503350e+03   5.7624510e+01
   1.2508170e+03   4.3466800e+01
   1.2512990e+03   4.5751460e+01
   1.2517810e+03   6.3966060e+01
   1.2522630e+03   7.6825930e+01
   1.2527450e+03   5.9883540e+01
   1.2532270e+03   4.6928710e+01
   1.2537100e+03   6.2330570e+01
   1.2541920e+03   8.2682130e+01
   1.2546740e+03   7.4025390e+01
   1.2551560e+03   4.1483890e+01
   1.2556380e+03   2.0339110e+01
   1.2561200e+03   1.2296140e+01
   1.2566020e+03   1.2573490e+01
   1.2570840e+03   2.0937260e+01
   1.2575670e+03   2.8594970e+01
   1.2580490e+03   2.9926030e+01
   1.2585310e+03   3.1855470e+01
   1.2590130e+03   5.1201660e+01
   1.2594950e+03   7.8745610e+01
   1.2599770e+03   7.8830570e+01
   1.2604590e+03   5.1995610e+01
   1.2609410e+03   2.7554930e+01
   1.2614230e+03   1.2998780e+01
   1.2619060e+03   1.1398680e+01
   1.2623880e+03   3.2715330e+01
   1.2628700e+03   5.9272460e+01
   1.2633520e+03   5.8552980e+01
   1.2638340e+03   4.1648190e+01
   1.2643160e+03   3.3798100e+01
   1.2647980e+03   3.6729980e+01
   1.2652800e+03   4.0237060e+01
   1.2657620e+03   4.2000980e+01
   1.2662450e+03   4.2848140e+01
   1.2667270e+03   4.3009030e+01
   1.2672090e+03   4.1864010e+01
   1.2676910e+03   3.6936770e+01
   1.2681730e+03   3.1961910e+01
   1.2686550e+03   3.5449220e+01
   1.2691370e+03   4.7415040e+01
   1.2696190e+03   5.4657230e+01
   1.2701020e+03   5.4767820e+01
   1.2705840e+03   5.3659420e+01
   1.2710660e+03   5.3116210e+01
   1.2715480e+03   4.8676030e+01
   1.2720300e+03   3.4757080e+01
   1.2725120e+03   1.8016110e+01
   1.2729940e+03   4.8759770e+00
   1.2734760e+03   2.6472170e+00
   1.2739580e+03   4.9150390e+00
   1.2744410e+03   3.1645260e+01
   1.2749230e+03   5.3927980e+01
   1.2754050e+03   6.7219970e+01
   1.2758870e+03   7.1211670e+01
   1.2763690e+03   6.2448240e+01
   1.2768510e+03   4.6679440e+01
   1.2773330e+03   2.1204100e+01
   1.2778150e+03   7.9711910e+00
   1.2782970e+03   2.2021480e+00
   1.2787800e+03   4.0822750e+01
   1.2792620e+03   6.6577150e+01
   1.2797440e+03   6.0416750e+01
   1.2802260e+03   4.7696290e+01
   1.2807080e+03   4.5374510e+01
   1.2811900e+03   4.7528560e+01
   1.2816720e+03   5.3668950e+01
   1.2821540e+03   5.9936040e+01
   1.2826370e+03   4.7114260e+01
   1.2831190e+03   1.8398440e+01
   1.2836010e+03   6.2502440e+00
   1.2840830e+03   1.9801760e+01
   1.2845650e+03   3.2191650e+01
   1.2850470e+03   2.3965580e+01
   1.2855290e+03   1.3780270e+01
   1.2860110e+03   1.0498780e+01
   1.2864940e+03   1.2278320e+01
   1.2869760e+03   1.5085690e+01
   1.2874580e+03   1.8538570e+01
   1.2879400e+03   2.0569090e+01
   1.2884220e+03   2.0135740e+01
   1.2889040e+03   2.3211430e+01
   1.2893860e+03   4.1833010e+01
   1.2898680e+03   5.0130130e+01
   1.2903500e+03   3.4326900e+01
   1.2908330e+03   1.0060550e+01
   1.2913150e+03   1.5269040e+01
   1.2917970e+03   3.6808110e+01
   1.2922790e+03   5.1037840e+01
   1.2927610e+03   5.3673580e+01
   1.2932430e+03   4.7502930e+01
   1.2937250e+03   2.7990720e+01
   1.2942070e+03   1.5065190e+01
   1.2946890e+03   1.6604980e+01
   1.2951720e+03   2.4315670e+01
   1.2956540e+03   2.8402100e+01
   1.2961360e+03   2.9924320e+01
   1.2966180e+03   3.0112790e+01
   1.2971000e+03   2.8978030e+01
   1.2975820e+03   2.6442140e+01
   1.2980640e+03   2.1673340e+01
   1.2985460e+03   2.1313480e+01
   1.2990290e+03   2.9507320e+01
   1.2995110e+03   3.6150630e+01
   1.2999930e+03   2.7088620e+01
   1.3004750e+03   1.3946780e+01
   1.3009570e+03   9.2172850e+00
   1.3014390e+03   1.1692870e+01
   1.3019210e+03   9.0332030e+00
   1.3024030e+03   1.6860350e+00
   1.3028850e+03   2.1557600e-01
   1.3033680e+03   0.0000000e+00
   1.5000000e+03   0.0000000e+00
