   1.0000000e+02   0.0000000e+00
   1.3293980e+02   0.0000000e+00
   1.3342190e+02   5.3808590e+00
   1.3390400e+02   9.8066410e+00
   1.3438620e+02   5.2050780e+00
   1.3486830e+02   5.6679690e+00
   1.3535040e+02   1.0531250e+01
   1.3583250e+02   1.6701170e+01
   1.3631460e+02   4.7382810e+01
   1.3679670e+02   5.6919920e+01
   1.3727890e+02   5.2080080e+01
   1.3776100e+02   4.3968750e+01
   1.3824310e+02   3.3535160e+01
   1.3872520e+02   1.9330080e+01
   1.3920730e+02   1.4101560e+00
   1.3968940e+02   1.2779300e+01
   1.4017160e+02   6.7773440e+00
   1.4065370e+02   1.9476560e+01
   1.4113580e+02   4.3001950e+01
   1.4161790e+02   6.2812500e+01
   1.4210000e+02   8.2117190e+01
   1.4258210e+02   1.0734570e+02
   1.4306430e+02   1.4315620e+02
   1.4354640e+02   1.7618950e+02
   1.4402850e+02   2.0119730e+02
   1.4451060e+02   2.1472850e+02
   1.4499270e+02   2.2840430e+02
   1.4547480e+02   2.4027340e+02
   1.4595700e+02   2.5246090e+02
   1.4643910e+02   2.7110740e+02
   1.4692120e+02   3.0891800e+02
   1.4740330e+02   3.3831640e+02
   1.4788540e+02   3.4564060e+02
   1.4836750e+02   3.0876560e+02
   1.4884970e+02   2.8384180e+02
   1.4933180e+02   2.7583200e+02
   1.4981390e+02   2.8159570e+02
   1.5029600e+02   2.8725390e+02
   1.5077810e+02   2.9602340e+02
   1.5126020e+02   3.0172270e+02
   1.5174240e+02   3.0068750e+02
   1.5222450e+02   2.7740430e+02
   1.5270660e+02   2.6457810e+02
   1.5318870e+02   2.6989060e+02
   1.5367080e+02   2.9113280e+02
   1.5415290e+02   3.0484180e+02
   1.5463510e+02   3.0491800e+02
   1.5511720e+02   2.9968360e+02
   1.5559930e+02   2.9475390e+02
   1.5608140e+02   2.9468360e+02
   1.5656350e+02   2.9113280e+02
   1.5704560e+02   2.8189060e+02
   1.5752780e+02   2.6696290e+02
   1.5800990e+02   2.5080470e+02
   1.5849200e+02   2.3285940e+02
   1.5897410e+02   2.1508980e+02
   1.5945620e+02   1.9925200e+02
   1.5993830e+02   1.7991020e+02
   1.6042050e+02   1.6836720e+02
   1.6090260e+02   1.7136910e+02
   1.6138470e+02   1.9014260e+02
   1.6186680e+02   2.0971480e+02
   1.6234890e+02   2.2783010e+02
   1.6283100e+02   2.4337500e+02
   1.6331320e+02   2.5498440e+02
   1.6379530e+02   2.5946290e+02
   1.6427740e+02   2.6183590e+02
   1.6475950e+02   2.6294920e+02
   1.6524160e+02   2.6200780e+02
   1.6572370e+02   2.6480660e+02
   1.6620590e+02   2.7939060e+02
   1.6668800e+02   2.9840040e+02
   1.6717010e+02   3.1094730e+02
   1.6765220e+02   3.1056840e+02
   1.6813430e+02   3.0279300e+02
   1.6861640e+02   2.8960160e+02
   1.6909850e+02   2.6968360e+02
   1.6958070e+02   2.5123440e+02
   1.7006280e+02   2.4152340e+02
   1.7054490e+02   2.3735940e+02
   1.7102700e+02   2.3238670e+02
   1.7150910e+02   2.2365430e+02
   1.7199120e+02   2.1299020e+02
   1.7247340e+02   2.0271880e+02
   1.7295550e+02   1.9412700e+02
   1.7343760e+02   1.8382810e+02
   1.7391970e+02   1.6212890e+02
   1.7440180e+02   1.3516600e+02
   1.7488390e+02   1.1971090e+02
   1.7536610e+02   1.3943160e+02
   1.7584820e+02   1.7142970e+02
   1.7633030e+02   1.8296290e+02
   1.7681240e+02   1.6247070e+02
   1.7729450e+02   1.3617190e+02
   1.7777660e+02   1.3346290e+02
   1.7825880e+02   1.5007420e+02
   1.7874090e+02   1.6814650e+02
   1.7922300e+02   1.7983200e+02
   1.7970510e+02   1.8491020e+02
   1.8018720e+02   1.8052150e+02
   1.8066930e+02   1.6161910e+02
   1.8115150e+02   1.4161130e+02
   1.8163360e+02   1.4395510e+02
   1.8211570e+02   1.6544340e+02
   1.8259780e+02   1.8325390e+02
   1.8307990e+02   1.7643360e+02
   1.8356200e+02   1.5353520e+02
   1.8404420e+02   1.3845700e+02
   1.8452630e+02   1.3870700e+02
   1.8500840e+02   1.4489060e+02
   1.8549050e+02   1.3898830e+02
   1.8597260e+02   1.2148050e+02
   1.8645470e+02   1.0668550e+02
   1.8693690e+02   1.1336720e+02
   1.8741900e+02   1.3475390e+02
   1.8790110e+02   1.3938090e+02
   1.8838320e+02   1.1525590e+02
   1.8886530e+02   7.6654300e+01
   1.8934740e+02   5.3050780e+01
   1.8982960e+02   4.4726560e+01
   1.9031170e+02   4.7101560e+01
   1.9079380e+02   6.4189450e+01
   1.9127590e+02   9.2798830e+01
   1.9175800e+02   1.0789060e+02
   1.9224010e+02   1.0010740e+02
   1.9272230e+02   7.7785160e+01
   1.9320440e+02   6.4128910e+01
   1.9368650e+02   5.9357420e+01
   1.9416860e+02   6.1250000e+01
   1.9465070e+02   7.0253910e+01
   1.9513280e+02   8.5712890e+01
   1.9561500e+02   9.8482420e+01
   1.9609710e+02   1.0526950e+02
   1.9657920e+02   1.0741800e+02
   1.9706130e+02   1.1038480e+02
   1.9754340e+02   1.1299020e+02
   1.9802550e+02   1.1720120e+02
   1.9850770e+02   1.2389840e+02
   1.9898980e+02   1.3198440e+02
   1.9947190e+02   1.3983200e+02
   1.9995400e+02   1.4945700e+02
   2.0043610e+02   1.6068360e+02
   2.0091820e+02   1.6752340e+02
   2.0140040e+02   1.6879100e+02
   2.0188250e+02   1.6593950e+02
   2.0236460e+02   1.6009570e+02
   2.0284670e+02   1.5070700e+02
   2.0332880e+02   1.4051950e+02
   2.0381090e+02   1.3129490e+02
   2.0429310e+02   1.2352930e+02
   2.0477520e+02   1.1759770e+02
   2.0525730e+02   1.1347660e+02
   2.0573940e+02   1.1151760e+02
   2.0622150e+02   1.1350780e+02
   2.0670360e+02   1.2065230e+02
   2.0718580e+02   1.2435550e+02
   2.0766790e+02   1.2192190e+02
   2.0815000e+02   1.1368750e+02
   2.0863210e+02   1.0412500e+02
   2.0911420e+02   9.1689450e+01
   2.0959630e+02   8.0767580e+01
   2.1007850e+02   7.5962890e+01
   2.1056060e+02   7.7589840e+01
   2.1104270e+02   8.4068360e+01
   2.1152480e+02   9.5957030e+01
   2.1200690e+02   1.1323050e+02
   2.1248900e+02   1.3215820e+02
   2.1297120e+02   1.5421090e+02
   2.1345330e+02   1.7618360e+02
   2.1393540e+02   1.9416990e+02
   2.1441750e+02   2.0823050e+02
   2.1489960e+02   2.1883200e+02
   2.1538170e+02   2.2359770e+02
   2.1586390e+02   2.2224800e+02
   2.1634600e+02   2.3221880e+02
   2.1682810e+02   2.5553520e+02
   2.1731020e+02   2.8732230e+02
   2.1779230e+02   3.2353320e+02
   2.1827440e+02   3.6860550e+02
   2.1875650e+02   4.0720900e+02
   2.1923870e+02   4.3360740e+02
   2.1972080e+02   4.4787700e+02
   2.2020290e+02   4.6080860e+02
   2.2068500e+02   4.6993360e+02
   2.2116710e+02   4.8011720e+02
   2.2164920e+02   4.9575390e+02
   2.2213140e+02   5.1637300e+02
   2.2261350e+02   5.4458400e+02
   2.2309560e+02   5.8224610e+02
   2.2357770e+02   6.3064260e+02
   2.2405980e+02   6.7450780e+02
   2.2454190e+02   7.1253520e+02
   2.2502410e+02   7.4819730e+02
   2.2550620e+02   7.8599800e+02
   2.2598830e+02   8.2576370e+02
   2.2647040e+02   8.6739650e+02
   2.2695250e+02   9.1133200e+02
   2.2743460e+02   9.5871480e+02
   2.2791680e+02   9.9842190e+02
   2.2839890e+02   1.0292680e+03
   2.2888100e+02   1.0537360e+03
   2.2936310e+02   1.0753050e+03
   2.2984520e+02   1.1020140e+03
   2.3032730e+02   1.1105530e+03
   2.3080950e+02   1.0934340e+03
   2.3129160e+02   1.0499280e+03
   2.3177370e+02   1.0032810e+03
   2.3225580e+02   9.5351560e+02
   2.3273790e+02   9.0071090e+02
   2.3322000e+02   8.4578710e+02
   2.3370220e+02   7.9085350e+02
   2.3418430e+02   7.2946290e+02
   2.3466640e+02   6.5554100e+02
   2.3514850e+02   5.6918360e+02
   2.3563060e+02   5.0123440e+02
   2.3611270e+02   4.5772850e+02
   2.3659490e+02   4.2570120e+02
   2.3707700e+02   3.9312500e+02
   2.3755910e+02   3.5855080e+02
   2.3804120e+02   3.2604880e+02
   2.3852330e+02   2.9675000e+02
   2.3900540e+02   2.7066800e+02
   2.3948760e+02   2.4459960e+02
   2.3996970e+02   2.1433980e+02
   2.4045180e+02   1.8878520e+02
   2.4093390e+02   1.7796090e+02
   2.4141600e+02   1.9455860e+02
   2.4189810e+02   2.0069530e+02
   2.4238030e+02   1.8566410e+02
   2.4286240e+02   1.5032810e+02
   2.4334450e+02   1.2626170e+02
   2.4382660e+02   1.1644530e+02
   2.4430870e+02   1.1418160e+02
   2.4479080e+02   1.1523630e+02
   2.4527300e+02   1.2451760e+02
   2.4575510e+02   1.2602930e+02
   2.4623720e+02   1.1265230e+02
   2.4671930e+02   8.6062500e+01
   2.4720140e+02   7.3617190e+01
   2.4768350e+02   8.3423830e+01
   2.4816570e+02   9.6791020e+01
   2.4864780e+02   9.7921880e+01
   2.4912990e+02   7.7343750e+01
   2.4961200e+02   6.5521480e+01
   2.5009410e+02   7.0550780e+01
   2.5057620e+02   8.9375000e+01
   2.5105840e+02   9.6843750e+01
   2.5154050e+02   8.9898440e+01
   2.5202260e+02   7.6007810e+01
   2.5250470e+02   6.0121090e+01
   2.5298680e+02   4.2800780e+01
   2.5346890e+02   2.2994140e+01
   2.5395110e+02   1.6972660e+00
   2.5443320e+02   2.8835940e+01
   2.5491530e+02   4.5921880e+01
   2.5539740e+02   5.0679690e+01
   2.5587950e+02   4.7855470e+01
   2.5636160e+02   3.7697270e+01
   2.5684380e+02   1.1421880e+01
   2.5732590e+02   6.2890600e-01
   2.5780800e+02   1.4625000e+01
   2.5829010e+02   4.5371090e+01
   2.5877220e+02   6.1548830e+01
   2.5925430e+02   6.0500000e+01
   2.5973650e+02   4.9812500e+01
   2.6021860e+02   3.1697270e+01
   2.6070070e+02   3.2617190e+00
   2.6118280e+02   2.1597660e+01
   2.6166490e+02   4.2488280e+01
   2.6214700e+02   5.8253910e+01
   2.6262920e+02   6.5572270e+01
   2.6311130e+02   5.8996090e+01
   2.6359340e+02   5.3472660e+01
   2.6407550e+02   5.6986330e+01
   2.6455760e+02   7.2332030e+01
   2.6503970e+02   8.6611330e+01
   2.6552190e+02   1.0001760e+02
   2.6600400e+02   1.1211720e+02
   2.6648610e+02   1.2286330e+02
   2.6696820e+02   1.3250980e+02
   2.6745030e+02   1.4063280e+02
   2.6793240e+02   1.4734180e+02
   2.6841460e+02   1.5500980e+02
   2.6889670e+02   1.5827150e+02
   2.6937880e+02   1.5290430e+02
   2.6986090e+02   1.4536720e+02
   2.7034300e+02   1.4856840e+02
   2.7082510e+02   1.6766020e+02
   2.7130730e+02   1.8029490e+02
   2.7178940e+02   1.7305860e+02
   2.7227150e+02   1.4294340e+02
   2.7275360e+02   1.2376370e+02
   2.7323570e+02   1.1576760e+02
   2.7371780e+02   1.1755470e+02
   2.7420000e+02   1.3138670e+02
   2.7468210e+02   1.6098240e+02
   2.7516420e+02   1.8289450e+02
   2.7564630e+02   1.8402930e+02
   2.7612840e+02   1.6410740e+02
   2.7661050e+02   1.6098050e+02
   2.7709270e+02   1.7923630e+02
   2.7757480e+02   2.0410160e+02
   2.7805690e+02   2.1824020e+02
   2.7853900e+02   2.2139260e+02
   2.7902110e+02   2.1712890e+02
   2.7950320e+02   2.0429880e+02
   2.7998540e+02   1.8437300e+02
   2.8046750e+02   1.6823240e+02
   2.8094960e+02   1.5623830e+02
   2.8143170e+02   1.4799800e+02
   2.8191380e+02   1.4309180e+02
   2.8239590e+02   1.4167970e+02
   2.8287810e+02   1.4481450e+02
   2.8336020e+02   1.5604880e+02
   2.8384230e+02   1.7184180e+02
   2.8432440e+02   1.7436910e+02
   2.8480650e+02   1.6220120e+02
   2.8528860e+02   1.4628710e+02
   2.8577080e+02   1.3485940e+02
   2.8625290e+02   1.2774610e+02
   2.8673500e+02   1.2483790e+02
   2.8721710e+02   1.2689450e+02
   2.8769920e+02   1.3218360e+02
   2.8818130e+02   1.3394140e+02
   2.8866350e+02   1.3159380e+02
   2.8914560e+02   1.3346880e+02
   2.8962770e+02   1.5172850e+02
   2.9010980e+02   1.8272460e+02
   2.9059190e+02   2.0035550e+02
   2.9107400e+02   1.9675390e+02
   2.9155620e+02   1.8356450e+02
   2.9203830e+02   1.8691210e+02
   2.9252040e+02   2.0588480e+02
   2.9300250e+02   2.1852930e+02
   2.9348460e+02   2.0427340e+02
   2.9396670e+02   1.7151170e+02
   2.9444890e+02   1.5073240e+02
   2.9493100e+02   1.4873630e+02
   2.9541310e+02   1.5276370e+02
   2.9589520e+02   1.4604490e+02
   2.9637730e+02   1.2949220e+02
   2.9685940e+02   1.0742190e+02
   2.9734160e+02   7.5189450e+01
   2.9782370e+02   4.0167970e+01
   2.9830580e+02   2.0150390e+01
   2.9878790e+02   1.7636720e+01
   2.9927000e+02   2.4355470e+01
   2.9975210e+02   3.2242190e+01
   3.0023430e+02   4.1541020e+01
   3.0071640e+02   5.1939450e+01
   3.0119850e+02   6.6730470e+01
   3.0168060e+02   8.1382810e+01
   3.0216270e+02   8.6392580e+01
   3.0264480e+02   8.0767580e+01
   3.0312700e+02   7.4257810e+01
   3.0360910e+02   7.4205080e+01
   3.0409120e+02   7.9677730e+01
   3.0457330e+02   8.9685550e+01
   3.0505540e+02   1.0972070e+02
   3.0553750e+02   1.3047850e+02
   3.0601970e+02   1.4023440e+02
   3.0650180e+02   1.3926370e+02
   3.0698390e+02   1.3526370e+02
   3.0746600e+02   1.3010350e+02
   3.0794810e+02   1.2626370e+02
   3.0843020e+02   1.2775590e+02
   3.0891240e+02   1.4365820e+02
   3.0939450e+02   1.5797070e+02
   3.0987660e+02   1.5437300e+02
   3.1035870e+02   1.3609770e+02
   3.1084080e+02   1.1935940e+02
   3.1132290e+02   1.1671880e+02
   3.1180510e+02   1.1924410e+02
   3.1228720e+02   1.1624410e+02
   3.1276930e+02   1.0240430e+02
   3.1325140e+02   8.9964840e+01
   3.1373350e+02   8.6564450e+01
   3.1421560e+02   9.0953120e+01
   3.1469780e+02   9.9197270e+01
   3.1517990e+02   1.0688870e+02
   3.1566200e+02   1.1652340e+02
   3.1614410e+02   1.3192770e+02
   3.1662620e+02   1.6089840e+02
   3.1710830e+02   1.7974410e+02
   3.1759050e+02   1.6903120e+02
   3.1807260e+02   1.4261330e+02
   3.1855470e+02   1.2474610e+02
   3.1903680e+02   1.2468550e+02
   3.1951890e+02   1.3198830e+02
   3.2000100e+02   1.4706250e+02
   3.2048320e+02   1.7494340e+02
   3.2096530e+02   1.8452730e+02
   3.2144740e+02   1.5226370e+02
   3.2192950e+02   1.0222270e+02
   3.2241160e+02   6.2576170e+01
   3.2289370e+02   4.5058590e+01
   3.2337590e+02   3.4027340e+01
   3.2385800e+02   2.9044920e+01
   3.2434010e+02   3.0697270e+01
   3.2482220e+02   2.4949220e+01
   3.2530430e+02   4.6230470e+00
   3.2578640e+02   3.4267580e+01
   3.2626860e+02   4.5734380e+01
   3.2675070e+02   1.4861330e+01
   3.2723280e+02   9.4550780e+00
   3.2771490e+02   1.4431640e+01
   3.2819700e+02   2.5019530e+00
   3.2867910e+02   4.2421880e+00
   3.2916130e+02   3.8669920e+01
   3.2964340e+02   7.1533200e+01
   3.3012550e+02   8.5083980e+01
   3.3060760e+02   5.9625000e+01
   3.3108970e+02   4.2939450e+01
   3.3157180e+02   3.8333980e+01
   3.3205400e+02   4.2855470e+01
   3.3253610e+02   4.9052730e+01
   3.3301820e+02   6.2906250e+01
   3.3350030e+02   7.0919920e+01
   3.3398240e+02   6.5890620e+01
   3.3446450e+02   4.1218750e+01
   3.3494670e+02   2.4613280e+01
   3.3542880e+02   1.8867190e+01
   3.3591090e+02   1.9486330e+01
   3.3639300e+02   1.8001950e+01
   3.3687510e+02   1.0828120e+01
   3.3735720e+02   1.0740230e+01
   3.3783940e+02   2.4396480e+01
   3.3832150e+02   5.2474610e+01
   3.3880360e+02   7.2949220e+01
   3.3928570e+02   8.3798830e+01
   3.3976780e+02   9.0625000e+01
   3.4024990e+02   1.0000000e+02
   3.4073200e+02   1.1203320e+02
   3.4121410e+02   1.2373240e+02
   3.4169630e+02   1.3467970e+02
   3.4217840e+02   1.4446680e+02
   3.4266050e+02   1.4924800e+02
   3.4314260e+02   1.4726760e+02
   3.4362470e+02   1.4699410e+02
   3.4410680e+02   1.5488670e+02
   3.4458900e+02   1.7030470e+02
   3.4507110e+02   1.9130470e+02
   3.4555320e+02   2.1993750e+02
   3.4603530e+02   2.4988280e+02
   3.4651740e+02   2.6852150e+02
   3.4699950e+02   2.7607810e+02
   3.4748170e+02   2.7322270e+02
   3.4796380e+02   2.5184570e+02
   3.4844590e+02   2.1911130e+02
   3.4892800e+02   2.0502930e+02
   3.4941010e+02   2.1552340e+02
   3.4989220e+02   2.2903320e+02
   3.5037440e+02   2.1425980e+02
   3.5085650e+02   1.7746480e+02
   3.5133860e+02   1.4264840e+02
   3.5182070e+02   1.2160160e+02
   3.5230280e+02   1.1095700e+02
   3.5278490e+02   1.1021090e+02
   3.5326710e+02   1.1977930e+02
   3.5374920e+02   1.2576950e+02
   3.5423130e+02   1.1275590e+02
   3.5471340e+02   8.8546880e+01
   3.5519550e+02   6.5968750e+01
   3.5567760e+02   4.3843750e+01
   3.5615980e+02   3.0013670e+01
   3.5664190e+02   3.7666020e+01
   3.5712400e+02   6.3806640e+01
   3.5760610e+02   8.9275390e+01
   3.5808820e+02   1.0919730e+02
   3.5857030e+02   1.1943550e+02
   3.5905250e+02   1.1105860e+02
   3.5953460e+02   6.8328120e+01
   3.6001670e+02   3.4763670e+01
   3.6049880e+02   4.2111330e+01
   3.6098090e+02   7.6998050e+01
   3.6146300e+02   1.1074220e+02
   3.6194520e+02   1.3009960e+02
   3.6242730e+02   1.4511330e+02
   3.6290940e+02   1.6059180e+02
   3.6339150e+02   1.7658010e+02
   3.6387360e+02   1.9341990e+02
   3.6435570e+02   2.0821680e+02
   3.6483790e+02   2.2420900e+02
   3.6532000e+02   2.4520700e+02
   3.6580210e+02   2.7877930e+02
   3.6628420e+02   3.1086910e+02
   3.6676630e+02   3.3991410e+02
   3.6724840e+02   3.6622460e+02
   3.6773060e+02   3.8144920e+02
   3.6821270e+02   3.7110160e+02
   3.6869480e+02   3.5859960e+02
   3.6917690e+02   3.5959960e+02
   3.6965900e+02   3.8188090e+02
   3.7014110e+02   4.1037300e+02
   3.7062330e+02   4.5553910e+02
   3.7110540e+02   5.0877730e+02
   3.7158750e+02   5.3496680e+02
   3.7206960e+02   5.0903320e+02
   3.7255170e+02   4.8608790e+02
   3.7303380e+02   4.8963090e+02
   3.7351600e+02   5.2852930e+02
   3.7399810e+02   5.6970700e+02
   3.7448020e+02   6.1670510e+02
   3.7496230e+02   6.6358200e+02
   3.7544440e+02   6.9788280e+02
   3.7592650e+02   7.1355860e+02
   3.7640870e+02   7.3416020e+02
   3.7689080e+02   7.6549020e+02
   3.7737290e+02   8.0757230e+02
   3.7785500e+02   8.6351950e+02
   3.7833710e+02   9.3510550e+02
   3.7881920e+02   1.0069940e+03
   3.7930140e+02   1.0634590e+03
   3.7978350e+02   1.1044380e+03
   3.8026560e+02   1.1441970e+03
   3.8074770e+02   1.1845570e+03
   3.8122980e+02   1.2257290e+03
   3.8171190e+02   1.2750570e+03
   3.8219410e+02   1.3322990e+03
   3.8267620e+02   1.3763460e+03
   3.8315830e+02   1.3882770e+03
   3.8364040e+02   1.3726970e+03
   3.8412250e+02   1.3516740e+03
   3.8460460e+02   1.3295290e+03
   3.8508680e+02   1.3014590e+03
   3.8556890e+02   1.2634140e+03
   3.8605100e+02   1.2152560e+03
   3.8653310e+02   1.1564220e+03
   3.8701520e+02   1.0798520e+03
   3.8749730e+02   9.9522660e+02
   3.8797950e+02   9.1687500e+02
   3.8846160e+02   8.4525980e+02
   3.8894370e+02   7.7316990e+02
   3.8942580e+02   6.8623440e+02
   3.8990790e+02   5.9782230e+02
   3.9039000e+02   5.2880470e+02
   3.9087220e+02   4.9450200e+02
   3.9135430e+02   4.7137300e+02
   3.9183640e+02   4.4685160e+02
   3.9231850e+02   4.2079300e+02
   3.9280060e+02   3.9197850e+02
   3.9328270e+02   3.5708010e+02
   3.9376490e+02   3.2060160e+02
   3.9424700e+02   2.8473240e+02
   3.9472910e+02   2.4748440e+02
   3.9521120e+02   2.1575200e+02
   3.9569330e+02   1.9167380e+02
   3.9617540e+02   1.7392770e+02
   3.9665760e+02   1.6082810e+02
   3.9713970e+02   1.5760350e+02
   3.9762180e+02   1.5296090e+02
   3.9810390e+02   1.3947460e+02
   3.9858600e+02   1.1510160e+02
   3.9906810e+02   1.0290040e+02
   3.9955030e+02   1.1688480e+02
   4.0003240e+02   1.3713280e+02
   4.0051450e+02   1.4897660e+02
   4.0099660e+02   1.4972270e+02
   4.0147870e+02   1.4693750e+02
   4.0196080e+02   1.4304100e+02
   4.0244300e+02   1.3658980e+02
   4.0292510e+02   1.1923240e+02
   4.0340720e+02   7.8105470e+01
   4.0388930e+02   4.6105470e+01
   4.0437140e+02   4.3064450e+01
   4.0485350e+02   8.1433590e+01
   4.0533570e+02   9.3193360e+01
   4.0581780e+02   6.5863280e+01
   4.0629990e+02   2.7765620e+01
   4.0678200e+02   2.7210940e+01
   4.0726410e+02   7.4031250e+01
   4.0774620e+02   9.9435550e+01
   4.0822840e+02   7.3941410e+01
   4.0871050e+02   1.0373050e+01
   4.0919260e+02   2.7234380e+01
   4.0967470e+02   3.6750000e+01
   4.1015680e+02   3.5322270e+01
   4.1063890e+02   3.4906250e+01
   4.1112110e+02   3.5265620e+01
   4.1160320e+02   3.5792970e+01
   4.1208530e+02   3.6730470e+01
   4.1256740e+02   3.6216800e+01
   4.1304950e+02   2.9105470e+01
   4.1353160e+02   1.6605470e+01
   4.1401380e+02   5.9433590e+00
   4.1449590e+02   4.7402340e+00
   4.1497800e+02   6.2011720e+00
   4.1546010e+02   2.7460940e+00
   4.1594220e+02   2.3726560e+01
   4.1642430e+02   4.0478520e+01
   4.1690650e+02   3.1974610e+01
   4.1738860e+02   1.2193360e+01
   4.1787070e+02   2.0058590e+00
   4.1835280e+02   1.4929690e+01
   4.1883490e+02   3.3214840e+01
   4.1931700e+02   4.5351560e+01
   4.1979920e+02   5.2984380e+01
   4.2028130e+02   6.3087890e+01
   4.2076340e+02   8.7093750e+01
   4.2124550e+02   1.0923240e+02
   4.2172760e+02   1.1725590e+02
   4.2220970e+02   1.0191210e+02
   4.2269190e+02   9.0425780e+01
   4.2317400e+02   9.1392580e+01
   4.2365610e+02   9.9896480e+01
   4.2413820e+02   1.0875980e+02
   4.2462030e+02   1.1777540e+02
   4.2510240e+02   1.2570310e+02
   4.2558460e+02   1.3556640e+02
   4.2606670e+02   1.4814840e+02
   4.2654880e+02   1.4619340e+02
   4.2703090e+02   1.1600200e+02
   4.2751300e+02   8.3419920e+01
   4.2799510e+02   6.6861330e+01
   4.2847730e+02   7.4044920e+01
   4.2895940e+02   8.1140620e+01
   4.2944150e+02   8.8509770e+01
   4.2992360e+02   9.4146480e+01
   4.3040570e+02   9.0687500e+01
   4.3088780e+02   7.3869140e+01
   4.3137000e+02   6.2236330e+01
   4.3185210e+02   6.7910160e+01
   4.3233420e+02   9.1156250e+01
   4.3281630e+02   1.0316600e+02
   4.3329840e+02   1.0441800e+02
   4.3378050e+02   9.4023440e+01
   4.3426270e+02   6.0615230e+01
   4.3474480e+02   8.1171880e+00
   4.3522690e+02   2.2826170e+01
   4.3570900e+02   1.5947270e+01
   4.3619110e+02   1.1921880e+01
   4.3667320e+02   2.8310550e+01
   4.3715540e+02   3.4222660e+01
   4.3763750e+02   3.8347660e+01
   4.3811960e+02   4.5621090e+01
   4.3860170e+02   5.4593750e+01
   4.3908380e+02   6.3541020e+01
   4.3956590e+02   7.2417970e+01
   4.4004800e+02   7.9361330e+01
   4.4053020e+02   8.3371090e+01
   4.4101230e+02   8.4421880e+01
   4.4149440e+02   8.2636720e+01
   4.4197650e+02   7.1068360e+01
   4.4245860e+02   6.2724610e+01
   4.4294070e+02   6.9289060e+01
   4.4342290e+02   8.8882810e+01
   4.4390500e+02   1.0534180e+02
   4.4438710e+02   1.1866800e+02
   4.4486920e+02   1.2245900e+02
   4.4535130e+02   1.1056250e+02
   4.4583340e+02   6.8992190e+01
   4.4631560e+02   3.5537110e+01
   4.4679770e+02   1.9769530e+01
   4.4727980e+02   1.5964840e+01
   4.4776190e+02   1.4207030e+01
   4.4824400e+02   1.0472660e+01
   4.4872610e+02   1.2316410e+01
   4.4920830e+02   2.4863280e+01
   4.4969040e+02   4.9271480e+01
   4.5017250e+02   6.0750000e+01
   4.5065460e+02   5.1855470e+01
   4.5113670e+02   3.9111330e+01
   4.5161880e+02   3.5597660e+01
   4.5210100e+02   4.4906250e+01
   4.5258310e+02   5.1421880e+01
   4.5306520e+02   5.2046880e+01
   4.5354730e+02   5.1351560e+01
   4.5402940e+02   6.3117190e+01
   4.5451150e+02   8.9771480e+01
   4.5499370e+02   1.1024020e+02
   4.5547580e+02   1.1394530e+02
   4.5595790e+02   1.0298830e+02
   4.5644000e+02   8.5505860e+01
   4.5692210e+02   5.9634770e+01
   4.5740420e+02   4.1941410e+01
   4.5788640e+02   5.7101560e+01
   4.5836850e+02   9.3958980e+01
   4.5885060e+02   1.2119340e+02
   4.5933270e+02   1.2641020e+02
   4.5981480e+02   1.2228710e+02
   4.6029690e+02   1.2477150e+02
   4.6077910e+02   1.3335550e+02
   4.6126120e+02   1.4611910e+02
   4.6174330e+02   1.7764840e+02
   4.6222540e+02   2.0309570e+02
   4.6270750e+02   1.9768750e+02
   4.6318960e+02   1.5704300e+02
   4.6367180e+02   1.1967190e+02
   4.6415390e+02   1.0880860e+02
   4.6463600e+02   1.1046680e+02
   4.6511810e+02   1.1082420e+02
   4.6560020e+02   1.0218160e+02
   4.6608230e+02   9.6720700e+01
   4.6656450e+02   9.9388670e+01
   4.6704660e+02   1.0664840e+02
   4.6752870e+02   1.1166410e+02
   4.6801080e+02   1.1511910e+02
   4.6849290e+02   1.1535350e+02
   4.6897500e+02   1.1008010e+02
   4.6945720e+02   9.5664060e+01
   4.6993930e+02   8.8343750e+01
   4.7042140e+02   9.2765620e+01
   4.7090350e+02   9.9828120e+01
   4.7138560e+02   9.7330080e+01
   4.7186770e+02   7.8070310e+01
   4.7234990e+02   7.1019530e+01
   4.7283200e+02   8.5236330e+01
   4.7331410e+02   1.1390620e+02
   4.7379620e+02   1.3336330e+02
   4.7427830e+02   1.4394920e+02
   4.7476040e+02   1.4464060e+02
   4.7524260e+02   1.2974610e+02
   4.7572470e+02   1.0265230e+02
   4.7620680e+02   8.6031250e+01
   4.7668890e+02   8.2234380e+01
   4.7717100e+02   8.0488280e+01
   4.7765310e+02   6.2789060e+01
   4.7813530e+02   3.7054690e+01
   4.7861740e+02   2.5925780e+01
   4.7909950e+02   4.4257810e+01
   4.7958160e+02   7.1585940e+01
   4.8006370e+02   8.5527340e+01
   4.8054580e+02   8.8378910e+01
   4.8102800e+02   8.8957030e+01
   4.8151010e+02   9.1015620e+01
   4.8199220e+02   9.2707030e+01
   4.8247430e+02   9.0988280e+01
   4.8295640e+02   8.4035160e+01
   4.8343850e+02   8.0347660e+01
   4.8392070e+02   8.8015620e+01
   4.8440280e+02   9.8648440e+01
   4.8488490e+02   1.0355080e+02
   4.8536700e+02   9.3453120e+01
   4.8584910e+02   8.6238280e+01
   4.8633120e+02   8.9484380e+01
   4.8681340e+02   1.0051950e+02
   4.8729550e+02   1.0360160e+02
   4.8777760e+02   9.2554690e+01
   4.8825970e+02   8.2261720e+01
   4.8874180e+02   8.0726560e+01
   4.8922390e+02   9.2289060e+01
   4.8970610e+02   9.1480470e+01
   4.9018820e+02   7.2136720e+01
   4.9067030e+02   5.0093750e+01
   4.9115240e+02   4.1699220e+01
   4.9163450e+02   4.7109380e+01
   4.9211660e+02   6.5714840e+01
   4.9259880e+02   1.0108200e+02
   4.9308090e+02   1.4092970e+02
   4.9356300e+02   1.6029300e+02
   4.9404510e+02   1.6014840e+02
   4.9452720e+02   1.5505080e+02
   4.9500930e+02   1.5394530e+02
   4.9549150e+02   1.5401560e+02
   4.9597360e+02   1.4770310e+02
   4.9645570e+02   1.3398440e+02
   4.9693780e+02   1.2368750e+02
   4.9741990e+02   1.3211720e+02
   4.9790200e+02   1.4909770e+02
   4.9838420e+02   1.5791020e+02
   4.9886630e+02   1.4555080e+02
   4.9934840e+02   1.3592580e+02
   4.9983050e+02   1.5498830e+02
   5.0031260e+02   1.8992970e+02
   5.0079470e+02   2.0808980e+02
   5.0127690e+02   1.7347270e+02
   5.0175900e+02   1.3960550e+02
   5.0224110e+02   1.3690620e+02
   5.0272320e+02   1.7385160e+02
   5.0320530e+02   1.9409770e+02
   5.0368740e+02   1.6698050e+02
   5.0416960e+02   1.3487500e+02
   5.0465170e+02   1.3017190e+02
   5.0513380e+02   1.8049220e+02
   5.0561590e+02   2.0757030e+02
   5.0609800e+02   1.9604300e+02
   5.0658010e+02   1.6267580e+02
   5.0706230e+02   1.4795310e+02
   5.0754440e+02   1.5771480e+02
   5.0802650e+02   1.6626170e+02
   5.0850860e+02   1.6352730e+02
   5.0899070e+02   1.5112110e+02
   5.0947280e+02   1.4349610e+02
   5.0995500e+02   1.4198050e+02
   5.1043710e+02   1.3381640e+02
   5.1091920e+02   9.8304690e+01
   5.1140130e+02   4.5042970e+01
   5.1188340e+02   1.2730470e+01
   5.1236550e+02   1.0933590e+01
   5.1284770e+02   2.0066410e+01
   5.1332980e+02   1.8957030e+01
   5.1381190e+02   1.1492190e+01
   5.1429400e+02   6.3203130e+00
   5.1477610e+02   1.3656250e+01
   5.1525820e+02   2.0570310e+01
   5.1574040e+02   1.0894530e+01
   5.1622250e+02   1.1750000e+01
   5.1670460e+02   2.0992190e+01
   5.1718670e+02   1.7109380e+01
   5.1766880e+02   5.7019530e+01
   5.1815090e+02   6.4265620e+01
   5.1863310e+02   1.1425780e+01
   5.1911520e+02   1.9253910e+01
   5.1959730e+02   2.5390600e-01
   5.2007940e+02   4.1683590e+01
   5.2056150e+02   7.2722660e+01
   5.2104360e+02   9.0886720e+01
   5.2152580e+02   9.9445310e+01
   5.2200790e+02   9.4968750e+01
   5.2249000e+02   8.1675780e+01
   5.2297210e+02   7.5917970e+01
   5.2345420e+02   7.7175780e+01
   5.2393630e+02   8.2914060e+01
   5.2441850e+02   9.5507810e+01
   5.2490060e+02   1.1679690e+02
   5.2538270e+02   1.2133980e+02
   5.2586480e+02   1.0690620e+02
   5.2634690e+02   8.9843750e+01
   5.2682900e+02   9.1730470e+01
   5.2731120e+02   1.0765230e+02
   5.2779330e+02   1.1655080e+02
   5.2827540e+02   1.1173440e+02
   5.2875750e+02   1.0284380e+02
   5.2923960e+02   1.0463280e+02
   5.2972170e+02   1.1254690e+02
   5.3020390e+02   1.1267580e+02
   5.3068600e+02   8.9691410e+01
   5.3116810e+02   6.2167970e+01
   5.3165020e+02   3.8347660e+01
   5.3213230e+02   1.8726560e+01
   5.3261440e+02   1.4769530e+01
   5.3309660e+02   4.7468750e+01
   5.3357870e+02   8.5843750e+01
   5.3406080e+02   1.0788670e+02
   5.3454290e+02   9.6003910e+01
   5.3502500e+02   8.9445310e+01
   5.3550710e+02   9.4101560e+01
   5.3598930e+02   1.0436720e+02
   5.3647140e+02   1.1234770e+02
   5.3695350e+02   1.1767970e+02
   5.3743560e+02   1.2217580e+02
   5.3791770e+02   1.2837890e+02
   5.3839980e+02   1.3485550e+02
   5.3888200e+02   1.2709770e+02
   5.3936410e+02   1.0179300e+02
   5.3984620e+02   7.8781250e+01
   5.4032830e+02   7.1593750e+01
   5.4081040e+02   7.8464840e+01
   5.4129250e+02   9.0261720e+01
   5.4177470e+02   1.0791020e+02
   5.4225680e+02   1.1810940e+02
   5.4273890e+02   9.5203120e+01
   5.4322100e+02   5.4894530e+01
   5.4370310e+02   3.3304690e+01
   5.4418520e+02   5.0531250e+01
   5.4466740e+02   7.3910160e+01
   5.4514950e+02   7.1199220e+01
   5.4563160e+02   5.1066410e+01
   5.4611370e+02   3.5062500e+01
   5.4659580e+02   4.1718750e+01
   5.4707790e+02   4.7804690e+01
   5.4756010e+02   3.8121090e+01
   5.4804220e+02   1.1445310e+01
   5.4852430e+02   9.1406250e+00
   5.4900640e+02   2.7984380e+01
   5.4948850e+02   3.2765620e+01
   5.4997060e+02   1.3230470e+01
   5.5045280e+02   6.2351560e+01
   5.5093490e+02   9.8554690e+01
   5.5141700e+02   7.3414060e+01
   5.5189910e+02   2.6250000e+01
   5.5238120e+02   1.9671880e+01
   5.5286330e+02   6.6531250e+01
   5.5334550e+02   1.0024220e+02
   5.5382760e+02   1.0282030e+02
   5.5430970e+02   8.2437500e+01
   5.5479180e+02   6.1109380e+01
   5.5527390e+02   3.9234380e+01
   5.5575600e+02   2.4703120e+01
   5.5623820e+02   3.1351560e+01
   5.5672030e+02   4.7601560e+01
   5.5720240e+02   4.4441410e+01
   5.5768450e+02   2.0351560e+01
   5.5816660e+02   4.2734380e+00
   5.5864870e+02   1.6148440e+01
   5.5913090e+02   1.6769530e+01
   5.5961300e+02   5.9453130e+00
   5.6009510e+02   2.5683590e+01
   5.6057720e+02   5.0613280e+01
   5.6105930e+02   5.0394530e+01
   5.6154140e+02   3.5191410e+01
   5.6202360e+02   2.3144530e+01
   5.6250570e+02   1.8402340e+01
   5.6298780e+02   1.6964840e+01
   5.6346990e+02   1.7890620e+01
   5.6395200e+02   2.0816410e+01
   5.6443410e+02   2.6222660e+01
   5.6491630e+02   3.8539060e+01
   5.6539840e+02   4.6410160e+01
   5.6588050e+02   4.0437500e+01
   5.6636260e+02   1.5121090e+01
   5.6684470e+02   1.2472660e+01
   5.6732680e+02   3.8160160e+01
   5.6780900e+02   7.0375000e+01
   5.6829110e+02   8.3789060e+01
   5.6877320e+02   8.0378910e+01
   5.6925530e+02   7.4781250e+01
   5.6973740e+02   6.8437500e+01
   5.7021950e+02   6.5000000e+01
   5.7070170e+02   7.3367190e+01
   5.7118380e+02   8.9886720e+01
   5.7166590e+02   1.0249610e+02
   5.7214800e+02   1.0262110e+02
   5.7263010e+02   9.8785160e+01
   5.7311220e+02   9.9367190e+01
   5.7359440e+02   1.0360160e+02
   5.7407650e+02   1.0232810e+02
   5.7455860e+02   8.9906250e+01
   5.7504070e+02   7.4890620e+01
   5.7552280e+02   5.9300780e+01
   5.7600490e+02   4.2003910e+01
   5.7648710e+02   2.9105470e+01
   5.7696920e+02   2.4140620e+01
   5.7745130e+02   2.4011720e+01
   5.7793340e+02   2.3472660e+01
   5.7841550e+02   2.5308590e+01
   5.7889760e+02   1.8386720e+01
   5.7937980e+02   2.7617190e+00
   5.7986190e+02   2.9714840e+01
   5.8034400e+02   4.3308590e+01
   5.8082610e+02   4.3375000e+01
   5.8130820e+02   3.0046880e+01
   5.8179030e+02   5.5117190e+00
   5.8227250e+02   5.2128910e+01
   5.8275460e+02   7.5816410e+01
   5.8323670e+02   7.7625000e+01
   5.8371880e+02   6.9285160e+01
   5.8420090e+02   4.5195310e+01
   5.8468300e+02   2.1644530e+01
   5.8516520e+02   2.6144530e+01
   5.8564730e+02   6.7140620e+01
   5.8612940e+02   1.0090620e+02
   5.8661150e+02   8.7851560e+01
   5.8709360e+02   6.0109380e+01
   5.8757570e+02   5.1441410e+01
   5.8805780e+02   8.4488280e+01
   5.8853990e+02   1.1990620e+02
   5.8902200e+02   1.6556250e+02
   5.8950420e+02   2.0686720e+02
   5.8998630e+02   2.0903910e+02
   5.9046840e+02   1.3926170e+02
   5.9095050e+02   8.3457030e+01
   5.9143260e+02   6.6847660e+01
   5.9191470e+02   8.4792970e+01
   5.9239690e+02   9.8140620e+01
   5.9287900e+02   1.0805470e+02
   5.9336110e+02   1.0969920e+02
   5.9384320e+02   9.6863280e+01
   5.9432530e+02   7.2500000e+01
   5.9480740e+02   4.8898440e+01
   5.9528960e+02   2.6242190e+01
   5.9577170e+02   1.1328120e+01
   5.9625380e+02   2.0250000e+01
   5.9673590e+02   4.0089840e+01
   5.9721800e+02   4.6417970e+01
   5.9770010e+02   2.7832030e+01
   5.9818230e+02   5.9531250e+00
   5.9866440e+02   1.0843750e+01
   5.9914650e+02   2.0054690e+01
   5.9962860e+02   1.7460940e+01
   6.0011070e+02   1.1808590e+01
   6.0059280e+02   3.8761720e+01
   6.0107500e+02   5.2976560e+01
   6.0155710e+02   5.5390620e+01
   6.0203920e+02   5.8789060e+01
   6.0252130e+02   5.9332030e+01
   6.0300340e+02   6.5863280e+01
   6.0348550e+02   8.4593750e+01
   6.0396770e+02   1.1718360e+02
   6.0444980e+02   1.3537500e+02
   6.0493190e+02   1.3581250e+02
   6.0541400e+02   1.3148830e+02
   6.0589610e+02   1.3302730e+02
   6.0637820e+02   1.3896090e+02
   6.0686040e+02   1.4718360e+02
   6.0734250e+02   1.6078520e+02
   6.0782460e+02   1.6841410e+02
   6.0830670e+02   1.4207420e+02
   6.0878880e+02   9.7691410e+01
   6.0927090e+02   7.4250000e+01
   6.0975310e+02   1.0438670e+02
   6.1023520e+02   1.3791800e+02
   6.1071730e+02   1.4208590e+02
   6.1119940e+02   1.2405470e+02
   6.1168150e+02   1.0376950e+02
   6.1216360e+02   7.8691410e+01
   6.1264580e+02   6.1648440e+01
   6.1312790e+02   6.3136720e+01
   6.1361000e+02   8.4343750e+01
   6.1409210e+02   9.2500000e+01
   6.1457420e+02   8.2621090e+01
   6.1505630e+02   6.7085940e+01
   6.1553850e+02   5.1414060e+01
   6.1602060e+02   3.4292970e+01
   6.1650270e+02   2.1089840e+01
   6.1698480e+02   1.3128910e+01
   6.1746690e+02   8.8828130e+00
   6.1794900e+02   3.4179690e+00
   6.1843120e+02   2.1171880e+00
   6.1891330e+02   5.4101560e+00
   6.1939540e+02   3.3457030e+01
   6.1987750e+02   6.2828120e+01
   6.2035960e+02   6.6187500e+01
   6.2084170e+02   5.3558590e+01
   6.2132390e+02   4.7156250e+01
   6.2180600e+02   6.4378910e+01
   6.2228810e+02   8.2890620e+01
   6.2277020e+02   8.7843750e+01
   6.2325230e+02   8.2316410e+01
   6.2373440e+02   8.0285160e+01
   6.2421660e+02   8.6621090e+01
   6.2469870e+02   9.5132810e+01
   6.2518080e+02   1.0462110e+02
   6.2566290e+02   1.1497660e+02
   6.2614500e+02   1.1813280e+02
   6.2662710e+02   1.0808200e+02
   6.2710930e+02   9.9804690e+01
   6.2759140e+02   1.0770700e+02
   6.2807350e+02   1.3376950e+02
   6.2855560e+02   1.4460160e+02
   6.2903770e+02   1.3789060e+02
   6.2951980e+02   1.1880080e+02
   6.3000200e+02   8.4214840e+01
   6.3048410e+02   4.1738280e+01
   6.3096620e+02   1.7464840e+01
   6.3144830e+02   2.6625000e+01
   6.3193040e+02   3.9402340e+01
   6.3241250e+02   2.0128910e+01
   6.3289470e+02   1.5484380e+01
   6.3337680e+02   3.6640620e+01
   6.3385890e+02   1.4910160e+01
   6.3434100e+02   9.4296880e+00
   6.3482310e+02   2.1140620e+01
   6.3530520e+02   2.1613280e+01
   6.3578740e+02   1.9628910e+01
   6.3626950e+02   1.3359380e+00
   6.3675160e+02   2.8085940e+00
   6.3723370e+02   2.1464840e+01
   6.3771580e+02   7.4886720e+01
   6.3819790e+02   1.1145310e+02
   6.3868010e+02   1.2956640e+02
   6.3916220e+02   1.3670700e+02
   6.3964430e+02   1.3315230e+02
   6.4012640e+02   1.1882030e+02
   6.4060850e+02   1.1592970e+02
   6.4109060e+02   1.2707420e+02
   6.4157280e+02   1.4023440e+02
   6.4205490e+02   1.4350000e+02
   6.4253700e+02   1.3967190e+02
   6.4301910e+02   1.3478520e+02
   6.4350120e+02   1.3195310e+02
   6.4398330e+02   1.2632810e+02
   6.4446550e+02   1.0753120e+02
   6.4494760e+02   8.6246090e+01
   6.4542970e+02   7.9824220e+01
   6.4591180e+02   1.1900390e+02
   6.4639390e+02   1.4646480e+02
   6.4687600e+02   1.4238280e+02
   6.4735820e+02   1.1487500e+02
   6.4784030e+02   9.2496090e+01
   6.4832240e+02   7.6609380e+01
   6.4880450e+02   6.3152340e+01
   6.4928660e+02   4.8816410e+01
   6.4976870e+02   3.4726560e+01
   6.5025090e+02   3.6730470e+01
   6.5073300e+02   5.6816410e+01
   6.5121510e+02   7.1800780e+01
   6.5169720e+02   5.8070310e+01
   6.5217930e+02   2.7230470e+01
   6.5266140e+02   5.5273440e+00
   6.5314360e+02   5.1523440e+00
   6.5362570e+02   6.3710940e+00
   6.5410780e+02   7.3437500e+00
   6.5458990e+02   2.7078120e+01
   6.5507200e+02   4.3164060e+01
   6.5555410e+02   5.0738280e+01
   6.5603630e+02   5.9859380e+01
   6.5651840e+02   8.2035160e+01
   6.5700050e+02   1.0351560e+02
   6.5748260e+02   1.0517190e+02
   6.5796470e+02   6.3972660e+01
   6.5844680e+02   4.3371090e+01
   6.5892900e+02   5.8433590e+01
   6.5941110e+02   9.3847660e+01
   6.5989320e+02   1.1085550e+02
   6.6037530e+02   1.0670700e+02
   6.6085740e+02   1.0480470e+02
   6.6133950e+02   1.1289450e+02
   6.6182170e+02   1.2887110e+02
   6.6230380e+02   1.5183980e+02
   6.6278590e+02   1.7996090e+02
   6.6326800e+02   2.0224220e+02
   6.6375010e+02   2.1109770e+02
   6.6423220e+02   2.1087110e+02
   6.6471440e+02   2.0247660e+02
   6.6519650e+02   1.8654300e+02
   6.6567860e+02   1.7513670e+02
   6.6616070e+02   1.7892580e+02
   6.6664280e+02   1.8528520e+02
   6.6712490e+02   1.8625000e+02
   6.6760710e+02   1.7882030e+02
   6.6808920e+02   1.7365620e+02
   6.6857130e+02   1.6841410e+02
   6.6905340e+02   1.6933590e+02
   6.6953550e+02   1.8563670e+02
   6.7001760e+02   2.2184770e+02
   6.7049980e+02   2.4415230e+02
   6.7098190e+02   2.4687110e+02
   6.7146400e+02   2.4220310e+02
   6.7194610e+02   2.4657810e+02
   6.7242820e+02   2.5828910e+02
   6.7291030e+02   2.7200780e+02
   6.7339250e+02   2.8732030e+02
   6.7387460e+02   3.0147270e+02
   6.7435670e+02   3.0216410e+02
   6.7483880e+02   2.9932810e+02
   6.7532090e+02   3.1485940e+02
   6.7580300e+02   3.8581250e+02
   6.7628520e+02   4.4721480e+02
   6.7676730e+02   4.6328910e+02
   6.7724940e+02   4.4273050e+02
   6.7773150e+02   4.4405080e+02
   6.7821360e+02   4.8600390e+02
   6.7869570e+02   5.2626560e+02
   6.7917790e+02   5.4919530e+02
   6.7966000e+02   5.5589450e+02
   6.8014210e+02   5.6452340e+02
   6.8062420e+02   5.7524220e+02
   6.8110630e+02   5.8883590e+02
   6.8158840e+02   6.1009380e+02
   6.8207060e+02   6.3538670e+02
   6.8255270e+02   6.4891020e+02
   6.8303480e+02   6.5007420e+02
   6.8351690e+02   6.5492970e+02
   6.8399900e+02   6.8221090e+02
   6.8448110e+02   7.1821480e+02
   6.8496330e+02   7.4866800e+02
   6.8544540e+02   7.7069920e+02
   6.8592750e+02   7.8813670e+02
   6.8640960e+02   8.0441020e+02
   6.8689170e+02   8.1692970e+02
   6.8737380e+02   8.2301560e+02
   6.8785600e+02   8.2133590e+02
   6.8833810e+02   8.1783980e+02
   6.8882020e+02   8.1116800e+02
   6.8930230e+02   8.0635160e+02
   6.8978440e+02   8.1946090e+02
   6.9026650e+02   8.5546880e+02
   6.9074870e+02   8.8159380e+02
   6.9123080e+02   8.8848830e+02
   6.9171290e+02   8.8121880e+02
   6.9219500e+02   8.6102730e+02
   6.9267710e+02   8.2891410e+02
   6.9315920e+02   7.9125390e+02
   6.9364140e+02   7.4608980e+02
   6.9412350e+02   7.0036720e+02
   6.9460560e+02   6.6319530e+02
   6.9508770e+02   6.3180860e+02
   6.9556980e+02   5.9265230e+02
   6.9605190e+02   5.3030860e+02
   6.9653410e+02   4.7208980e+02
   6.9701620e+02   4.2782030e+02
   6.9749830e+02   3.9746090e+02
   6.9798040e+02   3.7712890e+02
   6.9846250e+02   3.7291410e+02
   6.9894460e+02   3.7048440e+02
   6.9942680e+02   3.6403520e+02
   6.9990890e+02   3.5445310e+02
   7.0039100e+02   3.3487500e+02
   7.0087310e+02   3.0302730e+02
   7.0135520e+02   2.7001560e+02
   7.0183730e+02   2.4642580e+02
   7.0231950e+02   2.3368360e+02
   7.0280160e+02   2.3769920e+02
   7.0328370e+02   2.6180080e+02
   7.0376580e+02   2.8162500e+02
   7.0424790e+02   2.8017580e+02
   7.0473000e+02   2.6814450e+02
   7.0521220e+02   2.5517970e+02
   7.0569430e+02   2.3820700e+02
   7.0617640e+02   2.2848830e+02
   7.0665850e+02   2.3147660e+02
   7.0714060e+02   2.3844530e+02
   7.0762270e+02   2.3942970e+02
   7.0810490e+02   2.3357420e+02
   7.0858700e+02   2.2409770e+02
   7.0906910e+02   2.0939840e+02
   7.0955120e+02   1.9492190e+02
   7.1003330e+02   1.9452730e+02
   7.1051540e+02   2.0465620e+02
   7.1099760e+02   2.0555080e+02
   7.1147970e+02   1.8382420e+02
   7.1196180e+02   1.5865230e+02
   7.1244390e+02   1.5080860e+02
   7.1292600e+02   1.5498440e+02
   7.1340810e+02   1.5846480e+02
   7.1389030e+02   1.5165230e+02
   7.1437240e+02   1.4801560e+02
   7.1485450e+02   1.5771880e+02
   7.1533660e+02   1.7748830e+02
   7.1581870e+02   1.8529300e+02
   7.1630080e+02   1.7877340e+02
   7.1678300e+02   1.6448830e+02
   7.1726510e+02   1.3921480e+02
   7.1774720e+02   1.0689060e+02
   7.1822930e+02   1.0451950e+02
   7.1871140e+02   1.3428910e+02
   7.1919350e+02   1.5969920e+02
   7.1967570e+02   1.5127730e+02
   7.2015780e+02   1.2437890e+02
   7.2063990e+02   1.0466410e+02
   7.2112200e+02   9.3152340e+01
   7.2160410e+02   9.1785160e+01
   7.2208620e+02   1.0896480e+02
   7.2256840e+02   1.3087110e+02
   7.2305050e+02   1.4897660e+02
   7.2353260e+02   1.6262890e+02
   7.2401470e+02   1.6646090e+02
   7.2449680e+02   1.5176950e+02
   7.2497890e+02   1.3300780e+02
   7.2546110e+02   1.1871880e+02
   7.2594320e+02   1.0981250e+02
   7.2642530e+02   1.0356250e+02
   7.2690740e+02   1.0187500e+02
   7.2738950e+02   9.8851560e+01
   7.2787160e+02   8.4988280e+01
   7.2835380e+02   6.4421880e+01
   7.2883590e+02   5.3164060e+01
   7.2931800e+02   5.5156250e+01
   7.2980010e+02   6.3503910e+01
   7.3028220e+02   7.9101560e+01
   7.3076430e+02   9.5085940e+01
   7.3124650e+02   1.0150780e+02
   7.3172860e+02   9.1164060e+01
   7.3221070e+02   7.7605470e+01
   7.3269280e+02   5.7296880e+01
   7.3317490e+02   3.7691410e+01
   7.3365700e+02   3.0003910e+01
   7.3413920e+02   3.6734380e+01
   7.3462130e+02   4.8957030e+01
   7.3510340e+02   6.5273440e+01
   7.3558550e+02   8.2890620e+01
   7.3606760e+02   1.0157420e+02
   7.3654970e+02   1.2061720e+02
   7.3703190e+02   1.2623440e+02
   7.3751400e+02   1.0959380e+02
   7.3799610e+02   8.3167970e+01
   7.3847820e+02   5.8894530e+01
   7.3896030e+02   3.8351560e+01
   7.3944240e+02   2.5078120e+01
   7.3992460e+02   1.9808590e+01
   7.4040670e+02   2.4085940e+01
   7.4088880e+02   5.1144530e+01
   7.4137090e+02   9.2277340e+01
   7.4185300e+02   1.0630860e+02
   7.4233510e+02   7.7238280e+01
   7.4281730e+02   4.3234380e+01
   7.4329940e+02   9.2148440e+00
   7.4378150e+02   2.1210940e+01
   7.4426360e+02   1.9757810e+01
   7.4474570e+02   1.5386720e+01
   7.4522780e+02   3.8781250e+01
   7.4571000e+02   2.1757810e+00
   7.4619210e+02   5.5957030e+01
   7.4667420e+02   5.1144530e+01
   7.4715630e+02   7.9023440e+00
   7.4763840e+02   6.0214840e+01
   7.4812050e+02   6.9335940e+01
   7.4860270e+02   6.0125000e+01
   7.4908480e+02   4.2875000e+01
   7.4956690e+02   1.7988280e+01
   7.5004900e+02   6.3320310e+00
   7.5053110e+02   2.3105470e+01
   7.5101320e+02   3.9066410e+01
   7.5149540e+02   4.0109380e+01
   7.5197750e+02   2.4968750e+01
   7.5245960e+02   1.2718750e+01
   7.5294170e+02   3.5039060e+00
   7.5342380e+02   3.5859380e+00
   7.5390590e+02   1.0503910e+01
   7.5438810e+02   1.5472660e+01
   7.5487020e+02   1.1253910e+01
   7.5535230e+02   2.9921880e+00
   7.5583440e+02   1.4046880e+01
   7.5631650e+02   1.2097660e+01
   7.5679860e+02   2.8085940e+00
   7.5728080e+02   1.2675780e+01
   7.5776290e+02   4.0941410e+01
   7.5824500e+02   4.8394530e+01
   7.5872710e+02   4.8281250e+00
   7.5920920e+02   4.1214840e+01
   7.5969130e+02   5.2636720e+01
   7.6017350e+02   1.5046880e+01
   7.6065560e+02   3.3476560e+00
   7.6113770e+02   2.3300780e+01
   7.6161980e+02   5.4988280e+01
   7.6210190e+02   8.0558590e+01
   7.6258400e+02   9.9953120e+01
   7.6306620e+02   1.0885940e+02
   7.6354830e+02   1.0370310e+02
   7.6403040e+02   1.0124220e+02
   7.6451250e+02   1.2089450e+02
   7.6499460e+02   1.4843750e+02
   7.6547670e+02   1.6666410e+02
   7.6595890e+02   1.6831250e+02
   7.6644100e+02   1.6569530e+02
   7.6692310e+02   1.5646090e+02
   7.6740520e+02   1.4697660e+02
   7.6788730e+02   1.4529690e+02
   7.6836940e+02   1.5525780e+02
   7.6885160e+02   1.5852730e+02
   7.6933370e+02   1.5189060e+02
   7.6981580e+02   1.4144140e+02
   7.7029790e+02   1.3969920e+02
   7.7078000e+02   1.4233980e+02
   7.7126210e+02   1.3150780e+02
   7.7174430e+02   9.7285160e+01
   7.7222640e+02   6.1402340e+01
   7.7270850e+02   3.6742190e+01
   7.7319060e+02   2.4042970e+01
   7.7367270e+02   2.4402340e+01
   7.7415480e+02   5.1476560e+01
   7.7463700e+02   7.5992190e+01
   7.7511910e+02   9.6039060e+01
   7.7560120e+02   1.1023830e+02
   7.7608330e+02   1.1483200e+02
   7.7656540e+02   1.0811330e+02
   7.7704750e+02   1.0007030e+02
   7.7752970e+02   9.1761720e+01
   7.7801180e+02   8.4875000e+01
   7.7849390e+02   7.8871090e+01
   7.7897600e+02   7.5914060e+01
   7.7945810e+02   8.5214840e+01
   7.7994020e+02   1.1391800e+02
   7.8042240e+02   1.4888280e+02
   7.8090450e+02   1.8354300e+02
   7.8138660e+02   2.1503910e+02
   7.8186870e+02   2.3817970e+02
   7.8235080e+02   2.4388280e+02
   7.8283290e+02   2.4867580e+02
   7.8331510e+02   2.5940620e+02
   7.8379720e+02   2.6910550e+02
   7.8427930e+02   2.5997660e+02
   7.8476140e+02   2.2787890e+02
   7.8524350e+02   1.9976560e+02
   7.8572560e+02   1.8413280e+02
   7.8620770e+02   1.7601950e+02
   7.8668980e+02   1.6842580e+02
   7.8717190e+02   1.6087500e+02
   7.8765410e+02   1.5012890e+02
   7.8813620e+02   1.3889840e+02
   7.8861830e+02   1.2171480e+02
   7.8910040e+02   8.8027340e+01
   7.8958250e+02   4.6367190e+01
   7.9006460e+02   1.7832030e+01
   7.9054680e+02   2.1003910e+01
   7.9102890e+02   2.1300780e+01
   7.9151100e+02   8.8945310e+00
   7.9199310e+02   1.0062500e+01
   7.9247520e+02   1.6726560e+01
   7.9295730e+02   1.0839840e+01
   7.9343950e+02   2.2226560e+00
   7.9392160e+02   2.2273440e+01
   7.9440370e+02   4.5906250e+01
   7.9488580e+02   7.1964840e+01
   7.9536790e+02   9.6656250e+01
   7.9585000e+02   1.0748440e+02
   7.9633220e+02   8.5019530e+01
   7.9681430e+02   6.0964840e+01
   7.9729640e+02   5.2085940e+01
   7.9777850e+02   5.6851560e+01
   7.9826060e+02   6.3738280e+01
   7.9874270e+02   7.8093750e+01
   7.9922490e+02   8.4761720e+01
   7.9970700e+02   7.9792970e+01
   8.0018910e+02   6.5460940e+01
   8.0067120e+02   4.4097660e+01
   8.0115330e+02   1.5933590e+01
   8.0163540e+02   7.2656300e-01
   8.0211760e+02   8.8593750e+00
   8.0259970e+02   3.2804690e+01
   8.0308180e+02   5.6511720e+01
   8.0356390e+02   7.7960940e+01
   8.0404600e+02   8.7136720e+01
   8.0452810e+02   7.9027340e+01
   8.0501030e+02   7.0437500e+01
   8.0549240e+02   6.3851560e+01
   8.0597450e+02   5.8261720e+01
   8.0645660e+02   4.7640620e+01
   8.0693870e+02   2.2757810e+01
   8.0742080e+02   1.2402340e+01
   8.0790300e+02   2.7902340e+01
   8.0838510e+02   6.0644530e+01
   8.0886720e+02   8.7179690e+01
   8.0934930e+02   1.0742580e+02
   8.0983140e+02   1.2315620e+02
   8.1031350e+02   1.3578120e+02
   8.1079570e+02   1.4296090e+02
   8.1127780e+02   1.4310160e+02
   8.1175990e+02   1.3538280e+02
   8.1224200e+02   1.1816020e+02
   8.1272410e+02   7.6242190e+01
   8.1320620e+02   4.2750000e+01
   8.1368840e+02   2.9406250e+01
   8.1417050e+02   3.1300780e+01
   8.1465260e+02   3.4457030e+01
   8.1513470e+02   3.9210940e+01
   8.1561680e+02   4.0449220e+01
   8.1609890e+02   3.8171880e+01
   8.1658110e+02   3.6656250e+01
   8.1706320e+02   3.7250000e+01
   8.1754530e+02   3.8488280e+01
   8.1802740e+02   3.5878910e+01
   8.1850950e+02   2.3097660e+01
   8.1899160e+02   9.9335940e+00
   8.1947380e+02   5.0000000e-01
   8.1995590e+02   6.4960940e+00
   8.2043800e+02   3.6914060e+00
   8.2092010e+02   2.6796880e+01
   8.2140220e+02   4.2019530e+01
   8.2188430e+02   2.7800780e+01
   8.2236650e+02   3.5429690e+00
   8.2284860e+02   5.1679690e+00
   8.2333070e+02   2.4738280e+01
   8.2381280e+02   4.3851560e+01
   8.2429490e+02   3.5160160e+01
   8.2477700e+02   1.5371090e+01
   8.2525920e+02   1.6988280e+01
   8.2574130e+02   3.3289060e+01
   8.2622340e+02   4.4937500e+01
   8.2670550e+02   3.9687500e+01
   8.2718760e+02   3.2316410e+01
   8.2766970e+02   2.1250000e+01
   8.2815190e+02   1.2988280e+01
   8.2863400e+02   2.4101560e+01
   8.2911610e+02   7.0882810e+01
   8.2959820e+02   9.5433590e+01
   8.3008030e+02   7.9800780e+01
   8.3056240e+02   4.7121090e+01
   8.3104460e+02   4.6289060e+01
   8.3152670e+02   7.0933590e+01
   8.3200880e+02   8.5789060e+01
   8.3249090e+02   7.1488280e+01
   8.3297300e+02   5.8613280e+01
   8.3345510e+02   8.5972660e+01
   8.3393730e+02   1.3078120e+02
   8.3441940e+02   1.5599220e+02
   8.3490150e+02   1.3849220e+02
   8.3538360e+02   1.1705470e+02
   8.3586570e+02   8.5570310e+01
   8.3634780e+02   6.0242190e+01
   8.3683000e+02   7.4316410e+01
   8.3731210e+02   1.3391020e+02
   8.3779420e+02   1.6475000e+02
   8.3827630e+02   1.4782420e+02
   8.3875840e+02   1.1679300e+02
   8.3924050e+02   1.1978910e+02
   8.3972270e+02   1.4259380e+02
   8.4020480e+02   1.5516020e+02
   8.4068690e+02   1.4206640e+02
   8.4116900e+02   1.3346880e+02
   8.4165110e+02   1.4903520e+02
   8.4213320e+02   1.7428120e+02
   8.4261540e+02   1.9233200e+02
   8.4309750e+02   2.0424610e+02
   8.4357960e+02   2.0450000e+02
   8.4406170e+02   1.9019530e+02
   8.4454380e+02   1.6920310e+02
   8.4502590e+02   1.4787110e+02
   8.4550810e+02   1.2757420e+02
   8.4599020e+02   1.1783590e+02
   8.4647230e+02   1.2205080e+02
   8.4695440e+02   1.2510160e+02
   8.4743650e+02   1.1482810e+02
   8.4791860e+02   9.6148440e+01
   8.4840080e+02   7.3089840e+01
   8.4888290e+02   4.2199220e+01
   8.4936500e+02   2.0109380e+01
   8.4984710e+02   9.6757810e+00
   8.5032920e+02   7.3906250e+00
   8.5081130e+02   1.3984380e+01
   8.5129350e+02   3.1867190e+01
   8.5177560e+02   4.3472660e+01
   8.5225770e+02   4.8453120e+01
   8.5273980e+02   4.3910160e+01
   8.5322190e+02   1.0500000e+01
   8.5370400e+02   2.7535160e+01
   8.5418620e+02   2.6234380e+01
   8.5466830e+02   2.0437500e+01
   8.5515040e+02   6.6980470e+01
   8.5563250e+02   1.0006640e+02
   8.5611460e+02   1.1857810e+02
   8.5659670e+02   1.1433200e+02
   8.5707890e+02   8.1976560e+01
   8.5756100e+02   8.1117190e+01
   8.5804310e+02   1.2119530e+02
   8.5852520e+02   1.6145700e+02
   8.5900730e+02   1.7131250e+02
   8.5948940e+02   1.5866410e+02
   8.5997160e+02   1.5757420e+02
   8.6045370e+02   1.6660940e+02
   8.6093580e+02   1.7148050e+02
   8.6141790e+02   1.5669920e+02
   8.6190000e+02   1.4044530e+02
   8.6238210e+02   1.3732810e+02
   8.6286430e+02   1.4755470e+02
   8.6334640e+02   1.5507030e+02
   8.6382850e+02   1.6096480e+02
   8.6431060e+02   1.6146090e+02
   8.6479270e+02   1.5332030e+02
   8.6527480e+02   1.3966410e+02
   8.6575700e+02   1.3557810e+02
   8.6623910e+02   1.4063280e+02
   8.6672120e+02   1.4344140e+02
   8.6720330e+02   1.2792580e+02
   8.6768540e+02   1.1547270e+02
   8.6816750e+02   1.4258200e+02
   8.6864970e+02   1.9218360e+02
   8.6913180e+02   2.1480080e+02
   8.6961390e+02   1.5263280e+02
   8.7009600e+02   1.1055860e+02
   8.7057810e+02   1.2124220e+02
   8.7106020e+02   1.6473050e+02
   8.7154240e+02   1.9635550e+02
   8.7202450e+02   2.1642970e+02
   8.7250660e+02   2.1631640e+02
   8.7298870e+02   1.8746880e+02
   8.7347080e+02   1.4989450e+02
   8.7395290e+02   1.3494530e+02
   8.7443510e+02   1.3475780e+02
   8.7491720e+02   1.3182030e+02
   8.7539930e+02   1.1482420e+02
   8.7588140e+02   1.0319530e+02
   8.7636350e+02   1.1668750e+02
   8.7684560e+02   1.3486330e+02
   8.7732780e+02   1.2913280e+02
   8.7780990e+02   9.2191410e+01
   8.7829200e+02   5.1378910e+01
   8.7877410e+02   2.9531250e+00
   8.7925620e+02   3.2511720e+01
   8.7973830e+02   1.0152340e+01
   8.8022050e+02   4.5156250e+01
   8.8070260e+02   5.6250000e+01
   8.8118470e+02   1.1132810e+00
   8.8166680e+02   4.5625000e+01
   8.8214890e+02   2.3617190e+01
   8.8263100e+02   2.1027340e+01
   8.8311320e+02   4.5253910e+01
   8.8359530e+02   3.2289060e+01
   8.8407740e+02   3.5664060e+01
   8.8455950e+02   6.2878910e+01
   8.8504160e+02   9.0589840e+01
   8.8552370e+02   1.0098830e+02
   8.8600590e+02   9.5574220e+01
   8.8648800e+02   8.1835940e+01
   8.8697010e+02   6.0226560e+01
   8.8745220e+02   3.9691410e+01
   8.8793430e+02   2.5816410e+01
   8.8841640e+02   1.7015620e+01
   8.8889860e+02   1.0687500e+01
   8.8938070e+02   7.1484380e+00
   8.8986280e+02   1.5761720e+01
   8.9034490e+02   5.2734380e+01
   8.9082700e+02   8.1593750e+01
   8.9130910e+02   8.7156250e+01
   8.9179130e+02   7.4171880e+01
   8.9227340e+02   6.2250000e+01
   8.9275550e+02   5.1929690e+01
   8.9323760e+02   5.0214840e+01
   8.9371970e+02   7.0839840e+01
   8.9420180e+02   9.3390620e+01
   8.9468400e+02   9.1785160e+01
   8.9516610e+02   7.4421880e+01
   8.9564820e+02   6.4972660e+01
   8.9613030e+02   6.8808590e+01
   8.9661240e+02   8.3906250e+01
   8.9709450e+02   1.1695700e+02
   8.9757670e+02   1.5580860e+02
   8.9805880e+02   1.7340620e+02
   8.9854090e+02   1.6935160e+02
   8.9902300e+02   1.5625000e+02
   8.9950510e+02   1.3236720e+02
   8.9998720e+02   1.1333590e+02
   9.0046940e+02   1.2590230e+02
   9.0095150e+02   1.5501170e+02
   9.0143360e+02   1.7488670e+02
   9.0191570e+02   1.7186720e+02
   9.0239780e+02   1.7282420e+02
   9.0287990e+02   1.9585550e+02
   9.0336210e+02   2.1852730e+02
   9.0384420e+02   2.1840620e+02
   9.0432630e+02   1.8826170e+02
   9.0480840e+02   1.7624610e+02
   9.0529050e+02   1.8646090e+02
   9.0577260e+02   1.9825000e+02
   9.0625480e+02   1.8358200e+02
   9.0673690e+02   1.6025000e+02
   9.0721900e+02   1.6637500e+02
   9.0770110e+02   2.0690230e+02
   9.0818320e+02   2.2460550e+02
   9.0866530e+02   1.5997660e+02
   9.0914750e+02   9.6164060e+01
   9.0962960e+02   8.4261720e+01
   9.1011170e+02   1.2322270e+02
   9.1059380e+02   1.3995700e+02
   9.1107590e+02   1.3036720e+02
   9.1155800e+02   1.1880860e+02
   9.1204020e+02   1.2762500e+02
   9.1252230e+02   1.4490230e+02
   9.1300440e+02   1.3482810e+02
   9.1348650e+02   1.0561330e+02
   9.1396860e+02   8.7199220e+01
   9.1445070e+02   1.0807810e+02
   9.1493290e+02   1.2762110e+02
   9.1541500e+02   1.2516020e+02
   9.1589710e+02   1.0898830e+02
   9.1637920e+02   9.9414060e+01
   9.1686130e+02   9.6253910e+01
   9.1734340e+02   1.0076950e+02
   9.1782560e+02   1.1635550e+02
   9.1830770e+02   1.3241410e+02
   9.1878980e+02   1.2481640e+02
   9.1927190e+02   1.0525780e+02
   9.1975400e+02   1.0501950e+02
   9.2023610e+02   1.4899610e+02
   9.2071830e+02   1.7849610e+02
   9.2120040e+02   1.5237500e+02
   9.2168250e+02   1.0847270e+02
   9.2216460e+02   8.5070310e+01
   9.2264670e+02   9.0691410e+01
   9.2312880e+02   9.3187500e+01
   9.2361100e+02   9.1890620e+01
   9.2409310e+02   8.9968750e+01
   9.2457520e+02   9.4144530e+01
   9.2505730e+02   9.9296880e+01
   9.2553940e+02   8.8156250e+01
   9.2602150e+02   6.0359380e+01
   9.2650370e+02   4.3503910e+01
   9.2698580e+02   5.8894530e+01
   9.2746790e+02   8.4687500e+01
   9.2795000e+02   1.1370700e+02
   9.2843210e+02   1.4408980e+02
   9.2891420e+02   1.5336330e+02
   9.2939640e+02   1.3618750e+02
   9.2987850e+02   1.1671880e+02
   9.3036060e+02   1.0310160e+02
   9.3084270e+02   9.5660160e+01
   9.3132480e+02   9.8683590e+01
   9.3180690e+02   1.0887890e+02
   9.3228910e+02   1.1578120e+02
   9.3277120e+02   1.1612500e+02
   9.3325330e+02   1.1008200e+02
   9.3373540e+02   8.8003910e+01
   9.3421750e+02   6.2277340e+01
   9.3469960e+02   5.8460940e+01
   9.3518180e+02   8.6164060e+01
   9.3566390e+02   1.0475000e+02
   9.3614600e+02   1.1000780e+02
   9.3662810e+02   1.0457030e+02
   9.3711020e+02   8.6925780e+01
   9.3759230e+02   6.3980470e+01
   9.3807450e+02   3.9554690e+01
   9.3855660e+02   1.1363280e+01
   9.3903870e+02   4.6757810e+00
   9.3952080e+02   3.3750000e+00
   9.4000290e+02   2.3128910e+01
   9.4048500e+02   4.2640620e+01
   9.4096720e+02   5.9371090e+01
   9.4144930e+02   7.5777340e+01
   9.4193140e+02   9.1667970e+01
   9.4241350e+02   1.0318750e+02
   9.4289560e+02   1.0623440e+02
   9.4337770e+02   1.0273440e+02
   9.4385990e+02   9.3722660e+01
   9.4434200e+02   8.0707030e+01
   9.4482410e+02   7.4675780e+01
   9.4530620e+02   9.2902340e+01
   9.4578830e+02   1.0657030e+02
   9.4627040e+02   9.8722660e+01
   9.4675260e+02   7.9078120e+01
   9.4723470e+02   7.3363280e+01
   9.4771680e+02   8.4289060e+01
   9.4819890e+02   9.9960940e+01
   9.4868100e+02   1.2245310e+02
   9.4916310e+02   1.3844530e+02
   9.4964530e+02   1.1941410e+02
   9.5012740e+02   8.1648440e+01
   9.5060950e+02   5.5929690e+01
   9.5109160e+02   5.5921880e+01
   9.5157370e+02   5.5070310e+01
   9.5205580e+02   3.9437500e+01
   9.5253800e+02   2.3101560e+01
   9.5302010e+02   1.7386720e+01
   9.5350220e+02   2.3242190e+01
   9.5398430e+02   2.6519530e+01
   9.5446640e+02   2.5960940e+01
   9.5494850e+02   2.9328120e+01
   9.5543070e+02   5.4613280e+01
   9.5591280e+02   8.1230470e+01
   9.5639490e+02   7.8269530e+01
   9.5687700e+02   4.7277340e+01
   9.5735910e+02   2.0804690e+01
   9.5784120e+02   1.4246090e+01
   9.5832340e+02   1.0769530e+01
   9.5880550e+02   6.6640630e+00
   9.5928760e+02   1.9335940e+00
   9.5976970e+02   4.5273440e+00
   9.6025180e+02   1.2597660e+01
   9.6073390e+02   2.3699220e+01
   9.6121610e+02   4.4132810e+01
   9.6169820e+02   5.8097660e+01
   9.6218030e+02   4.1050780e+01
   9.6266240e+02   9.0117190e+00
   9.6314450e+02   1.3335940e+01
   9.6362660e+02   5.8281250e+00
   9.6410880e+02   8.0937500e+00
   9.6459090e+02   2.6312500e+01
   9.6507300e+02   4.8246090e+01
   9.6555510e+02   6.2960940e+01
   9.6603720e+02   7.0144530e+01
   9.6651930e+02   6.6335940e+01
   9.6700150e+02   5.1011720e+01
   9.6748360e+02   3.8199220e+01
   9.6796570e+02   4.4066410e+01
   9.6844780e+02   5.3484380e+01
   9.6892990e+02   5.0523440e+01
   9.6941200e+02   3.4789060e+01
   9.6989420e+02   3.4593750e+01
   9.7037630e+02   6.2285160e+01
   9.7085840e+02   8.2355470e+01
   9.7134050e+02   8.1312500e+01
   9.7182260e+02   6.5296880e+01
   9.7230470e+02   4.6421880e+01
   9.7278690e+02   2.6652340e+01
   9.7326900e+02   1.3968750e+01
   9.7375110e+02   1.6937500e+01
   9.7423320e+02   2.0359380e+01
   9.7471530e+02   1.1339840e+01
   9.7519740e+02   1.1719000e-02
   9.7567960e+02   2.9101560e+00
   9.7616170e+02   3.2984380e+01
   9.7664380e+02   3.6835940e+01
   9.7712590e+02   4.1406250e+00
   9.7760800e+02   2.8203120e+01
   9.7809010e+02   1.4796880e+01
   9.7857230e+02   2.4511720e+01
   9.7905440e+02   4.8234380e+01
   9.7953650e+02   5.2480470e+01
   9.8001860e+02   6.0304690e+01
   9.8050070e+02   8.1250000e+01
   9.8098280e+02   1.0998050e+02
   9.8146500e+02   1.5141410e+02
   9.8194710e+02   1.9983200e+02
   9.8242910e+02   2.1651170e+02
   9.8291130e+02   1.9894140e+02
   9.8339340e+02   1.7680860e+02
   9.8387550e+02   1.6037890e+02
   9.8435760e+02   1.4758980e+02
   9.8483970e+02   1.3964060e+02
   9.8532180e+02   1.3242190e+02
   9.8580400e+02   1.1793360e+02
   9.8628610e+02   7.0656250e+01
   9.8676820e+02   5.1382810e+01
   9.8725030e+02   8.4714840e+01
   9.8773240e+02   1.2792190e+02
   9.8821450e+02   1.3410940e+02
   9.8869670e+02   1.0560550e+02
   9.8917880e+02   8.7109380e+01
   9.8966090e+02   8.1906250e+01
   9.9014300e+02   7.5480470e+01
   9.9062510e+02   4.1171880e+01
   9.9110720e+02   1.2480470e+01
   9.9158940e+02   2.8718750e+01
   9.9207150e+02   8.9460940e+01
   9.9255360e+02   1.2423050e+02
   9.9303570e+02   1.2001950e+02
   9.9351780e+02   1.0875780e+02
   9.9399990e+02   9.6953120e+01
   9.9448210e+02   8.8453120e+01
   9.9496420e+02   9.4050780e+01
   9.9544630e+02   1.1101170e+02
   9.9592840e+02   1.3267970e+02
   9.9641050e+02   1.6558980e+02
   9.9689260e+02   1.8389450e+02
   9.9737480e+02   1.5417190e+02
   9.9785690e+02   1.1156640e+02
   9.9833900e+02   9.7390620e+01
   9.9882110e+02   1.2652340e+02
   9.9930320e+02   1.3017970e+02
   9.9978530e+02   1.0453520e+02
   1.0002670e+03   6.9828120e+01
   1.0007500e+03   2.8421880e+01
   1.0012320e+03   2.5742190e+00
   1.0017140e+03   2.0207030e+01
   1.0021960e+03   8.9621090e+01
   1.0026780e+03   1.3537110e+02
   1.0031600e+03   1.0783200e+02
   1.0036420e+03   7.8007810e+01
   1.0041240e+03   6.7550780e+01
   1.0046070e+03   7.0359380e+01
   1.0050890e+03   6.8507810e+01
   1.0055710e+03   6.2914060e+01
   1.0060530e+03   6.8457030e+01
   1.0065350e+03   9.1945310e+01
   1.0070170e+03   1.1409770e+02
   1.0074990e+03   1.1111720e+02
   1.0079810e+03   1.0003120e+02
   1.0084630e+03   1.0248050e+02
   1.0089460e+03   1.3243750e+02
   1.0094280e+03   1.4616800e+02
   1.0099100e+03   1.3879300e+02
   1.0103920e+03   1.2389060e+02
   1.0108740e+03   1.0511330e+02
   1.0113560e+03   8.7144530e+01
   1.0118380e+03   9.5230470e+01
   1.0123200e+03   1.2405470e+02
   1.0128020e+03   1.4161720e+02
   1.0132850e+03   1.2030860e+02
   1.0137670e+03   9.5203120e+01
   1.0142490e+03   8.5535160e+01
   1.0147310e+03   8.4812500e+01
   1.0152130e+03   7.6011720e+01
   1.0156950e+03   5.6000000e+01
   1.0161770e+03   5.2304690e+01
   1.0166590e+03   7.2949220e+01
   1.0171420e+03   9.6957030e+01
   1.0176240e+03   9.0988280e+01
   1.0181060e+03   7.4851560e+01
   1.0185880e+03   8.0011720e+01
   1.0190700e+03   1.1562890e+02
   1.0195520e+03   1.3870700e+02
   1.0200340e+03   1.3953120e+02
   1.0205160e+03   1.3086720e+02
   1.0209980e+03   1.0997270e+02
   1.0214810e+03   8.1609380e+01
   1.0219630e+03   7.9691410e+01
   1.0224450e+03   1.0126170e+02
   1.0229270e+03   1.2752340e+02
   1.0234090e+03   1.5744920e+02
   1.0238910e+03   1.7915230e+02
   1.0243730e+03   1.7739060e+02
   1.0248550e+03   1.6429300e+02
   1.0253380e+03   1.6251950e+02
   1.0258200e+03   1.8085940e+02
   1.0263020e+03   1.8767190e+02
   1.0267840e+03   1.7957030e+02
   1.0272660e+03   1.6526950e+02
   1.0277480e+03   1.5439840e+02
   1.0282300e+03   1.4385550e+02
   1.0287120e+03   1.1777340e+02
   1.0291940e+03   7.7949220e+01
   1.0296770e+03   6.9406250e+01
   1.0301590e+03   1.5695310e+02
   1.0306410e+03   2.2658590e+02
   1.0311230e+03   2.3287110e+02
   1.0316050e+03   1.9315620e+02
   1.0320870e+03   1.6138280e+02
   1.0325690e+03   1.3768360e+02
   1.0330510e+03   1.2445700e+02
   1.0335340e+03   1.2659380e+02
   1.0340160e+03   1.2972660e+02
   1.0344980e+03   1.1748440e+02
   1.0349800e+03   1.0040620e+02
   1.0354620e+03   8.7773440e+01
   1.0359440e+03   7.8835940e+01
   1.0364260e+03   9.9691410e+01
   1.0369080e+03   1.6432810e+02
   1.0373910e+03   2.1667970e+02
   1.0378730e+03   2.0553910e+02
   1.0383550e+03   1.5543750e+02
   1.0388370e+03   1.2514840e+02
   1.0393190e+03   1.1249610e+02
   1.0398010e+03   1.0593750e+02
   1.0402830e+03   1.0985160e+02
   1.0407650e+03   1.0693750e+02
   1.0412470e+03   8.4742190e+01
   1.0417290e+03   5.5949220e+01
   1.0422120e+03   4.3382810e+01
   1.0426940e+03   4.6925780e+01
   1.0431760e+03   5.7531250e+01
   1.0436580e+03   7.4718750e+01
   1.0441400e+03   9.1425780e+01
   1.0446220e+03   1.0055080e+02
   1.0451040e+03   1.0679300e+02
   1.0455860e+03   1.2003120e+02
   1.0460690e+03   1.4243360e+02
   1.0465510e+03   1.3163280e+02
   1.0470330e+03   6.2640620e+01
   1.0475150e+03   2.3765620e+01
   1.0479970e+03   6.4238280e+01
   1.0484790e+03   1.3862890e+02
   1.0489610e+03   1.4316020e+02
   1.0494430e+03   1.0095700e+02
   1.0499260e+03   7.0414060e+01
   1.0504080e+03   7.5417970e+01
   1.0508900e+03   8.9117190e+01
   1.0513720e+03   1.1659380e+02
   1.0518540e+03   1.3782810e+02
   1.0523360e+03   1.3635160e+02
   1.0528180e+03   1.1147660e+02
   1.0533000e+03   7.0769530e+01
   1.0537820e+03   1.4187500e+01
   1.0542650e+03   2.1402340e+01
   1.0547470e+03   1.2925780e+01
   1.0552290e+03   5.9941410e+01
   1.0557110e+03   6.9265620e+01
   1.0561930e+03   4.9656250e+01
   1.0566750e+03   3.8582030e+01
   1.0571570e+03   3.6214840e+01
   1.0576390e+03   4.9750000e+01
   1.0581210e+03   8.7039060e+01
   1.0586040e+03   1.2368750e+02
   1.0590860e+03   1.2496090e+02
   1.0595680e+03   1.0433200e+02
   1.0600500e+03   9.0105470e+01
   1.0605320e+03   8.5640620e+01
   1.0610140e+03   7.3710940e+01
   1.0614960e+03   4.2324220e+01
   1.0619780e+03   1.0042970e+01
   1.0624610e+03   1.9546880e+01
   1.0629430e+03   4.3312500e+01
   1.0634250e+03   4.2359380e+01
   1.0639070e+03   1.8332030e+01
   1.0643890e+03   6.4531250e+00
   1.0648710e+03   2.5039060e+01
   1.0653530e+03   4.0050780e+01
   1.0658350e+03   5.8023440e+01
   1.0663180e+03   7.1636720e+01
   1.0668000e+03   7.0355470e+01
   1.0672820e+03   4.8042970e+01
   1.0677640e+03   2.9164060e+01
   1.0682460e+03   1.1601560e+01
   1.0687280e+03   6.3984380e+00
   1.0692100e+03   3.2582030e+01
   1.0696920e+03   6.9964840e+01
   1.0701740e+03   8.4292970e+01
   1.0706560e+03   7.9914060e+01
   1.0711390e+03   7.8605470e+01
   1.0716210e+03   8.5144530e+01
   1.0721030e+03   9.7800780e+01
   1.0725850e+03   1.1887500e+02
   1.0730670e+03   1.4183980e+02
   1.0735490e+03   1.5940230e+02
   1.0740310e+03   1.7087890e+02
   1.0745130e+03   1.7361720e+02
   1.0749960e+03   1.6696090e+02
   1.0754780e+03   1.5997270e+02
   1.0759600e+03   1.4804300e+02
   1.0764420e+03   1.4818750e+02
   1.0769240e+03   1.8545700e+02
   1.0774060e+03   2.4847660e+02
   1.0778880e+03   2.5788670e+02
   1.0783700e+03   2.1083590e+02
   1.0788530e+03   1.7196090e+02
   1.0793350e+03   1.6602730e+02
   1.0798170e+03   1.7070700e+02
   1.0802990e+03   1.6206640e+02
   1.0807810e+03   1.4809770e+02
   1.0812630e+03   1.3879300e+02
   1.0817450e+03   1.3456640e+02
   1.0822270e+03   1.4283980e+02
   1.0827090e+03   1.7309380e+02
   1.0831920e+03   1.9125390e+02
   1.0836740e+03   1.6230080e+02
   1.0841560e+03   1.1026950e+02
   1.0846380e+03   9.8328120e+01
   1.0851200e+03   1.1770700e+02
   1.0856020e+03   1.3789840e+02
   1.0860840e+03   1.5045700e+02
   1.0865660e+03   1.5654300e+02
   1.0870480e+03   1.5105860e+02
   1.0875310e+03   1.4487110e+02
   1.0880130e+03   1.5563670e+02
   1.0884950e+03   1.8066020e+02
   1.0889770e+03   1.8425000e+02
   1.0894590e+03   1.6400000e+02
   1.0899410e+03   1.4680860e+02
   1.0904230e+03   1.5648830e+02
   1.0909050e+03   1.7110940e+02
   1.0913870e+03   1.7915620e+02
   1.0918700e+03   1.7968750e+02
   1.0923520e+03   1.6966410e+02
   1.0928340e+03   1.4676560e+02
   1.0933160e+03   1.2931250e+02
   1.0937980e+03   1.2107030e+02
   1.0942800e+03   1.2107030e+02
   1.0947620e+03   1.3853520e+02
   1.0952440e+03   1.5786330e+02
   1.0957270e+03   1.5898050e+02
   1.0962090e+03   1.3630470e+02
   1.0966910e+03   1.0692970e+02
   1.0971730e+03   6.7402340e+01
   1.0976550e+03   3.2421880e+01
   1.0981370e+03   4.7031250e+00
   1.0986190e+03   1.0207030e+01
   1.0991010e+03   1.6996090e+01
   1.0995830e+03   6.6878910e+01
   1.1000660e+03   8.9226560e+01
   1.1005480e+03   4.5414060e+01
   1.1010300e+03   1.0968750e+01
   1.1015120e+03   6.5195310e+00
   1.1019940e+03   1.8097660e+01
   1.1024760e+03   4.3820310e+01
   1.1029580e+03   8.1031250e+01
   1.1034400e+03   8.8007810e+01
   1.1039220e+03   6.6820310e+01
   1.1044050e+03   4.2390620e+01
   1.1048870e+03   1.4652340e+01
   1.1053690e+03   3.2382810e+00
   1.1058510e+03   3.6671880e+01
   1.1063330e+03   8.7632810e+01
   1.1068150e+03   1.0045310e+02
   1.1072970e+03   6.7332030e+01
   1.1077790e+03   5.2308590e+01
   1.1082620e+03   6.2824220e+01
   1.1087440e+03   7.7882810e+01
   1.1092260e+03   7.9367190e+01
   1.1097080e+03   7.4835940e+01
   1.1101900e+03   7.0097660e+01
   1.1106720e+03   6.5984380e+01
   1.1111540e+03   6.7140620e+01
   1.1116360e+03   7.9222660e+01
   1.1121190e+03   7.7152340e+01
   1.1126010e+03   5.1742190e+01
   1.1130830e+03   2.4636720e+01
   1.1135650e+03   4.3710940e+01
   1.1140470e+03   8.1019530e+01
   1.1145290e+03   8.0562500e+01
   1.1150110e+03   2.4429690e+01
   1.1154930e+03   1.2621090e+01
   1.1159750e+03   1.2460940e+00
   1.1164580e+03   1.3632810e+01
   1.1169400e+03   7.4609400e-01
   1.1174220e+03   2.9894530e+01
   1.1179040e+03   3.2820310e+01
   1.1183860e+03   1.6414060e+01
   1.1188680e+03   5.2421880e+00
   1.1193500e+03   1.2613280e+01
   1.1198320e+03   1.7628910e+01
   1.1203140e+03   1.6902340e+01
   1.1207970e+03   7.9765630e+00
   1.1212790e+03   1.8976560e+01
   1.1217610e+03   6.4632810e+01
   1.1222430e+03   7.4503910e+01
   1.1227250e+03   4.9824220e+01
   1.1232070e+03   3.2156250e+01
   1.1236890e+03   4.3476560e+01
   1.1241710e+03   7.2570310e+01
   1.1246540e+03   1.4301170e+02
   1.1251360e+03   2.1382420e+02
   1.1256180e+03   2.0598440e+02
   1.1261000e+03   9.4132810e+01
   1.1265820e+03   4.2921880e+01
   1.1270640e+03   6.7863280e+01
   1.1275460e+03   1.0074220e+02
   1.1280280e+03   6.8503910e+01
   1.1285100e+03   2.5828120e+01
   1.1289930e+03   3.9281250e+01
   1.1294750e+03   9.6761720e+01
   1.1299570e+03   1.1703910e+02
   1.1304390e+03   7.5964840e+01
   1.1309210e+03   5.4675780e+01
   1.1314030e+03   7.2218750e+01
   1.1318850e+03   9.7316410e+01
   1.1323670e+03   8.7660160e+01
   1.1328490e+03   5.9625000e+01
   1.1333320e+03   3.3589840e+01
   1.1338140e+03   1.1949220e+01
   1.1342960e+03   1.2078120e+01
   1.1347780e+03   6.0378910e+01
   1.1352600e+03   9.1761720e+01
   1.1357420e+03   8.0371090e+01
   1.1362240e+03   4.4578120e+01
   1.1367060e+03   2.2148440e+01
   1.1371890e+03   1.4500000e+01
   1.1376710e+03   2.9972660e+01
   1.1381530e+03   8.0617190e+01
   1.1386350e+03   1.1099220e+02
   1.1391170e+03   7.3664060e+01
   1.1395990e+03   3.8277340e+01
   1.1400810e+03   4.0992190e+01
   1.1405630e+03   7.2984380e+01
   1.1410460e+03   9.6867190e+01
   1.1415280e+03   1.1215230e+02
   1.1420100e+03   1.1685160e+02
   1.1424920e+03   1.0477340e+02
   1.1429740e+03   9.1558590e+01
   1.1434560e+03   7.7554690e+01
   1.1439380e+03   7.2437500e+01
   1.1444200e+03   8.7515620e+01
   1.1449020e+03   1.2401170e+02
   1.1453850e+03   1.4733590e+02
   1.1458670e+03   1.5740230e+02
   1.1463490e+03   1.5932030e+02
   1.1468310e+03   1.4379300e+02
   1.1473130e+03   1.3330080e+02
   1.1477950e+03   1.4962890e+02
   1.1482770e+03   1.7874610e+02
   1.1487590e+03   1.9987890e+02
   1.1492410e+03   2.1559770e+02
   1.1497240e+03   2.0041410e+02
   1.1502060e+03   1.5042970e+02
   1.1506880e+03   1.0465230e+02
   1.1511700e+03   1.0400390e+02
   1.1516520e+03   1.1644920e+02
   1.1521340e+03   1.1343750e+02
   1.1526160e+03   9.8230470e+01
   1.1530980e+03   8.5429690e+01
   1.1535810e+03   7.2453120e+01
   1.1540630e+03   7.9394530e+01
   1.1545450e+03   1.1485940e+02
   1.1550270e+03   1.4433200e+02
   1.1555090e+03   1.1713280e+02
   1.1559910e+03   6.8335940e+01
   1.1564730e+03   3.7003910e+01
   1.1569550e+03   2.7875000e+01
   1.1574380e+03   3.9242190e+01
   1.1579200e+03   9.0167970e+01
   1.1584020e+03   1.0862500e+02
   1.1588840e+03   6.7890620e+01
   1.1593660e+03   1.1289060e+01
   1.1598480e+03   3.2851560e+00
   1.1603300e+03   2.4718750e+01
   1.1608120e+03   4.5203120e+01
   1.1612940e+03   6.0117190e+01
   1.1617760e+03   7.1957030e+01
   1.1622590e+03   8.1265620e+01
   1.1627410e+03   8.5828120e+01
   1.1632230e+03   7.8644530e+01
   1.1637050e+03   7.2949220e+01
   1.1641870e+03   1.1008590e+02
   1.1646690e+03   1.6990620e+02
   1.1651510e+03   2.0508980e+02
   1.1656330e+03   1.9708980e+02
   1.1661160e+03   1.8428910e+02
   1.1665980e+03   1.7006250e+02
   1.1670800e+03   1.6245310e+02
   1.1675620e+03   1.7166020e+02
   1.1680440e+03   1.8807420e+02
   1.1685260e+03   1.7087500e+02
   1.1690080e+03   1.3023440e+02
   1.1694900e+03   1.0282030e+02
   1.1699730e+03   1.1766410e+02
   1.1704550e+03   1.1843360e+02
   1.1709370e+03   6.8312500e+01
   1.1714190e+03   1.6761720e+01
   1.1719010e+03   2.7812500e+00
   1.1723830e+03   6.8710940e+00
   1.1728650e+03   2.6859380e+01
   1.1733470e+03   5.3042970e+01
   1.1738290e+03   7.0453120e+01
   1.1743120e+03   6.4332030e+01
   1.1747940e+03   5.2726560e+01
   1.1752760e+03   2.7703120e+01
   1.1757580e+03   1.0046880e+01
   1.1762400e+03   2.8882810e+01
   1.1767220e+03   8.1460940e+01
   1.1772040e+03   8.8582030e+01
   1.1776860e+03   5.2886720e+01
   1.1781680e+03   2.9386720e+01
   1.1786510e+03   7.9722660e+01
   1.1791330e+03   1.2168360e+02
   1.1796150e+03   9.0140620e+01
   1.1800970e+03   3.5605470e+01
   1.1805790e+03   4.5070310e+01
   1.1810610e+03   1.1778520e+02
   1.1815430e+03   1.2419140e+02
   1.1820250e+03   5.3527340e+01
   1.1825080e+03   2.0000000e+00
   1.1829900e+03   4.4855470e+01
   1.1834720e+03   1.0934770e+02
   1.1839540e+03   1.4976950e+02
   1.1844360e+03   1.5962500e+02
   1.1849180e+03   1.2326560e+02
   1.1854000e+03   3.6921880e+01
   1.1858820e+03   8.0585940e+00
   1.1863650e+03   2.2929690e+00
   1.1868470e+03   3.0003910e+01
   1.1873290e+03   6.1796880e+01
   1.1878110e+03   8.3722660e+01
   1.1882930e+03   7.5906250e+01
   1.1887750e+03   4.8863280e+01
   1.1892570e+03   4.4156250e+01
   1.1897390e+03   6.4652340e+01
   1.1902210e+03   7.1390620e+01
   1.1907030e+03   5.5527340e+01
   1.1911860e+03   3.2519530e+01
   1.1916680e+03   1.0050780e+01
   1.1921500e+03   7.8242190e+00
   1.1926320e+03   2.3378910e+01
   1.1931140e+03   3.3609380e+01
   1.1935960e+03   3.3945310e+00
   1.1940780e+03   7.3867190e+01
   1.1945600e+03   1.1757810e+02
   1.1950430e+03   9.6894530e+01
   1.1955250e+03   6.4164060e+01
   1.1960070e+03   7.7964840e+01
   1.1964890e+03   1.0232420e+02
   1.1969710e+03   9.3910160e+01
   1.1974530e+03   5.0585940e+01
   1.1979350e+03   4.6371090e+01
   1.1984170e+03   8.8339840e+01
   1.1989000e+03   1.0869530e+02
   1.1993820e+03   7.4644530e+01
   1.1998640e+03   3.3187500e+01
   1.2003460e+03   3.3953120e+01
   1.2008280e+03   5.5722660e+01
   1.2013100e+03   7.8578120e+01
   1.2017920e+03   1.0280080e+02
   1.2022740e+03   1.0443360e+02
   1.2027560e+03   8.1179690e+01
   1.2032390e+03   5.6652340e+01
   1.2037210e+03   3.7285160e+01
   1.2042030e+03   2.7906250e+01
   1.2046850e+03   4.1023440e+01
   1.2051670e+03   6.3328120e+01
   1.2056490e+03   7.5980470e+01
   1.2061310e+03   7.4828120e+01
   1.2066130e+03   7.3550780e+01
   1.2070950e+03   7.0792970e+01
   1.2075780e+03   7.6062500e+01
   1.2080600e+03   1.0472270e+02
   1.2085420e+03   1.3044920e+02
   1.2090240e+03   1.1952730e+02
   1.2095060e+03   8.8476560e+01
   1.2099880e+03   6.2531250e+01
   1.2104700e+03   4.4683590e+01
   1.2109520e+03   2.9593750e+01
   1.2114350e+03   1.7191410e+01
   1.2119170e+03   1.4312500e+01
   1.2123990e+03   3.3417970e+01
   1.2128810e+03   5.7351560e+01
   1.2133630e+03   6.0343750e+01
   1.2138450e+03   5.8152340e+01
   1.2143270e+03   8.2503910e+01
   1.2148090e+03   1.4697270e+02
   1.2152920e+03   1.9351170e+02
   1.2157740e+03   2.1983200e+02
   1.2162560e+03   2.3460940e+02
   1.2167380e+03   2.2943360e+02
   1.2172200e+03   2.2654690e+02
   1.2177020e+03   2.5725780e+02
   1.2181840e+03   3.0325780e+02
   1.2186660e+03   3.2549610e+02
   1.2191480e+03   3.1664060e+02
   1.2196300e+03   3.0623050e+02
   1.2201130e+03   2.9562890e+02
   1.2205950e+03   2.8239450e+02
   1.2210770e+03   2.6641020e+02
   1.2215590e+03   2.4677730e+02
   1.2220410e+03   2.1503910e+02
   1.2225230e+03   1.8202730e+02
   1.2230050e+03   1.7392190e+02
   1.2234870e+03   1.9941800e+02
   1.2239700e+03   2.1373440e+02
   1.2244520e+03   2.1393750e+02
   1.2249340e+03   2.0660940e+02
   1.2254160e+03   1.8682810e+02
   1.2258980e+03   1.7115620e+02
   1.2263800e+03   1.7660550e+02
   1.2268620e+03   1.9717580e+02
   1.2273440e+03   2.1666800e+02
   1.2278270e+03   2.3746880e+02
   1.2283090e+03   2.3557810e+02
   1.2287910e+03   2.0774610e+02
   1.2292730e+03   1.7229300e+02
   1.2297550e+03   1.3284380e+02
   1.2302370e+03   1.0256640e+02
   1.2307190e+03   9.8367190e+01
   1.2312010e+03   1.1073050e+02
   1.2316830e+03   1.0910940e+02
   1.2321660e+03   9.0847660e+01
   1.2326480e+03   9.4355470e+01
   1.2331300e+03   1.2543360e+02
   1.2336120e+03   1.4991800e+02
   1.2340940e+03   1.2854300e+02
   1.2345760e+03   1.0091410e+02
   1.2350580e+03   9.8785160e+01
   1.2355400e+03   1.1190230e+02
   1.2360220e+03   1.1879690e+02
   1.2365050e+03   1.1980080e+02
   1.2369870e+03   8.8546880e+01
   1.2374690e+03   1.9769530e+01
   1.2379510e+03   3.9609380e+01
   1.2384330e+03   5.3453120e+01
   1.2389150e+03   4.3898440e+01
   1.2393970e+03   6.2304690e+00
   1.2398790e+03   3.9855470e+01
   1.2403620e+03   3.8859380e+01
   1.2408440e+03   4.3085940e+00
   1.2413260e+03   2.0570310e+01
   1.2418080e+03   1.8398440e+00
   1.2422900e+03   3.1410160e+01
   1.2427720e+03   4.9042970e+01
   1.2432540e+03   6.4058590e+01
   1.2437360e+03   7.8175780e+01
   1.2442190e+03   9.3578120e+01
   1.2447010e+03   1.1383590e+02
   1.2451830e+03   1.3727730e+02
   1.2456650e+03   1.6238280e+02
   1.2461470e+03   1.8817190e+02
   1.2466290e+03   2.0645700e+02
   1.2471110e+03   2.0511720e+02
   1.2475930e+03   2.0465620e+02
   1.2480750e+03   2.1608590e+02
   1.2485570e+03   2.3130860e+02
   1.2490400e+03   2.4626950e+02
   1.2495220e+03   2.5946880e+02
   1.2500040e+03   2.3973440e+02
   1.2504860e+03   1.8087890e+02
   1.2509680e+03   1.3153120e+02
   1.2514500e+03   1.2321480e+02
   1.2519320e+03   1.2025000e+02
   1.2524140e+03   1.0978520e+02
   1.2528970e+03   9.9207030e+01
   1.2533790e+03   1.0915620e+02
   1.2538610e+03   1.3053520e+02
   1.2543430e+03   1.3740230e+02
   1.2548250e+03   1.2444530e+02
   1.2553070e+03   1.1282420e+02
   1.2557890e+03   1.0924220e+02
   1.2562710e+03   1.0571090e+02
   1.2567540e+03   9.5976560e+01
   1.2572360e+03   9.0531250e+01
   1.2577180e+03   1.2083980e+02
   1.2582000e+03   1.6508590e+02
   1.2586820e+03   1.7426560e+02
   1.2591640e+03   1.3573830e+02
   1.2596460e+03   1.3104690e+02
   1.2601280e+03   1.9319140e+02
   1.2606100e+03   2.3667970e+02
   1.2610930e+03   2.3210940e+02
   1.2615750e+03   2.0520700e+02
   1.2620570e+03   1.9166800e+02
   1.2625390e+03   1.8333200e+02
   1.2630210e+03   1.6260160e+02
   1.2635030e+03   1.2585940e+02
   1.2639850e+03   1.2422270e+02
   1.2644670e+03   1.7474610e+02
   1.2649490e+03   2.0586720e+02
   1.2654320e+03   1.9205080e+02
   1.2659140e+03   1.6536330e+02
   1.2663960e+03   1.7308980e+02
   1.2668780e+03   1.8691410e+02
   1.2673600e+03   1.6917970e+02
   1.2678420e+03   1.1568750e+02
   1.2683240e+03   7.5671880e+01
   1.2688060e+03   4.7585940e+01
   1.2692890e+03   4.4308590e+01
   1.2697710e+03   7.3515620e+01
   1.2702530e+03   1.1219140e+02
   1.2707350e+03   1.4107420e+02
   1.2712170e+03   1.6086330e+02
   1.2716990e+03   1.8436330e+02
   1.2721810e+03   2.2224220e+02
   1.2726630e+03   2.0587890e+02
   1.2731460e+03   1.3410160e+02
   1.2736280e+03   8.7972660e+01
   1.2741100e+03   8.8140620e+01
   1.2745920e+03   9.5894530e+01
   1.2750740e+03   7.5359380e+01
   1.2755560e+03   6.1191410e+01
   1.2760380e+03   8.5523440e+01
   1.2765200e+03   1.3254300e+02
   1.2770020e+03   1.3375000e+02
   1.2774840e+03   9.8148440e+01
   1.2779670e+03   8.0675780e+01
   1.2784490e+03   9.7449220e+01
   1.2789310e+03   1.1621090e+02
   1.2794130e+03   1.1969920e+02
   1.2798950e+03   1.2016800e+02
   1.2803770e+03   1.2210550e+02
   1.2808590e+03   1.2491800e+02
   1.2813410e+03   1.2751560e+02
   1.2818230e+03   1.2992190e+02
   1.2823060e+03   1.3267190e+02
   1.2827880e+03   1.3513670e+02
   1.2832700e+03   1.4094140e+02
   1.2837520e+03   1.5379690e+02
   1.2842340e+03   1.6480470e+02
   1.2847160e+03   1.6808200e+02
   1.2851980e+03   1.7264840e+02
   1.2856800e+03   2.1082810e+02
   1.2861630e+03   2.5632030e+02
   1.2866450e+03   2.5351170e+02
   1.2871270e+03   1.8829690e+02
   1.2876090e+03   1.5502730e+02
   1.2880910e+03   1.7367190e+02
   1.2885730e+03   1.8713280e+02
   1.2890550e+03   1.7579300e+02
   1.2895370e+03   1.5869530e+02
   1.2900200e+03   1.6730860e+02
   1.2905020e+03   1.8174610e+02
   1.2909840e+03   1.7429690e+02
   1.2914660e+03   1.4298440e+02
   1.2919480e+03   1.3303120e+02
   1.2924300e+03   1.4927730e+02
   1.2929120e+03   1.5379300e+02
   1.2933940e+03   1.3599220e+02
   1.2938760e+03   1.0928520e+02
   1.2943590e+03   7.4027340e+01
   1.2948410e+03   4.6062500e+01
   1.2953230e+03   5.1519530e+01
   1.2958050e+03   7.7253910e+01
   1.2962870e+03   6.4980470e+01
   1.2967690e+03   1.7851560e+01
   1.2972510e+03   9.5351560e+00
   1.2977330e+03   4.3828130e+00
   1.2982150e+03   7.5625000e+00
   1.2986980e+03   7.8593750e+00
   1.2991800e+03   1.3656250e+01
   1.2996620e+03   3.4203120e+01
   1.3001440e+03   6.4789060e+01
   1.3006260e+03   9.3253910e+01
   1.3011080e+03   8.7710940e+01
   1.3015900e+03   9.1078120e+01
   1.3020720e+03   8.7460940e+01
   1.3025550e+03   7.4046880e+01
   1.3030370e+03   3.1871090e+01
   1.3035190e+03   4.4218750e+00
   1.3040010e+03   0.0000000e+00
   1.5000000e+03   0.0000000e+00
