   1.0000000e+02   0.0000000e+00
   1.2449400e+02   0.0000000e+00
   1.2497610e+02   1.0964300e-01
   1.2545820e+02   2.1320400e-01
   1.2594040e+02   2.3079200e-01
   1.2642250e+02   2.0100600e-01
   1.2690460e+02   8.6562999e-02
   1.2738670e+02   1.1740000e-02
   1.2786880e+02   7.5176001e-02
   1.2835090e+02   1.1100800e-01
   1.2883310e+02   9.4649002e-02
   1.2931520e+02   3.2228000e-02
   1.2979730e+02   2.4904300e-01
   1.3027940e+02   4.5063600e-01
   1.3076150e+02   5.6055800e-01
   1.3124360e+02   6.1125400e-01
   1.3172580e+02   7.1853400e-01
   1.3220790e+02   8.9653800e-01
   1.3269000e+02   1.0969090e+00
   1.3317210e+02   1.1987930e+00
   1.3365420e+02   1.1974960e+00
   1.3413640e+02   1.3027820e+00
   1.3461850e+02   1.6503370e+00
   1.3510060e+02   2.2362940e+00
   1.3558270e+02   2.8808330e+00
   1.3606480e+02   3.5821860e+00
   1.3654690e+02   4.3296340e+00
   1.3702910e+02   5.1471610e+00
   1.3751120e+02   6.0703810e+00
   1.3799330e+02   6.8845350e+00
   1.3847540e+02   7.4575940e+00
   1.3895750e+02   7.7638990e+00
   1.3943960e+02   7.9462050e+00
   1.3992180e+02   8.0167260e+00
   1.4040390e+02   7.9730610e+00
   1.4088600e+02   7.7491910e+00
   1.4136810e+02   7.2283400e+00
   1.4185020e+02   6.7354030e+00
   1.4233230e+02   6.5558170e+00
   1.4281450e+02   6.8194770e+00
   1.4329660e+02   7.0565530e+00
   1.4377870e+02   7.1716500e+00
   1.4426080e+02   7.1704180e+00
   1.4474290e+02   7.2572250e+00
   1.4522510e+02   7.4655190e+00
   1.4570720e+02   7.7347530e+00
   1.4618930e+02   8.0168440e+00
   1.4667140e+02   8.3594090e+00
   1.4715350e+02   8.6383530e+00
   1.4763560e+02   8.7617530e+00
   1.4811780e+02   8.6656420e+00
   1.4859990e+02   8.8416370e+00
   1.4908200e+02   9.4624310e+00
   1.4956410e+02   1.0282430e+01
   1.5004620e+02   1.1007050e+01
   1.5052830e+02   1.1531270e+01
   1.5101050e+02   1.2053840e+01
   1.5149260e+02   1.2264430e+01
   1.5197470e+02   1.2445500e+01
   1.5245680e+02   1.2678580e+01
   1.5293890e+02   1.2993780e+01
   1.5342100e+02   1.3351270e+01
   1.5390320e+02   1.3701010e+01
   1.5438530e+02   1.4230040e+01
   1.5486740e+02   1.4580640e+01
   1.5534950e+02   1.4622360e+01
   1.5583160e+02   1.4260750e+01
   1.5631380e+02   1.3817490e+01
   1.5679590e+02   1.3184430e+01
   1.5727800e+02   1.2512040e+01
   1.5776010e+02   1.2087320e+01
   1.5824220e+02   1.2178750e+01
   1.5872430e+02   1.2368470e+01
   1.5920650e+02   1.2451470e+01
   1.5968860e+02   1.2330220e+01
   1.6017070e+02   1.2216190e+01
   1.6065280e+02   1.2176930e+01
   1.6113490e+02   1.2190650e+01
   1.6161700e+02   1.2201170e+01
   1.6209920e+02   1.2232390e+01
   1.6258130e+02   1.2228290e+01
   1.6306340e+02   1.2135700e+01
   1.6354550e+02   1.1795290e+01
   1.6402760e+02   1.1563370e+01
   1.6450970e+02   1.1655650e+01
   1.6499190e+02   1.2007390e+01
   1.6547400e+02   1.2370230e+01
   1.6595610e+02   1.2697630e+01
   1.6643820e+02   1.2947960e+01
   1.6692030e+02   1.3081020e+01
   1.6740250e+02   1.2951150e+01
   1.6788460e+02   1.2839760e+01
   1.6836670e+02   1.2923070e+01
   1.6884880e+02   1.3184500e+01
   1.6933090e+02   1.3521270e+01
   1.6981300e+02   1.3963050e+01
   1.7029520e+02   1.4420480e+01
   1.7077730e+02   1.4774940e+01
   1.7125940e+02   1.4929970e+01
   1.7174150e+02   1.5015210e+01
   1.7222360e+02   1.5089140e+01
   1.7270570e+02   1.5158500e+01
   1.7318790e+02   1.5338700e+01
   1.7367000e+02   1.5875430e+01
   1.7415210e+02   1.6563110e+01
   1.7463420e+02   1.7057260e+01
   1.7511630e+02   1.7077900e+01
   1.7559840e+02   1.6918070e+01
   1.7608060e+02   1.6913210e+01
   1.7656270e+02   1.7063420e+01
   1.7704480e+02   1.7265460e+01
   1.7752690e+02   1.7337040e+01
   1.7800900e+02   1.7381020e+01
   1.7849110e+02   1.7649220e+01
   1.7897330e+02   1.8436310e+01
   1.7945540e+02   1.9449350e+01
   1.7993750e+02   2.0285640e+01
   1.8041960e+02   2.0835780e+01
   1.8090170e+02   2.1264940e+01
   1.8138390e+02   2.1655150e+01
   1.8186600e+02   2.2004370e+01
   1.8234810e+02   2.2417570e+01
   1.8283020e+02   2.3172020e+01
   1.8331230e+02   2.4108170e+01
   1.8379440e+02   2.4778900e+01
   1.8427660e+02   2.5119370e+01
   1.8475870e+02   2.5481590e+01
   1.8524080e+02   2.6278470e+01
   1.8572290e+02   2.7483230e+01
   1.8620500e+02   2.8967860e+01
   1.8668710e+02   3.0635120e+01
   1.8716930e+02   3.2534380e+01
   1.8765140e+02   3.4570570e+01
   1.8813350e+02   3.6621110e+01
   1.8861560e+02   3.9263230e+01
   1.8909770e+02   4.3853470e+01
   1.8957980e+02   5.0268590e+01
   1.9006200e+02   5.6497010e+01
   1.9054410e+02   6.1485170e+01
   1.9102620e+02   6.5377480e+01
   1.9150830e+02   6.9087660e+01
   1.9199040e+02   7.2675470e+01
   1.9247250e+02   7.6246970e+01
   1.9295470e+02   8.0058390e+01
   1.9343680e+02   8.4150630e+01
   1.9391890e+02   8.8132530e+01
   1.9440100e+02   9.1699930e+01
   1.9488310e+02   9.4896290e+01
   1.9536520e+02   9.8321780e+01
   1.9584740e+02   1.0205130e+02
   1.9632950e+02   1.0597060e+02
   1.9681160e+02   1.0987610e+02
   1.9729370e+02   1.1375150e+02
   1.9777580e+02   1.1763150e+02
   1.9825790e+02   1.2128900e+02
   1.9874010e+02   1.2470620e+02
   1.9922220e+02   1.2895020e+02
   1.9970430e+02   1.3411270e+02
   2.0018640e+02   1.4002520e+02
   2.0066850e+02   1.4637640e+02
   2.0115070e+02   1.5311350e+02
   2.0163280e+02   1.6032030e+02
   2.0211490e+02   1.6802550e+02
   2.0259700e+02   1.7622040e+02
   2.0307910e+02   1.8500750e+02
   2.0356120e+02   1.9418430e+02
   2.0404340e+02   2.0400510e+02
   2.0452550e+02   2.1505410e+02
   2.0500760e+02   2.2736090e+02
   2.0548970e+02   2.4077540e+02
   2.0597180e+02   2.5547810e+02
   2.0645390e+02   2.7171790e+02
   2.0693610e+02   2.8797000e+02
   2.0741820e+02   3.0478950e+02
   2.0790030e+02   3.2119780e+02
   2.0838240e+02   3.3550570e+02
   2.0886450e+02   3.4921540e+02
   2.0934660e+02   3.5700450e+02
   2.0982880e+02   3.5600760e+02
   2.1031090e+02   3.4615660e+02
   2.1079300e+02   3.2734370e+02
   2.1127510e+02   2.9718850e+02
   2.1175720e+02   2.5875290e+02
   2.1223930e+02   2.2118290e+02
   2.1272150e+02   1.8373880e+02
   2.1320360e+02   1.4956970e+02
   2.1368570e+02   1.2078830e+02
   2.1416780e+02   9.7715420e+01
   2.1464990e+02   7.8820110e+01
   2.1513210e+02   6.4338140e+01
   2.1561420e+02   5.3734200e+01
   2.1609630e+02   4.5165190e+01
   2.1657840e+02   3.9062710e+01
   2.1706050e+02   3.4198960e+01
   2.1754260e+02   2.9875000e+01
   2.1802480e+02   2.6154510e+01
   2.1850690e+02   2.2912550e+01
   2.1898900e+02   2.0185250e+01
   2.1947110e+02   1.7933900e+01
   2.1995320e+02   1.5936720e+01
   2.2043530e+02   1.4205620e+01
   2.2091750e+02   1.2680440e+01
   2.2139960e+02   1.1296750e+01
   2.2188170e+02   1.0036710e+01
   2.2236380e+02   9.0025410e+00
   2.2284590e+02   8.2634890e+00
   2.2332800e+02   7.7632680e+00
   2.2381020e+02   7.2778630e+00
   2.2429230e+02   6.8268890e+00
   2.2477440e+02   6.3494380e+00
   2.2525650e+02   5.8020820e+00
   2.2573860e+02   5.1492000e+00
   2.2622080e+02   4.5007440e+00
   2.2670290e+02   3.7958980e+00
   2.2718500e+02   3.0907670e+00
   2.2766710e+02   2.7437020e+00
   2.2814920e+02   2.9569090e+00
   2.2863130e+02   3.2403070e+00
   2.2911350e+02   3.2986260e+00
   2.2959560e+02   3.0616490e+00
   2.3007770e+02   2.7507820e+00
   2.3055980e+02   2.3222540e+00
   2.3104190e+02   1.8237150e+00
   2.3152400e+02   1.4953310e+00
   2.3200620e+02   1.4361610e+00
   2.3248830e+02   1.4130940e+00
   2.3297040e+02   1.2905690e+00
   2.3345250e+02   1.0473440e+00
   2.3393460e+02   7.4045200e-01
   2.3441670e+02   2.8622400e-01
   2.3489890e+02   2.3924600e-01
   2.3538100e+02   4.4581600e-01
   2.3586310e+02   1.1396400e-01
   2.3634520e+02   2.4543800e-01
   2.3682730e+02   3.2188000e-01
   2.3730950e+02   7.0235997e-02
   2.3779160e+02   3.4376900e-01
   2.3827370e+02   4.4218800e-01
   2.3875580e+02   3.9757500e-01
   2.3923790e+02   3.3545700e-01
   2.3972000e+02   2.1645000e-01
   2.4020220e+02   1.3345700e-01
   2.4068430e+02   1.5009300e-01
   2.4116640e+02   3.5141400e-01
   2.4164850e+02   4.5931200e-01
   2.4213060e+02   4.0741300e-01
   2.4261270e+02   2.5279600e-01
   2.4309490e+02   2.2058500e-01
   2.4357700e+02   3.6187700e-01
   2.4405910e+02   5.5301700e-01
   2.4454120e+02   7.3877000e-01
   2.4502330e+02   9.4379400e-01
   2.4550540e+02   1.0880320e+00
   2.4598760e+02   1.1574590e+00
   2.4646970e+02   1.1653560e+00
   2.4695180e+02   1.1577490e+00
   2.4743390e+02   1.1567420e+00
   2.4791600e+02   1.1066890e+00
   2.4839810e+02   9.6670500e-01
   2.4888030e+02   6.6282700e-01
   2.4936240e+02   4.4902000e-01
   2.4984450e+02   3.7142900e-01
   2.5032660e+02   3.7659500e-01
   2.5080870e+02   3.1136300e-01
   2.5129090e+02   1.3224000e-01
   2.5177300e+02   4.3949001e-02
   2.5225510e+02   1.6046900e-01
   2.5273720e+02   1.9595000e-01
   2.5321930e+02   2.3113300e-01
   2.5370140e+02   2.8047900e-01
   2.5418360e+02   3.2231100e-01
   2.5466570e+02   3.0293300e-01
   2.5514780e+02   2.0261400e-01
   2.5562990e+02   7.5732999e-02
   2.5611200e+02   6.0054999e-02
   2.5659410e+02   2.0946100e-01
   2.5707630e+02   3.5839100e-01
   2.5755840e+02   5.4399100e-01
   2.5804050e+02   7.0642900e-01
   2.5852260e+02   7.0852700e-01
   2.5900470e+02   4.7653200e-01
   2.5948680e+02   2.3561500e-01
   2.5996900e+02   8.4705003e-02
   2.6045110e+02   5.9284002e-02
   2.6093320e+02   4.6432000e-02
   2.6141530e+02   2.6926800e-01
   2.6189740e+02   5.4207200e-01
   2.6237950e+02   7.6277900e-01
   2.6286170e+02   9.5767600e-01
   2.6334380e+02   1.0373840e+00
   2.6382590e+02   9.0441500e-01
   2.6430800e+02   4.8984900e-01
   2.6479010e+02   4.0561700e-01
   2.6527220e+02   8.0674700e-01
   2.6575440e+02   1.3533360e+00
   2.6623650e+02   1.5269090e+00
   2.6671860e+02   1.2214130e+00
   2.6720070e+02   8.6295700e-01
   2.6768290e+02   5.3903200e-01
   2.6816500e+02   2.3751400e-01
   2.6864710e+02   1.7773800e-01
   2.6912920e+02   4.4831500e-01
   2.6961130e+02   8.2034700e-01
   2.7009340e+02   9.9314500e-01
   2.7057560e+02   9.1132700e-01
   2.7105770e+02   8.5982900e-01
   2.7153980e+02   9.7430800e-01
   2.7202190e+02   1.2438430e+00
   2.7250400e+02   1.1536140e+00
   2.7298610e+02   5.4948800e-01
   2.7346830e+02   7.9444997e-02
   2.7395040e+02   1.6601900e-01
   2.7443250e+02   3.8874100e-01
   2.7491460e+02   9.5612000e-01
   2.7539670e+02   1.4625320e+00
   2.7587880e+02   1.8779490e+00
   2.7636100e+02   1.8198200e+00
   2.7684310e+02   1.1440280e+00
   2.7732520e+02   4.3500100e-01
   2.7780730e+02   2.5901800e-01
   2.7828940e+02   6.5474300e-01
   2.7877150e+02   1.1588630e+00
   2.7925370e+02   1.7605320e+00
   2.7973580e+02   2.3856850e+00
   2.8021790e+02   2.6905210e+00
   2.8070000e+02   2.6246950e+00
   2.8118210e+02   2.4704590e+00
   2.8166420e+02   2.4180110e+00
   2.8214640e+02   2.4672280e+00
   2.8262850e+02   2.6489720e+00
   2.8311060e+02   2.9983790e+00
   2.8359270e+02   3.4582140e+00
   2.8407480e+02   3.8957980e+00
   2.8455690e+02   4.3162880e+00
   2.8503910e+02   4.6761700e+00
   2.8552120e+02   4.9254990e+00
   2.8600330e+02   5.0730590e+00
   2.8648540e+02   5.2222440e+00
   2.8696750e+02   5.3743020e+00
   2.8744960e+02   5.5501750e+00
   2.8793180e+02   5.7764850e+00
   2.8841390e+02   6.0555000e+00
   2.8889600e+02   6.4222220e+00
   2.8937810e+02   6.9198990e+00
   2.8986020e+02   7.5342670e+00
   2.9034240e+02   8.2104680e+00
   2.9082450e+02   8.9642870e+00
   2.9130660e+02   9.7306980e+00
   2.9178870e+02   1.0350480e+01
   2.9227080e+02   1.0847620e+01
   2.9275300e+02   1.1404770e+01
   2.9323510e+02   1.2191210e+01
   2.9371720e+02   1.3162140e+01
   2.9419930e+02   1.4005130e+01
   2.9468140e+02   1.4649890e+01
   2.9516350e+02   1.5376240e+01
   2.9564570e+02   1.6564100e+01
   2.9612780e+02   1.8159260e+01
   2.9660990e+02   1.9900930e+01
   2.9709200e+02   2.1643510e+01
   2.9757410e+02   2.3429260e+01
   2.9805620e+02   2.5275780e+01
   2.9853840e+02   2.7153150e+01
   2.9902050e+02   2.9186250e+01
   2.9950260e+02   3.1369420e+01
   2.9998470e+02   3.3794330e+01
   3.0046680e+02   3.6777630e+01
   3.0094890e+02   4.0493500e+01
   3.0143110e+02   4.4740850e+01
   3.0191320e+02   4.8946330e+01
   3.0239530e+02   5.3177720e+01
   3.0287740e+02   5.8191990e+01
   3.0335950e+02   6.4562840e+01
   3.0384160e+02   7.2171330e+01
   3.0432380e+02   8.1008260e+01
   3.0480590e+02   9.0934880e+01
   3.0528800e+02   1.0200320e+02
   3.0577010e+02   1.1393330e+02
   3.0625220e+02   1.2689330e+02
   3.0673430e+02   1.4116120e+02
   3.0721650e+02   1.5791780e+02
   3.0769860e+02   1.7590560e+02
   3.0818070e+02   1.9357460e+02
   3.0866280e+02   2.1071310e+02
   3.0914490e+02   2.2757480e+02
   3.0962700e+02   2.4464900e+02
   3.1010920e+02   2.6191440e+02
   3.1059130e+02   2.7878480e+02
   3.1107340e+02   2.9446030e+02
   3.1155550e+02   3.0992160e+02
   3.1203760e+02   3.2567020e+02
   3.1251970e+02   3.4159430e+02
   3.1300190e+02   3.5843230e+02
   3.1348400e+02   3.7669070e+02
   3.1396610e+02   3.9637860e+02
   3.1444820e+02   4.1766360e+02
   3.1493040e+02   4.4031140e+02
   3.1541250e+02   4.6481350e+02
   3.1589460e+02   4.9112520e+02
   3.1637670e+02   5.1926150e+02
   3.1685880e+02   5.4973680e+02
   3.1734090e+02   5.8284240e+02
   3.1782310e+02   6.1860490e+02
   3.1830520e+02   6.5689590e+02
   3.1878730e+02   6.9778550e+02
   3.1926940e+02   7.4160260e+02
   3.1975150e+02   7.8912190e+02
   3.2023360e+02   8.4054730e+02
   3.2071580e+02   8.9320560e+02
   3.2119790e+02   9.4883590e+02
   3.2168000e+02   1.0037630e+03
   3.2216210e+02   1.0544420e+03
   3.2264420e+02   1.1047970e+03
   3.2312630e+02   1.1460780e+03
   3.2360850e+02   1.1786540e+03
   3.2409060e+02   1.2019870e+03
   3.2457270e+02   1.2088490e+03
   3.2505480e+02   1.1996060e+03
   3.2553690e+02   1.1726350e+03
   3.2601900e+02   1.1268950e+03
   3.2650120e+02   1.0525080e+03
   3.2698330e+02   9.7052220e+02
   3.2746540e+02   8.7730710e+02
   3.2794750e+02   7.7641590e+02
   3.2842960e+02   6.8329980e+02
   3.2891170e+02   5.9726340e+02
   3.2939390e+02   5.1974850e+02
   3.2987600e+02   4.5069590e+02
   3.3035810e+02   3.9005090e+02
   3.3084020e+02   3.3789780e+02
   3.3132230e+02   2.9545330e+02
   3.3180440e+02   2.6083570e+02
   3.3228660e+02   2.3028760e+02
   3.3276870e+02   2.0443080e+02
   3.3325080e+02   1.8218990e+02
   3.3373290e+02   1.6340370e+02
   3.3421500e+02   1.4844210e+02
   3.3469710e+02   1.3498780e+02
   3.3517930e+02   1.2311170e+02
   3.3566140e+02   1.1251460e+02
   3.3614350e+02   1.0296780e+02
   3.3662560e+02   9.4426280e+01
   3.3710770e+02   8.6864820e+01
   3.3758990e+02   8.0558850e+01
   3.3807200e+02   7.5383580e+01
   3.3855410e+02   7.0513890e+01
   3.3903620e+02   6.5906550e+01
   3.3951830e+02   6.1616290e+01
   3.4000050e+02   5.7804810e+01
   3.4048260e+02   5.4491900e+01
   3.4096470e+02   5.1267350e+01
   3.4144680e+02   4.8031280e+01
   3.4192890e+02   4.4859810e+01
   3.4241100e+02   4.1890130e+01
   3.4289320e+02   3.9126630e+01
   3.4337530e+02   3.6689270e+01
   3.4385740e+02   3.4848740e+01
   3.4433950e+02   3.3542010e+01
   3.4482160e+02   3.2026720e+01
   3.4530370e+02   3.0158520e+01
   3.4578590e+02   2.8188790e+01
   3.4626800e+02   2.6571870e+01
   3.4675010e+02   2.5278390e+01
   3.4723220e+02   2.4081930e+01
   3.4771430e+02   2.2832950e+01
   3.4819640e+02   2.1574800e+01
   3.4867860e+02   2.0444020e+01
   3.4916070e+02   1.9439620e+01
   3.4964280e+02   1.8513060e+01
   3.5012490e+02   1.7609410e+01
   3.5060700e+02   1.6728460e+01
   3.5108910e+02   1.5845710e+01
   3.5157130e+02   1.4860740e+01
   3.5205340e+02   1.3923960e+01
   3.5253550e+02   1.3324200e+01
   3.5301760e+02   1.3061710e+01
   3.5349970e+02   1.2803240e+01
   3.5398180e+02   1.2190000e+01
   3.5446400e+02   1.1413580e+01
   3.5494610e+02   1.0788600e+01
   3.5542820e+02   1.0469130e+01
   3.5591030e+02   1.0262250e+01
   3.5639240e+02   1.0040370e+01
   3.5687450e+02   9.8129080e+00
   3.5735670e+02   9.5703350e+00
   3.5783880e+02   9.2534980e+00
   3.5832090e+02   8.9021950e+00
   3.5880300e+02   8.5459370e+00
   3.5928510e+02   8.1791610e+00
   3.5976720e+02   7.8843380e+00
   3.6024940e+02   7.8119580e+00
   3.6073150e+02   7.8377040e+00
   3.6121360e+02   7.7266040e+00
   3.6169570e+02   7.1274800e+00
   3.6217790e+02   6.5610430e+00
   3.6266000e+02   6.3489530e+00
   3.6314210e+02   6.5899700e+00
   3.6362420e+02   6.8148380e+00
   3.6410630e+02   6.8513110e+00
   3.6458840e+02   6.7644460e+00
   3.6507060e+02   6.6530570e+00
   3.6555270e+02   6.4647600e+00
   3.6603480e+02   6.3682100e+00
   3.6651690e+02   6.4454690e+00
   3.6699900e+02   6.6660460e+00
   3.6748110e+02   6.7890590e+00
   3.6796330e+02   6.6886250e+00
   3.6844540e+02   6.5605090e+00
   3.6892750e+02   6.5257000e+00
   3.6940960e+02   6.8171270e+00
   3.6989170e+02   6.9223590e+00
   3.7037380e+02   6.6288220e+00
   3.7085600e+02   6.1235010e+00
   3.7133810e+02   5.9884800e+00
   3.7182020e+02   6.5075040e+00
   3.7230230e+02   6.9874230e+00
   3.7278440e+02   7.1556240e+00
   3.7326650e+02   6.9360580e+00
   3.7374870e+02   6.7548870e+00
   3.7423080e+02   6.5946010e+00
   3.7471290e+02   6.5039710e+00
   3.7519500e+02   6.5599140e+00
   3.7567710e+02   6.8204420e+00
   3.7615920e+02   6.9741100e+00
   3.7664140e+02   6.9016270e+00
   3.7712350e+02   6.6444550e+00
   3.7760560e+02   6.5580140e+00
   3.7808770e+02   6.6876450e+00
   3.7856980e+02   6.8460960e+00
   3.7905190e+02   6.8779560e+00
   3.7953410e+02   6.7920460e+00
   3.8001620e+02   6.6477200e+00
   3.8049830e+02   6.4069400e+00
   3.8098040e+02   6.1219940e+00
   3.8146250e+02   5.9790800e+00
   3.8194460e+02   5.9755860e+00
   3.8242680e+02   5.9569820e+00
   3.8290890e+02   5.8056640e+00
   3.8339100e+02   5.5588260e+00
   3.8387310e+02   5.3158990e+00
   3.8435530e+02   5.0790900e+00
   3.8483740e+02   4.8951190e+00
   3.8531950e+02   4.8291550e+00
   3.8580160e+02   4.8616070e+00
   3.8628370e+02   4.9325940e+00
   3.8676580e+02   5.1612630e+00
   3.8724800e+02   5.3402860e+00
   3.8773010e+02   5.0940590e+00
   3.8821220e+02   4.4455530e+00
   3.8869430e+02   3.8689380e+00
   3.8917640e+02   3.8126450e+00
   3.8965850e+02   4.0059240e+00
   3.9014070e+02   4.1254810e+00
   3.9062280e+02   4.1414300e+00
   3.9110490e+02   3.9794880e+00
   3.9158700e+02   3.4402470e+00
   3.9206910e+02   2.6553230e+00
   3.9255120e+02   2.0214120e+00
   3.9303340e+02   1.7721270e+00
   3.9351550e+02   1.6960010e+00
   3.9399760e+02   1.6781290e+00
   3.9447970e+02   1.7203980e+00
   3.9496180e+02   1.7568890e+00
   3.9544390e+02   1.7659110e+00
   3.9592610e+02   1.7573890e+00
   3.9640820e+02   1.7449230e+00
   3.9689030e+02   1.8155880e+00
   3.9737240e+02   1.7980710e+00
   3.9785450e+02   1.5883600e+00
   3.9833660e+02   1.1747070e+00
   3.9881880e+02   8.7208900e-01
   3.9930090e+02   7.6298100e-01
   3.9978300e+02   7.3111300e-01
   4.0026510e+02   7.0334100e-01
   4.0074720e+02   6.4602500e-01
   4.0122930e+02   6.4917600e-01
   4.0171150e+02   7.8526700e-01
   4.0219360e+02   9.7810600e-01
   4.0267570e+02   9.8074700e-01
   4.0315780e+02   6.8909600e-01
   4.0363990e+02   3.8400500e-01
   4.0412200e+02   1.8158500e-01
   4.0460420e+02   9.1058999e-02
   4.0508630e+02   4.7355998e-02
   4.0556840e+02   7.2374001e-02
   4.0605050e+02   1.1099100e-01
   4.0653260e+02   8.0234997e-02
   4.0701470e+02   3.2515001e-02
   4.0749690e+02   1.2134700e-01
   4.0797900e+02   1.5754900e-01
   4.0846110e+02   1.4921000e-01
   4.0894320e+02   1.1534300e-01
   4.0942540e+02   5.1353000e-02
   4.0990750e+02   6.3900002e-03
   4.1038960e+02   6.4110003e-02
   4.1087170e+02   1.8683800e-01
   4.1135380e+02   1.8260200e-01
   4.1183590e+02   1.5219000e-02
   4.1231810e+02   2.5271200e-01
   4.1280020e+02   3.3448400e-01
   4.1328230e+02   2.7325800e-01
   4.1376440e+02   1.2089200e-01
   4.1424650e+02   2.3100900e-01
   4.1472860e+02   5.9923600e-01
   4.1521080e+02   7.0698400e-01
   4.1569290e+02   5.3410900e-01
   4.1617500e+02   3.2528700e-01
   4.1665710e+02   2.3884800e-01
   4.1713920e+02   2.3729100e-01
   4.1762130e+02   2.7223200e-01
   4.1810350e+02   3.7541200e-01
   4.1858560e+02   4.5875700e-01
   4.1906770e+02   4.0641400e-01
   4.1954980e+02   2.7220900e-01
   4.2003190e+02   2.5743100e-01
   4.2051400e+02   6.4243900e-01
   4.2099620e+02   1.0320220e+00
   4.2147830e+02   1.1575150e+00
   4.2196040e+02   8.6036700e-01
   4.2244250e+02   6.2803500e-01
   4.2292460e+02   6.5813600e-01
   4.2340670e+02   7.8741300e-01
   4.2388890e+02   7.9307000e-01
   4.2437100e+02   5.3770300e-01
   4.2485310e+02   2.6975600e-01
   4.2533520e+02   1.8253000e-02
   4.2581730e+02   3.2959700e-01
   4.2629940e+02   3.9302300e-01
   4.2678160e+02   2.2089001e-02
   4.2726370e+02   4.0831400e-01
   4.2774580e+02   6.5842400e-01
   4.2822790e+02   6.8741200e-01
   4.2871000e+02   6.3005100e-01
   4.2919210e+02   4.5001200e-01
   4.2967430e+02   2.1675500e-01
   4.3015640e+02   9.8582998e-02
   4.3063850e+02   1.1103100e-01
   4.3112060e+02   1.8056100e-01
   4.3160280e+02   3.2347500e-01
   4.3208490e+02   5.3180300e-01
   4.3256700e+02   5.5106900e-01
   4.3304910e+02   3.5287300e-01
   4.3353120e+02   8.1514001e-02
   4.3401330e+02   1.5079300e-01
   4.3449550e+02   3.3709900e-01
   4.3497760e+02   4.2379600e-01
   4.3545970e+02   3.8172500e-01
   4.3594180e+02   2.5441200e-01
   4.3642390e+02   4.9598999e-02
   4.3690600e+02   2.0423500e-01
   4.3738820e+02   3.3858100e-01
   4.3787030e+02   1.3023600e-01
   4.3835240e+02   2.2252500e-01
   4.3883450e+02   4.2261900e-01
   4.3931660e+02   4.2223500e-01
   4.3979870e+02   3.8118600e-01
   4.4028090e+02   4.4327000e-01
   4.4076300e+02   5.4438800e-01
   4.4124510e+02   5.8472100e-01
   4.4172720e+02   4.5931400e-01
   4.4220930e+02   3.2188000e-01
   4.4269140e+02   2.2248800e-01
   4.4317360e+02   1.6959400e-01
   4.4365570e+02   2.1064400e-01
   4.4413780e+02   4.5443500e-01
   4.4461990e+02   7.3643500e-01
   4.4510200e+02   9.4900100e-01
   4.4558410e+02   1.0321310e+00
   4.4606630e+02   1.1329420e+00
   4.4654840e+02   1.1534730e+00
   4.4703050e+02   1.2273430e+00
   4.4751260e+02   1.5960540e+00
   4.4799470e+02   2.8043440e+00
   4.4847680e+02   3.6387440e+00
   4.4895900e+02   3.7240730e+00
   4.4944110e+02   3.0409560e+00
   4.4992320e+02   2.4976710e+00
   4.5040530e+02   2.0441360e+00
   4.5088740e+02   1.7934910e+00
   4.5136950e+02   1.9250560e+00
   4.5185170e+02   2.5971870e+00
   4.5233380e+02   2.9142780e+00
   4.5281590e+02   2.6810170e+00
   4.5329800e+02   2.1841660e+00
   4.5378010e+02   2.0290570e+00
   4.5426220e+02   2.2396680e+00
   4.5474440e+02   2.4579390e+00
   4.5522650e+02   2.4983500e+00
   4.5570860e+02   2.4111420e+00
   4.5619070e+02   2.4051570e+00
   4.5667290e+02   2.4824350e+00
   4.5715500e+02   2.6145400e+00
   4.5763710e+02   2.8000870e+00
   4.5811920e+02   3.0200880e+00
   4.5860130e+02   3.2432730e+00
   4.5908340e+02   3.4883900e+00
   4.5956560e+02   3.6813910e+00
   4.6004770e+02   3.7173270e+00
   4.6052980e+02   3.6289220e+00
   4.6101190e+02   3.5140360e+00
   4.6149400e+02   3.3268740e+00
   4.6197610e+02   3.1965430e+00
   4.6245830e+02   3.2546310e+00
   4.6294040e+02   3.5239790e+00
   4.6342250e+02   3.7979090e+00
   4.6390460e+02   3.9470880e+00
   4.6438670e+02   4.0731330e+00
   4.6486880e+02   4.2674140e+00
   4.6535100e+02   4.7318500e+00
   4.6583310e+02   5.0626750e+00
   4.6631520e+02   5.0659830e+00
   4.6679730e+02   4.8508260e+00
   4.6727940e+02   4.8070950e+00
   4.6776150e+02   5.0830360e+00
   4.6824370e+02   5.4050450e+00
   4.6872580e+02   5.6909520e+00
   4.6920790e+02   5.9465620e+00
   4.6969000e+02   6.1752490e+00
   4.7017210e+02   6.3559860e+00
   4.7065420e+02   6.5121420e+00
   4.7113640e+02   6.6641410e+00
   4.7161850e+02   6.8052900e+00
   4.7210060e+02   6.9456250e+00
   4.7258270e+02   7.0756300e+00
   4.7306480e+02   7.2218700e+00
   4.7354690e+02   7.4789240e+00
   4.7402910e+02   7.8652380e+00
   4.7451120e+02   8.1681310e+00
   4.7499330e+02   8.1505370e+00
   4.7547540e+02   7.9193400e+00
   4.7595750e+02   7.9808900e+00
   4.7643960e+02   8.3804630e+00
   4.7692180e+02   8.8816090e+00
   4.7740390e+02   9.2686650e+00
   4.7788600e+02   9.5518800e+00
   4.7836810e+02   9.7346990e+00
   4.7885030e+02   9.7781830e+00
   4.7933240e+02   9.7999130e+00
   4.7981450e+02   9.9455220e+00
   4.8029660e+02   1.0183820e+01
   4.8077870e+02   1.0389720e+01
   4.8126080e+02   1.0450870e+01
   4.8174300e+02   1.0500720e+01
   4.8222510e+02   1.0654470e+01
   4.8270720e+02   1.0940460e+01
   4.8318930e+02   1.1234240e+01
   4.8367140e+02   1.1518740e+01
   4.8415350e+02   1.1758070e+01
   4.8463570e+02   1.1913980e+01
   4.8511780e+02   1.1846640e+01
   4.8559990e+02   1.1831100e+01
   4.8608200e+02   1.1978390e+01
   4.8656410e+02   1.2238490e+01
   4.8704620e+02   1.2413920e+01
   4.8752840e+02   1.2432690e+01
   4.8801050e+02   1.2464980e+01
   4.8849260e+02   1.2574630e+01
   4.8897470e+02   1.2768430e+01
   4.8945680e+02   1.2964920e+01
   4.8993890e+02   1.3166890e+01
   4.9042110e+02   1.3363810e+01
   4.9090320e+02   1.3549290e+01
   4.9138530e+02   1.3730700e+01
   4.9186740e+02   1.3860750e+01
   4.9234950e+02   1.3888570e+01
   4.9283160e+02   1.3886650e+01
   4.9331380e+02   1.4013440e+01
   4.9379590e+02   1.4262160e+01
   4.9427800e+02   1.4574870e+01
   4.9476010e+02   1.4977540e+01
   4.9524220e+02   1.5404310e+01
   4.9572430e+02   1.5729130e+01
   4.9620650e+02   1.5952780e+01
   4.9668860e+02   1.6100430e+01
   4.9717070e+02   1.6180150e+01
   4.9765280e+02   1.6210230e+01
   4.9813490e+02   1.6219550e+01
   4.9861700e+02   1.6222370e+01
   4.9909920e+02   1.6197040e+01
   4.9958130e+02   1.6076700e+01
   5.0006340e+02   1.5914480e+01
   5.0054550e+02   1.5840690e+01
   5.0102760e+02   1.5955080e+01
   5.0150970e+02   1.6118840e+01
   5.0199190e+02   1.6287300e+01
   5.0247400e+02   1.6456010e+01
   5.0295610e+02   1.6622940e+01
   5.0343820e+02   1.6836180e+01
   5.0392030e+02   1.7012120e+01
   5.0440250e+02   1.7086900e+01
   5.0488460e+02   1.7001350e+01
   5.0536670e+02   1.6941320e+01
   5.0584880e+02   1.6931930e+01
   5.0633090e+02   1.6941970e+01
   5.0681300e+02   1.6906810e+01
   5.0729520e+02   1.6826090e+01
   5.0777730e+02   1.6700230e+01
   5.0825940e+02   1.6491260e+01
   5.0874150e+02   1.6233310e+01
   5.0922360e+02   1.6136850e+01
   5.0970570e+02   1.6212770e+01
   5.1018790e+02   1.6311950e+01
   5.1067000e+02   1.6316330e+01
   5.1115210e+02   1.6245960e+01
   5.1163420e+02   1.6161740e+01
   5.1211630e+02   1.6077110e+01
   5.1259840e+02   1.5969600e+01
   5.1308060e+02   1.5758690e+01
   5.1356270e+02   1.5509510e+01
   5.1404480e+02   1.5358220e+01
   5.1452690e+02   1.5470350e+01
   5.1500900e+02   1.5612790e+01
   5.1549110e+02   1.5621210e+01
   5.1597330e+02   1.5511250e+01
   5.1645540e+02   1.5403570e+01
   5.1693750e+02   1.5456600e+01
   5.1741960e+02   1.5443390e+01
   5.1790170e+02   1.5195450e+01
   5.1838390e+02   1.4541160e+01
   5.1886600e+02   1.4026390e+01
   5.1934810e+02   1.3811660e+01
   5.1983020e+02   1.3719440e+01
   5.2031230e+02   1.3563180e+01
   5.2079440e+02   1.3260200e+01
   5.2127660e+02   1.3048550e+01
   5.2175870e+02   1.3005460e+01
   5.2224080e+02   1.3075840e+01
   5.2272290e+02   1.3038910e+01
   5.2320500e+02   1.2879250e+01
   5.2368710e+02   1.2672380e+01
   5.2416930e+02   1.2429230e+01
   5.2465140e+02   1.2161190e+01
   5.2513350e+02   1.1967070e+01
   5.2561560e+02   1.1854360e+01
   5.2609770e+02   1.1763410e+01
   5.2657980e+02   1.1621980e+01
   5.2706200e+02   1.1450040e+01
   5.2754410e+02   1.1324490e+01
   5.2802620e+02   1.1303380e+01
   5.2850830e+02   1.1251840e+01
   5.2899040e+02   1.0988490e+01
   5.2947250e+02   1.0578660e+01
   5.2995470e+02   1.0183310e+01
   5.3043680e+02   9.8761100e+00
   5.3091890e+02   9.6157680e+00
   5.3140100e+02   9.3719330e+00
   5.3188310e+02   9.1414930e+00
   5.3236520e+02   8.9763720e+00
   5.3284740e+02   8.9881990e+00
   5.3332950e+02   9.0019570e+00
   5.3381160e+02   8.8982960e+00
   5.3429370e+02   8.5506860e+00
   5.3477580e+02   8.2836320e+00
   5.3525790e+02   8.2041420e+00
   5.3574010e+02   8.1602610e+00
   5.3622220e+02   7.9050880e+00
   5.3670430e+02   7.2606620e+00
   5.3718650e+02   6.8240740e+00
   5.3766860e+02   6.7747020e+00
   5.3815070e+02   7.0226520e+00
   5.3863280e+02   7.1905710e+00
   5.3911490e+02   7.2897510e+00
   5.3959700e+02   7.2505440e+00
   5.4007920e+02   6.9443930e+00
   5.4056130e+02   6.4442770e+00
   5.4104340e+02   6.1067770e+00
   5.4152550e+02   5.9476150e+00
   5.4200760e+02   5.8895020e+00
   5.4248970e+02   5.9412800e+00
   5.4297190e+02   6.0283050e+00
   5.4345400e+02   5.9892330e+00
   5.4393610e+02   5.7180860e+00
   5.4441820e+02   5.4247070e+00
   5.4490030e+02   5.2675190e+00
   5.4538240e+02   5.2153630e+00
   5.4586460e+02   5.2022250e+00
   5.4634670e+02   5.3570210e+00
   5.4682880e+02   5.4022770e+00
   5.4731090e+02   5.0932580e+00
   5.4779300e+02   4.4187550e+00
   5.4827510e+02   3.9906620e+00
   5.4875730e+02   4.1889190e+00
   5.4923940e+02   4.4409100e+00
   5.4972150e+02   4.4173450e+00
   5.5020360e+02   3.9128630e+00
   5.5068570e+02   3.5971660e+00
   5.5116780e+02   3.5220580e+00
   5.5165000e+02   3.5883710e+00
   5.5213210e+02   3.7152180e+00
   5.5261420e+02   3.9488280e+00
   5.5309630e+02   3.9589600e+00
   5.5357840e+02   3.5772610e+00
   5.5406050e+02   2.9979760e+00
   5.5454270e+02   2.7443470e+00
   5.5502480e+02   2.8030640e+00
   5.5550690e+02   2.9327740e+00
   5.5598900e+02   3.0641840e+00
   5.5647110e+02   3.1489240e+00
   5.5695320e+02   3.0632310e+00
   5.5743540e+02   2.8076670e+00
   5.5791750e+02   2.5533160e+00
   5.5839960e+02   2.4361880e+00
   5.5888170e+02   2.3960170e+00
   5.5936380e+02   2.3649810e+00
   5.5984590e+02   2.2935730e+00
   5.6032810e+02   2.2444250e+00
   5.6081020e+02   2.3026660e+00
   5.6129230e+02   2.3920210e+00
   5.6177440e+02   2.3870910e+00
   5.6225650e+02   2.1245350e+00
   5.6273860e+02   1.9263290e+00
   5.6322080e+02   1.8633770e+00
   5.6370290e+02   1.9212170e+00
   5.6418500e+02   2.0072080e+00
   5.6466710e+02   2.1727750e+00
   5.6514920e+02   2.2818680e+00
   5.6563130e+02   2.2360380e+00
   5.6611350e+02   2.0114350e+00
   5.6659560e+02   1.8744260e+00
   5.6707770e+02   1.8389870e+00
   5.6755980e+02   1.8587610e+00
   5.6804190e+02   1.9050710e+00
   5.6852400e+02   1.9667820e+00
   5.6900620e+02   2.0116440e+00
   5.6948830e+02   2.0528680e+00
   5.6997040e+02   2.0487750e+00
   5.7045250e+02   1.9064180e+00
   5.7093460e+02   1.6714780e+00
   5.7141670e+02   1.4981540e+00
   5.7189890e+02   1.5033930e+00
   5.7238100e+02   1.5792540e+00
   5.7286310e+02   1.7137390e+00
   5.7334520e+02   1.8748970e+00
   5.7382730e+02   1.8895970e+00
   5.7430940e+02   1.4720670e+00
   5.7479160e+02   1.0837120e+00
   5.7527370e+02   1.0225770e+00
   5.7575580e+02   1.4769360e+00
   5.7623790e+02   1.6895920e+00
   5.7672000e+02   1.4339620e+00
   5.7720210e+02   1.0865150e+00
   5.7768430e+02   1.0266900e+00
   5.7816640e+02   1.4230310e+00
   5.7864850e+02   1.6189940e+00
   5.7913060e+02   1.4896790e+00
   5.7961270e+02   1.1913300e+00
   5.8009480e+02   1.0281050e+00
   5.8057700e+02   1.0004250e+00
   5.8105910e+02   1.0084300e+00
   5.8154120e+02   1.0266970e+00
   5.8202330e+02   1.0477390e+00
   5.8250540e+02   1.0536170e+00
   5.8298750e+02   1.0458870e+00
   5.8346970e+02   1.0373880e+00
   5.8395180e+02   1.0670280e+00
   5.8443400e+02   1.0766330e+00
   5.8491610e+02   9.8845100e-01
   5.8539820e+02   7.8101700e-01
   5.8588030e+02   6.0387400e-01
   5.8636240e+02   5.3395500e-01
   5.8684450e+02   5.2915800e-01
   5.8732670e+02   5.5105200e-01
   5.8780880e+02   6.0477800e-01
   5.8829090e+02   6.6880000e-01
   5.8877300e+02   7.8903000e-01
   5.8925510e+02   9.0562800e-01
   5.8973720e+02   9.0564300e-01
   5.9021940e+02   7.1709400e-01
   5.9070150e+02   5.5125400e-01
   5.9118360e+02   4.5470400e-01
   5.9166570e+02   4.2192300e-01
   5.9214780e+02   4.5400600e-01
   5.9262990e+02   5.6487700e-01
   5.9311210e+02   6.3447200e-01
   5.9359420e+02   5.4769500e-01
   5.9407630e+02   3.5656700e-01
   5.9455840e+02   2.5493200e-01
   5.9504050e+02   2.5126600e-01
   5.9552260e+02   2.8988100e-01
   5.9600480e+02   3.7464000e-01
   5.9648690e+02   4.5392600e-01
   5.9696900e+02   4.3934400e-01
   5.9745110e+02   2.7026900e-01
   5.9793320e+02   1.1264600e-01
   5.9841530e+02   5.2765001e-02
   5.9889750e+02   6.8099998e-02
   5.9937960e+02   1.2176500e-01
   5.9986170e+02   1.4931500e-01
   6.0034380e+02   2.7583700e-01
   6.0082590e+02   6.9816400e-01
   6.0130800e+02   1.2792190e+00
   6.0179020e+02   1.4374580e+00
   6.0227230e+02   9.3211000e-01
   6.0275440e+02   4.0071500e-01
   6.0323650e+02   5.2305002e-02
   6.0371860e+02   1.1237100e-01
   6.0420070e+02   1.4927100e-01
   6.0468290e+02   3.1695999e-02
   6.0516500e+02   8.5530996e-02
   6.0564710e+02   3.8550999e-02
   6.0612920e+02   1.2534000e-01
   6.0661130e+02   1.9762200e-01
   6.0709340e+02   1.4495500e-01
   6.0757560e+02   5.8313001e-02
   6.0805770e+02   1.3882000e-02
   6.0853980e+02   2.4830000e-03
   6.0902190e+02   6.7710001e-03
   6.0950400e+02   5.0619999e-03
   6.0998610e+02   3.3505999e-02
   6.1046830e+02   2.4493000e-01
   6.1095040e+02   5.2802100e-01
   6.1143250e+02   6.6744800e-01
   6.1191460e+02   4.4947600e-01
   6.1239670e+02   2.4078000e-01
   6.1287880e+02   1.6381800e-01
   6.1336100e+02   2.0561000e-01
   6.1384310e+02   1.9446200e-01
   6.1432520e+02   6.0671002e-02
   6.1480730e+02   8.2170004e-03
   6.1528940e+02   1.0887900e-01
   6.1577150e+02   4.2524900e-01
   6.1625370e+02   7.1468700e-01
   6.1673580e+02   1.0033820e+00
   6.1721790e+02   1.1431750e+00
   6.1770000e+02   8.3511400e-01
   6.1818210e+02   2.3072800e-01
   6.1866420e+02   1.0404000e-01
   6.1914640e+02   3.3854000e-02
   6.1962850e+02   1.5930900e-01
   6.2011060e+02   2.2195400e-01
   6.2059270e+02   2.0336200e-01
   6.2107480e+02   1.8818300e-01
   6.2155690e+02   1.9768900e-01
   6.2203910e+02   2.2874500e-01
   6.2252120e+02   3.2358600e-01
   6.2300330e+02   4.4409000e-01
   6.2348540e+02   4.7412700e-01
   6.2396750e+02   2.8202600e-01
   6.2444960e+02   1.1155100e-01
   6.2493180e+02   4.4335999e-02
   6.2541390e+02   7.7440001e-02
   6.2589600e+02   4.9720999e-02
   6.2637810e+02   9.6546002e-02
   6.2686020e+02   1.7054600e-01
   6.2734230e+02   3.3886001e-02
   6.2782450e+02   5.0145100e-01
   6.2830660e+02   6.3124100e-01
   6.2878870e+02   3.6619200e-01
   6.2927080e+02   3.8378000e-02
   6.2975290e+02   2.9428000e-02
   6.3023500e+02   2.1762800e-01
   6.3071720e+02   3.0753900e-01
   6.3119930e+02   1.9243400e-01
   6.3168150e+02   8.7335996e-02
   6.3216360e+02   2.3128100e-01
   6.3264570e+02   4.8805200e-01
   6.3312780e+02   6.4247900e-01
   6.3360990e+02   6.0092200e-01
   6.3409200e+02   4.6837400e-01
   6.3457420e+02   1.9300500e-01
   6.3505630e+02   1.6202500e-01
   6.3553840e+02   3.6810300e-01
   6.3602050e+02   3.5158300e-01
   6.3650260e+02   2.8312700e-01
   6.3698470e+02   1.8348700e-01
   6.3746690e+02   6.1577000e-02
   6.3794900e+02   7.3784001e-02
   6.3843110e+02   2.5254200e-01
   6.3891320e+02   4.2146500e-01
   6.3939530e+02   4.5546500e-01
   6.3987740e+02   3.7825200e-01
   6.4035960e+02   1.9934700e-01
   6.4084170e+02   1.0507400e-01
   6.4132380e+02   1.4704300e-01
   6.4180590e+02   8.5105500e-01
   6.4228800e+02   2.1959510e+00
   6.4277010e+02   2.8260590e+00
   6.4325230e+02   2.2945230e+00
   6.4373440e+02   1.6418630e+00
   6.4421650e+02   1.3945710e+00
   6.4469860e+02   1.3405490e+00
   6.4518070e+02   1.1994550e+00
   6.4566280e+02   3.8814400e-01
   6.4614500e+02   1.6296600e-01
   6.4662710e+02   1.1648460e+00
   6.4710920e+02   2.7530980e+00
   6.4759130e+02   3.1666010e+00
   6.4807340e+02   1.9314000e+00
   6.4855550e+02   8.6951100e-01
   6.4903770e+02   6.1874000e-01
   6.4951980e+02   9.8794200e-01
   6.5000190e+02   1.0732270e+00
   6.5048400e+02   8.7994000e-01
   6.5096610e+02   7.9783100e-01
   6.5144820e+02   1.2776170e+00
   6.5193040e+02   1.9634270e+00
   6.5241250e+02   2.1705270e+00
   6.5289460e+02   1.8801560e+00
   6.5337670e+02   1.5878520e+00
   6.5385880e+02   1.6645970e+00
   6.5434090e+02   1.8553330e+00
   6.5482310e+02   1.9481560e+00
   6.5530520e+02   1.8848500e+00
   6.5578730e+02   1.7793730e+00
   6.5626940e+02   1.5766320e+00
   6.5675150e+02   1.3914930e+00
   6.5723360e+02   1.3379000e+00
   6.5771580e+02   1.4884200e+00
   6.5819790e+02   1.6070590e+00
   6.5868000e+02   1.6613710e+00
   6.5916210e+02   1.6905690e+00
   6.5964420e+02   1.7625520e+00
   6.6012630e+02   1.8765490e+00
   6.6060850e+02   2.0275340e+00
   6.6109060e+02   2.2320330e+00
   6.6157270e+02   2.4333190e+00
   6.6205480e+02   2.5365830e+00
   6.6253690e+02   2.5720200e+00
   6.6301900e+02   2.6175120e+00
   6.6350120e+02   2.7667880e+00
   6.6398330e+02   2.8785290e+00
   6.6446540e+02   2.8327100e+00
   6.6494750e+02   2.6524940e+00
   6.6542960e+02   2.4805580e+00
   6.6591170e+02   2.3057560e+00
   6.6639390e+02   2.1927660e+00
   6.6687600e+02   2.1727730e+00
   6.6735810e+02   2.2443960e+00
   6.6784020e+02   2.4294490e+00
   6.6832230e+02   2.8184870e+00
   6.6880440e+02   3.1497330e+00
   6.6928660e+02   3.1893500e+00
   6.6976870e+02   2.9435390e+00
   6.7025080e+02   2.8713890e+00
   6.7073290e+02   3.0139730e+00
   6.7121500e+02   3.2023220e+00
   6.7169710e+02   3.2357220e+00
   6.7217930e+02   3.1837480e+00
   6.7266140e+02   3.2023540e+00
   6.7314350e+02   3.3250030e+00
   6.7362560e+02   3.4812550e+00
   6.7410770e+02   3.7121350e+00
   6.7458980e+02   3.9293480e+00
   6.7507200e+02   4.0024260e+00
   6.7555410e+02   3.7528100e+00
   6.7603620e+02   3.5860770e+00
   6.7651830e+02   3.5746190e+00
   6.7700040e+02   3.6829300e+00
   6.7748250e+02   3.8838330e+00
   6.7796470e+02   4.3116380e+00
   6.7844680e+02   4.5904690e+00
   6.7892900e+02   4.5627400e+00
   6.7941110e+02   4.3066880e+00
   6.7989320e+02   4.2105180e+00
   6.8037530e+02   4.2787040e+00
   6.8085740e+02   4.3754790e+00
   6.8133950e+02   4.4168510e+00
   6.8182170e+02   4.4558810e+00
   6.8230380e+02   4.5760500e+00
   6.8278590e+02   4.7694530e+00
   6.8326800e+02   4.9837630e+00
   6.8375010e+02   5.2671030e+00
   6.8423220e+02   5.5159630e+00
   6.8471440e+02   5.6123870e+00
   6.8519650e+02   5.5060140e+00
   6.8567860e+02   5.4246060e+00
   6.8616070e+02   5.4687230e+00
   6.8664280e+02   5.5967500e+00
   6.8712490e+02   5.7659990e+00
   6.8760710e+02   5.9725800e+00
   6.8808920e+02   6.1525020e+00
   6.8857130e+02   6.3007240e+00
   6.8905340e+02   6.4546300e+00
   6.8953550e+02   6.6457810e+00
   6.9001760e+02   6.8623260e+00
   6.9049980e+02   7.0711500e+00
   6.9098190e+02   7.2888360e+00
   6.9146400e+02   7.4735360e+00
   6.9194610e+02   7.4502740e+00
   6.9242820e+02   7.3513240e+00
   6.9291030e+02   7.4522060e+00
   6.9339250e+02   8.0147650e+00
   6.9387460e+02   8.6075880e+00
   6.9435670e+02   8.9185450e+00
   6.9483880e+02   9.0707780e+00
   6.9532090e+02   9.3539700e+00
   6.9580300e+02   1.0045080e+01
   6.9628520e+02   1.0632160e+01
   6.9676730e+02   1.0965360e+01
   6.9724940e+02   1.1098350e+01
   6.9773150e+02   1.1280380e+01
   6.9821360e+02   1.1501640e+01
   6.9869570e+02   1.1805220e+01
   6.9917790e+02   1.2248990e+01
   6.9966000e+02   1.2797350e+01
   7.0014210e+02   1.3236880e+01
   7.0062420e+02   1.3576000e+01
   7.0110630e+02   1.3938470e+01
   7.0158840e+02   1.4354930e+01
   7.0207060e+02   1.4873830e+01
   7.0255270e+02   1.5623500e+01
   7.0303480e+02   1.6609790e+01
   7.0351690e+02   1.7514270e+01
   7.0399900e+02   1.8033870e+01
   7.0448110e+02   1.8511230e+01
   7.0496330e+02   1.9188240e+01
   7.0544540e+02   2.0191070e+01
   7.0592750e+02   2.1110390e+01
   7.0640960e+02   2.1850000e+01
   7.0689170e+02   2.2610790e+01
   7.0737380e+02   2.3601720e+01
   7.0785600e+02   2.4837530e+01
   7.0833810e+02   2.5987820e+01
   7.0882020e+02   2.7000170e+01
   7.0930230e+02   2.8020220e+01
   7.0978440e+02   2.9245200e+01
   7.1026650e+02   3.0622160e+01
   7.1074870e+02   3.2011500e+01
   7.1123080e+02   3.3300310e+01
   7.1171290e+02   3.4764500e+01
   7.1219500e+02   3.6678700e+01
   7.1267710e+02   3.8906510e+01
   7.1315920e+02   4.1251020e+01
   7.1364140e+02   4.3926450e+01
   7.1412350e+02   4.6369680e+01
   7.1460560e+02   4.8135960e+01
   7.1508770e+02   4.9640130e+01
   7.1556980e+02   5.1663950e+01
   7.1605190e+02   5.4312850e+01
   7.1653410e+02   5.7191460e+01
   7.1701620e+02   6.0193760e+01
   7.1749830e+02   6.3347660e+01
   7.1798040e+02   6.6570920e+01
   7.1846250e+02   6.9907250e+01
   7.1894460e+02   7.3590230e+01
   7.1942680e+02   7.7521030e+01
   7.1990890e+02   8.1992490e+01
   7.2039100e+02   8.8045990e+01
   7.2087310e+02   9.5182900e+01
   7.2135520e+02   1.0154200e+02
   7.2183730e+02   1.0519840e+02
   7.2231950e+02   1.0863160e+02
   7.2280160e+02   1.1309480e+02
   7.2328370e+02   1.1861570e+02
   7.2376580e+02   1.2444160e+02
   7.2424790e+02   1.3045960e+02
   7.2473000e+02   1.3679030e+02
   7.2521220e+02   1.4345470e+02
   7.2569430e+02   1.5045570e+02
   7.2617650e+02   1.5769870e+02
   7.2665860e+02   1.6530060e+02
   7.2714070e+02   1.7296410e+02
   7.2762280e+02   1.8053920e+02
   7.2810490e+02   1.8809880e+02
   7.2858700e+02   1.9564100e+02
   7.2906920e+02   2.0316870e+02
   7.2955130e+02   2.1076230e+02
   7.3003340e+02   2.1845450e+02
   7.3051550e+02   2.2629750e+02
   7.3099760e+02   2.3422360e+02
   7.3147970e+02   2.4242490e+02
   7.3196190e+02   2.5026310e+02
   7.3244400e+02   2.5786000e+02
   7.3292610e+02   2.6483670e+02
   7.3340820e+02   2.7096770e+02
   7.3389030e+02   2.7615900e+02
   7.3437240e+02   2.8080990e+02
   7.3485460e+02   2.8503360e+02
   7.3533670e+02   2.8842650e+02
   7.3581880e+02   2.9047430e+02
   7.3630090e+02   2.9117250e+02
   7.3678300e+02   2.9067110e+02
   7.3726510e+02   2.8903920e+02
   7.3774730e+02   2.8612470e+02
   7.3822940e+02   2.8163200e+02
   7.3871150e+02   2.7575770e+02
   7.3919360e+02   2.6886210e+02
   7.3967570e+02   2.6085550e+02
   7.4015780e+02   2.5216520e+02
   7.4064000e+02   2.4270030e+02
   7.4112210e+02   2.3263370e+02
   7.4160420e+02   2.2217110e+02
   7.4208630e+02   2.1111000e+02
   7.4256840e+02   2.0001590e+02
   7.4305050e+02   1.8876140e+02
   7.4353270e+02   1.7761010e+02
   7.4401480e+02   1.6715000e+02
   7.4449690e+02   1.5744500e+02
   7.4497900e+02   1.4817420e+02
   7.4546110e+02   1.3924080e+02
   7.4594320e+02   1.3065000e+02
   7.4642540e+02   1.2230210e+02
   7.4690750e+02   1.1424340e+02
   7.4738960e+02   1.0671890e+02
   7.4787170e+02   1.0002970e+02
   7.4835380e+02   9.3761960e+01
   7.4883590e+02   8.7597330e+01
   7.4931810e+02   8.1616180e+01
   7.4980020e+02   7.6116090e+01
   7.5028230e+02   7.1268420e+01
   7.5076440e+02   6.6608830e+01
   7.5124650e+02   6.2006700e+01
   7.5172860e+02   5.7495890e+01
   7.5221080e+02   5.3471640e+01
   7.5269290e+02   4.9918450e+01
   7.5317500e+02   4.6639390e+01
   7.5365710e+02   4.3630920e+01
   7.5413920e+02   4.0806480e+01
   7.5462130e+02   3.8023530e+01
   7.5510350e+02   3.5284490e+01
   7.5558560e+02   3.2703400e+01
   7.5606770e+02   3.0315580e+01
   7.5654980e+02   2.8075940e+01
   7.5703190e+02   2.5870880e+01
   7.5751400e+02   2.3703980e+01
   7.5799620e+02   2.1899890e+01
   7.5847830e+02   2.0636920e+01
   7.5896040e+02   1.9500930e+01
   7.5944250e+02   1.8306750e+01
   7.5992460e+02   1.7066640e+01
   7.6040670e+02   1.5840540e+01
   7.6088890e+02   1.4625310e+01
   7.6137100e+02   1.3504890e+01
   7.6185310e+02   1.2565790e+01
   7.6233520e+02   1.1758720e+01
   7.6281730e+02   1.1001420e+01
   7.6329940e+02   1.0290110e+01
   7.6378160e+02   9.6020790e+00
   7.6426370e+02   8.8900620e+00
   7.6474580e+02   8.2313920e+00
   7.6522790e+02   7.7215670e+00
   7.6571000e+02   7.4063590e+00
   7.6619210e+02   6.9784050e+00
   7.6667430e+02   6.3304270e+00
   7.6715640e+02   5.6802200e+00
   7.6763850e+02   5.1682530e+00
   7.6812060e+02   4.8030930e+00
   7.6860270e+02   4.4451270e+00
   7.6908480e+02   4.0829370e+00
   7.6956700e+02   3.7893790e+00
   7.7004910e+02   3.7279510e+00
   7.7053120e+02   3.7533950e+00
   7.7101330e+02   3.5308210e+00
   7.7149540e+02   2.9980600e+00
   7.7197750e+02   2.4964180e+00
   7.7245970e+02   2.2169320e+00
   7.7294180e+02   2.0797840e+00
   7.7342400e+02   2.0204200e+00
   7.7390610e+02   2.0593970e+00
   7.7438820e+02   2.1178870e+00
   7.7487030e+02   2.2791350e+00
   7.7535240e+02   2.3626480e+00
   7.7583450e+02   2.1707740e+00
   7.7631670e+02   1.6719950e+00
   7.7679880e+02   1.2933200e+00
   7.7728090e+02   1.0769940e+00
   7.7776300e+02   9.1605800e-01
   7.7824510e+02   6.8805100e-01
   7.7872720e+02   4.3550500e-01
   7.7920940e+02   2.3387100e-01
   7.7969150e+02   9.4609998e-02
   7.8017360e+02   2.4761001e-02
   7.8065570e+02   9.0700001e-02
   7.8113780e+02   1.9714400e-01
   7.8161990e+02   2.5386200e-01
   7.8210210e+02   2.5888400e-01
   7.8258420e+02   1.7949700e-01
   7.8306630e+02   3.9165001e-02
   7.8354840e+02   2.8121600e-01
   7.8403050e+02   4.3833500e-01
   7.8451260e+02   5.1351900e-01
   7.8499480e+02   4.3608500e-01
   7.8547690e+02   1.6677900e-01
   7.8595900e+02   1.1252400e-01
   7.8644110e+02   1.8199000e-01
   7.8692320e+02   1.1225300e-01
   7.8740530e+02   2.7605001e-02
   7.8788750e+02   4.5322001e-02
   7.8836960e+02   1.2334400e-01
   7.8885170e+02   2.6992000e-01
   7.8933380e+02   4.0131000e-01
   7.8981590e+02   4.1688500e-01
   7.9029800e+02   1.8149900e-01
   7.9078020e+02   6.1193001e-02
   7.9126230e+02   8.4347002e-02
   7.9174440e+02   2.0125400e-01
   7.9222650e+02   4.2339300e-01
   7.9270860e+02   7.3497200e-01
   7.9319070e+02   7.2473700e-01
   7.9367290e+02   2.4086600e-01
   7.9415500e+02   2.3535700e-01
   7.9463710e+02   2.8820001e-02
   7.9511920e+02   5.1202800e-01
   7.9560130e+02   8.0021700e-01
   7.9608340e+02   5.0626600e-01
   7.9656560e+02   2.8437600e-01
   7.9704770e+02   4.8753000e-01
   7.9752980e+02   8.3110000e-01
   7.9801190e+02   9.5984300e-01
   7.9849400e+02   7.6218500e-01
   7.9897610e+02   6.0903200e-01
   7.9945830e+02   5.4886600e-01
   7.9994040e+02   4.9882700e-01
   8.0042250e+02   2.9253800e-01
   8.0090460e+02   2.7081000e-02
   8.0138670e+02   1.9329500e-01
   8.0186880e+02   1.2885700e-01
   8.0235100e+02   1.1642000e-02
   8.0283310e+02   1.3519100e-01
   8.0331520e+02   2.1915800e-01
   8.0379730e+02   2.2346700e-01
   8.0427940e+02   5.5078998e-02
   8.0476150e+02   5.3633001e-02
   8.0524370e+02   3.4855900e-01
   8.0572580e+02   5.9947400e-01
   8.0620790e+02   2.5374800e-01
   8.0669000e+02   2.8295570e+00
   8.0717210e+02   3.9261680e+00
   8.0765420e+02   2.9212570e+00
   8.0813640e+02   1.1743290e+00
   8.0861850e+02   3.7841100e-01
   8.0910060e+02   3.2238200e-01
   8.0958270e+02   4.2923600e-01
   8.1006480e+02   6.3195400e-01
   8.1054690e+02   7.5976300e-01
   8.1102910e+02   6.4008200e-01
   8.1151120e+02   3.9505800e-01
   8.1199330e+02   1.6221700e-01
   8.1247540e+02   8.5070997e-02
   8.1295750e+02   2.3075500e-01
   8.1343960e+02   2.6899700e-01
   8.1392180e+02   2.0933300e-01
   8.1440390e+02   2.4278000e-02
   8.1488600e+02   3.0141400e-01
   8.1536810e+02   5.2306700e-01
   8.1585020e+02   6.0877300e-01
   8.1633230e+02   6.1515900e-01
   8.1681450e+02   5.6913300e-01
   8.1729660e+02   5.0132600e-01
   8.1777870e+02   4.6955100e-01
   8.1826080e+02   4.9873700e-01
   8.1874290e+02   5.2356600e-01
   8.1922510e+02   4.6745000e-01
   8.1970720e+02   4.1707300e-01
   8.2018930e+02   4.7439700e-01
   8.2067140e+02   7.8089000e-01
   8.2115360e+02   8.7490500e-01
   8.2163570e+02   6.7882300e-01
   8.2211780e+02   4.0850400e-01
   8.2259990e+02   2.6350800e-01
   8.2308200e+02   2.4426100e-01
   8.2356410e+02   3.9066500e-01
   8.2404630e+02   7.2624000e-01
   8.2452840e+02   1.0663610e+00
   8.2501050e+02   1.2807210e+00
   8.2549260e+02   1.3817970e+00
   8.2597470e+02   1.3505780e+00
   8.2645680e+02   1.1192300e+00
   8.2693900e+02   9.7881900e-01
   8.2742110e+02   1.1028840e+00
   8.2790320e+02   1.2551700e+00
   8.2838530e+02   1.2724070e+00
   8.2886740e+02   1.1197280e+00
   8.2934950e+02   9.7977500e-01
   8.2983170e+02   8.3781600e-01
   8.3031380e+02   7.8388500e-01
   8.3079590e+02   9.9844200e-01
   8.3127800e+02   1.3457270e+00
   8.3176010e+02   1.5175380e+00
   8.3224220e+02   1.4744150e+00
   8.3272440e+02   1.4060140e+00
   8.3320650e+02   1.4080150e+00
   8.3368860e+02   1.4485750e+00
   8.3417070e+02   1.5287000e+00
   8.3465280e+02   1.6887310e+00
   8.3513490e+02   1.6826800e+00
   8.3561710e+02   1.3949200e+00
   8.3609920e+02   1.1364360e+00
   8.3658130e+02   1.1412110e+00
   8.3706340e+02   1.3890440e+00
   8.3754550e+02   1.5766840e+00
   8.3802760e+02   1.7039310e+00
   8.3850980e+02   1.8213460e+00
   8.3899190e+02   2.0370270e+00
   8.3947400e+02   2.2199520e+00
   8.3995610e+02   2.1789690e+00
   8.4043820e+02   1.9070370e+00
   8.4092030e+02   1.7011200e+00
   8.4140250e+02   1.6666140e+00
   8.4188460e+02   1.7095800e+00
   8.4236670e+02   1.8216670e+00
   8.4284880e+02   2.0063170e+00
   8.4333090e+02   2.0614040e+00
   8.4381300e+02   1.9589720e+00
   8.4429520e+02   1.8392550e+00
   8.4477730e+02   1.7470870e+00
   8.4525940e+02   1.7116360e+00
   8.4574150e+02   1.8606100e+00
   8.4622360e+02   2.1481290e+00
   8.4670570e+02   2.3390770e+00
   8.4718790e+02   2.1954040e+00
   8.4767000e+02   2.0275360e+00
   8.4815210e+02   2.0418910e+00
   8.4863420e+02   2.2127630e+00
   8.4911630e+02   2.3038510e+00
   8.4959840e+02   2.2719050e+00
   8.5008060e+02   2.2102730e+00
   8.5056270e+02   2.1052140e+00
   8.5104480e+02   2.0209120e+00
   8.5152690e+02   2.2089700e+00
   8.5200900e+02   2.6168820e+00
   8.5249110e+02   2.9424130e+00
   8.5297330e+02   2.9847680e+00
   8.5345540e+02   2.8886150e+00
   8.5393750e+02   2.6053090e+00
   8.5441960e+02   2.3183600e+00
   8.5490170e+02   2.4650090e+00
   8.5538390e+02   4.0579880e+00
   8.5586600e+02   4.9691480e+00
   8.5634810e+02   4.5430400e+00
   8.5683020e+02   3.3551010e+00
   8.5731230e+02   2.6291890e+00
   8.5779440e+02   2.3763280e+00
   8.5827660e+02   2.3986130e+00
   8.5875870e+02   2.7391350e+00
   8.5924080e+02   3.1279670e+00
   8.5972290e+02   3.1154540e+00
   8.6020500e+02   2.8713130e+00
   8.6068710e+02   2.7579420e+00
   8.6116930e+02   3.0005740e+00
   8.6165140e+02   3.2474130e+00
   8.6213350e+02   3.3511880e+00
   8.6261560e+02   3.4036250e+00
   8.6309770e+02   3.4889550e+00
   8.6357980e+02   3.5964850e+00
   8.6406200e+02   3.8715570e+00
   8.6454410e+02   4.3009430e+00
   8.6502620e+02   4.8093680e+00
   8.6550830e+02   5.3635030e+00
   8.6599040e+02   5.9282210e+00
   8.6647260e+02   6.3884200e+00
   8.6695470e+02   6.7159380e+00
   8.6743680e+02   6.9945680e+00
   8.6791890e+02   7.1916160e+00
   8.6840110e+02   7.4313280e+00
   8.6888320e+02   7.8373320e+00
   8.6936530e+02   8.4955810e+00
   8.6984740e+02   9.1475620e+00
   8.7032950e+02   9.7733160e+00
   8.7081160e+02   1.0402090e+01
   8.7129380e+02   1.1060400e+01
   8.7177590e+02   1.1752170e+01
   8.7225800e+02   1.2441230e+01
   8.7274010e+02   1.3136780e+01
   8.7322220e+02   1.3787730e+01
   8.7370430e+02   1.4454560e+01
   8.7418650e+02   1.5001190e+01
   8.7466860e+02   1.5233130e+01
   8.7515070e+02   1.5134980e+01
   8.7563280e+02   1.5074050e+01
   8.7611490e+02   1.5137000e+01
   8.7659700e+02   1.5273470e+01
   8.7707920e+02   1.5543150e+01
   8.7756130e+02   1.5898330e+01
   8.7804340e+02   1.5837010e+01
   8.7852550e+02   1.5353650e+01
   8.7900760e+02   1.4711450e+01
   8.7948970e+02   1.4100310e+01
   8.7997190e+02   1.3408930e+01
   8.8045400e+02   1.2423280e+01
   8.8093610e+02   1.1217220e+01
   8.8141820e+02   1.0011240e+01
   8.8190030e+02   8.7780070e+00
   8.8238240e+02   7.6900540e+00
   8.8286460e+02   6.8367390e+00
   8.8334670e+02   6.1618150e+00
   8.8382880e+02   5.5473150e+00
   8.8431090e+02   4.9761710e+00
   8.8479300e+02   4.5499170e+00
   8.8527510e+02   4.3327000e+00
   8.8575730e+02   4.2097790e+00
   8.8623940e+02   3.9772440e+00
   8.8672150e+02   3.6820490e+00
   8.8720360e+02   3.4468780e+00
   8.8768570e+02   3.3272720e+00
   8.8816780e+02   3.2537230e+00
   8.8865000e+02   3.2367990e+00
   8.8913210e+02   3.2357910e+00
   8.8961420e+02   3.1911720e+00
   8.9009630e+02   3.0688910e+00
   8.9057840e+02   3.0012720e+00
   8.9106050e+02   3.0143260e+00
   8.9154270e+02   3.0354920e+00
   8.9202480e+02   2.9558970e+00
   8.9250690e+02   2.8157960e+00
   8.9298900e+02   2.7386220e+00
   8.9347110e+02   2.7459870e+00
   8.9395320e+02   2.7717510e+00
   8.9443540e+02   2.8230550e+00
   8.9491750e+02   2.8465290e+00
   8.9539960e+02   2.7731170e+00
   8.9588170e+02   2.5534030e+00
   8.9636380e+02   2.4522750e+00
   8.9684590e+02   2.4948100e+00
   8.9732810e+02   2.6040230e+00
   8.9781020e+02   2.7691480e+00
   8.9829230e+02   2.9644570e+00
   8.9877440e+02   3.0345580e+00
   8.9925650e+02   2.9882240e+00
   8.9973860e+02   2.9078410e+00
   9.0022080e+02   2.8228520e+00
   9.0070290e+02   2.7453410e+00
   9.0118500e+02   2.6846580e+00
   9.0166710e+02   2.6385260e+00
   9.0214920e+02   2.5787290e+00
   9.0263130e+02   2.4013760e+00
   9.0311350e+02   2.4028360e+00
   9.0359560e+02   2.7481660e+00
   9.0407770e+02   3.2633650e+00
   9.0455980e+02   3.4523370e+00
   9.0504190e+02   3.3448460e+00
   9.0552400e+02   3.1716600e+00
   9.0600620e+02   2.9941960e+00
   9.0648830e+02   2.8306370e+00
   9.0697040e+02   2.6408170e+00
   9.0745250e+02   2.4851330e+00
   9.0793460e+02   2.4609150e+00
   9.0841670e+02   2.7396080e+00
   9.0889890e+02   2.9493600e+00
   9.0938100e+02   3.0447000e+00
   9.0986310e+02   3.0938540e+00
   9.1034520e+02   3.2248120e+00
   9.1082730e+02   3.4197820e+00
   9.1130940e+02   3.3825410e+00
   9.1179160e+02   3.0480070e+00
   9.1227370e+02   2.7121960e+00
   9.1275580e+02   2.6717590e+00
   9.1323800e+02   2.7715340e+00
   9.1372010e+02   2.8504880e+00
   9.1420220e+02   2.8746980e+00
   9.1468430e+02   2.9052830e+00
   9.1516640e+02   3.0137590e+00
   9.1564860e+02   3.0523330e+00
   9.1613070e+02   2.8765010e+00
   9.1661280e+02   2.5138430e+00
   9.1709490e+02   2.5101030e+00
   9.1757700e+02   2.8692760e+00
   9.1805910e+02   3.2411220e+00
   9.1854130e+02   3.4064140e+00
   9.1902340e+02   3.4548760e+00
   9.1950550e+02   3.4261730e+00
   9.1998760e+02   3.3617540e+00
   9.2046970e+02   3.3845620e+00
   9.2095180e+02   3.6903540e+00
   9.2143400e+02   3.8872090e+00
   9.2191610e+02   3.8615200e+00
   9.2239820e+02   3.6857670e+00
   9.2288030e+02   3.5063800e+00
   9.2336240e+02   3.3275330e+00
   9.2384450e+02   3.2777430e+00
   9.2432670e+02   3.4613870e+00
   9.2480880e+02   3.6396530e+00
   9.2529090e+02   3.4665310e+00
   9.2577300e+02   3.1439470e+00
   9.2625510e+02   2.9744530e+00
   9.2673720e+02   3.1526480e+00
   9.2721940e+02   3.2775990e+00
   9.2770150e+02   3.2553480e+00
   9.2818360e+02   3.1998150e+00
   9.2866570e+02   3.2288880e+00
   9.2914780e+02   3.3547360e+00
   9.2962990e+02   3.4965330e+00
   9.3011210e+02   3.6491450e+00
   9.3059420e+02   3.7362920e+00
   9.3107630e+02   3.6309630e+00
   9.3155840e+02   3.4791260e+00
   9.3204050e+02   3.4579520e+00
   9.3252260e+02   3.5779850e+00
   9.3300480e+02   3.6219650e+00
   9.3348690e+02   3.3526570e+00
   9.3396900e+02   3.2396700e+00
   9.3445110e+02   2.8585000e+00
   9.3493320e+02   3.6685330e+00
   9.3541530e+02   4.1461030e+00
   9.3589750e+02   4.3090980e+00
   9.3637960e+02   3.2152410e+00
   9.3686170e+02   3.7443300e+00
   9.3734380e+02   3.6230170e+00
   9.3782590e+02   3.4750350e+00
   9.3830800e+02   4.2325380e+00
   9.3879020e+02   3.3215020e+00
   9.3927230e+02   4.0646450e+00
   9.3975440e+02   4.1474690e+00
   9.4023650e+02   4.5325060e+00
   9.4071860e+02   4.2631260e+00
   9.4120070e+02   4.1958690e+00
   9.4168290e+02   4.7832570e+00
   9.4216500e+02   5.0081530e+00
   9.4264710e+02   4.2024860e+00
   9.4312920e+02   4.1052920e+00
   9.4361130e+02   4.1520670e+00
   9.4409340e+02   4.2631370e+00
   9.4457560e+02   4.3666820e+00
   9.4505770e+02   4.4555230e+00
   9.4553980e+02   4.4823510e+00
   9.4602190e+02   4.4221170e+00
   9.4650400e+02   4.3315680e+00
   9.4698610e+02   4.2193110e+00
   9.4746830e+02   4.0900750e+00
   9.4795040e+02   4.0230410e+00
   9.4843250e+02   4.0219400e+00
   9.4891460e+02   4.0424130e+00
   9.4939670e+02   3.9974110e+00
   9.4987880e+02   3.9888940e+00
   9.5036100e+02   4.2212290e+00
   9.5084310e+02   4.5915390e+00
   9.5132520e+02   4.7782250e+00
   9.5180730e+02   4.6476020e+00
   9.5228940e+02   4.4403010e+00
   9.5277150e+02   4.1960710e+00
   9.5325370e+02   3.9487760e+00
   9.5373580e+02   3.6922610e+00
   9.5421790e+02   3.4419150e+00
   9.5470000e+02   3.3416680e+00
   9.5518210e+02   3.4579880e+00
   9.5566420e+02   3.6126150e+00
   9.5614640e+02   3.7212790e+00
   9.5662850e+02   3.7493380e+00
   9.5711060e+02   3.6650980e+00
   9.5759270e+02   3.4312900e+00
   9.5807480e+02   3.2985120e+00
   9.5855690e+02   3.2928870e+00
   9.5903910e+02   3.3098320e+00
   9.5952120e+02   3.3013380e+00
   9.6000330e+02   3.2602630e+00
   9.6048550e+02   3.1144180e+00
   9.6096760e+02   2.8951030e+00
   9.6144970e+02   2.7726590e+00
   9.6193180e+02   3.0178750e+00
   9.6241390e+02   3.1945940e+00
   9.6289610e+02   2.9885200e+00
   9.6337820e+02   2.5525040e+00
   9.6386030e+02   2.3091410e+00
   9.6434240e+02   2.2939420e+00
   9.6482450e+02   2.3328840e+00
   9.6530660e+02   2.4074230e+00
   9.6578880e+02   2.4878830e+00
   9.6627090e+02   2.5840550e+00
   9.6675300e+02   2.6447450e+00
   9.6723510e+02   2.5286330e+00
   9.6771720e+02   2.1228830e+00
   9.6819930e+02   1.8383050e+00
   9.6868150e+02   1.9213470e+00
   9.6916360e+02   2.1081660e+00
   9.6964570e+02   2.2488820e+00
   9.7012780e+02   2.3500610e+00
   9.7060990e+02   2.2093700e+00
   9.7109200e+02   1.8025300e+00
   9.7157420e+02   1.4895400e+00
   9.7205630e+02   1.6449680e+00
   9.7253840e+02   1.9536760e+00
   9.7302050e+02   2.0034580e+00
   9.7350260e+02   1.8443200e+00
   9.7398470e+02   1.7194900e+00
   9.7446690e+02   1.8587700e+00
   9.7494900e+02   1.8267230e+00
   9.7543110e+02   1.4098590e+00
   9.7591320e+02   8.7455400e-01
   9.7639530e+02   8.3615100e-01
   9.7687740e+02   1.2533970e+00
   9.7735960e+02   1.4760880e+00
   9.7784170e+02   1.3312320e+00
   9.7832380e+02   1.0822810e+00
   9.7880590e+02   9.0341400e-01
   9.7928800e+02   7.8879000e-01
   9.7977010e+02   7.3848200e-01
   9.8025230e+02   7.7296600e-01
   9.8073440e+02   8.1204000e-01
   9.8121650e+02   8.9113000e-01
   9.8169860e+02   9.0461300e-01
   9.8218070e+02   7.5198600e-01
   9.8266280e+02   4.8237800e-01
   9.8314500e+02   3.1391500e-01
   9.8362710e+02   2.3457000e-01
   9.8410920e+02   1.8173800e-01
   9.8459130e+02   8.2455002e-02
   9.8507340e+02   4.1841999e-02
   9.8555550e+02   2.1568100e-01
   9.8603770e+02   4.7964900e-01
   9.8651980e+02   4.9457000e-01
   9.8700190e+02   1.5438100e-01
   9.8748400e+02   6.8273999e-02
   9.8796610e+02   7.5122997e-02
   9.8844820e+02   1.7492000e-02
   9.8893040e+02   1.1136800e-01
   9.8941250e+02   2.8991300e-01
   9.8989460e+02   4.2078000e-01
   9.9037670e+02   4.7120300e-01
   9.9085880e+02   5.2938500e-01
   9.9134090e+02   5.8898400e-01
   9.9182310e+02   7.1481100e-01
   9.9230520e+02   9.6333900e-01
   9.9278730e+02   1.3244970e+00
   9.9326940e+02   1.6368960e+00
   9.9375150e+02   1.9076770e+00
   9.9423360e+02   1.9576030e+00
   9.9471580e+02   1.4625170e+00
   9.9519790e+02   9.0519300e-01
   9.9568000e+02   9.0678800e-01
   9.9616210e+02   1.2677920e+00
   9.9664420e+02   1.5055580e+00
   9.9712630e+02   1.4257580e+00
   9.9760850e+02   1.2860090e+00
   9.9809060e+02   1.0665630e+00
   9.9857270e+02   8.6199000e-01
   9.9905480e+02   8.2758500e-01
   9.9953690e+02   9.3269300e-01
   1.0000190e+03   9.7448900e-01
   1.0005010e+03   9.2500500e-01
   1.0009830e+03   9.2010900e-01
   1.0014650e+03   1.1061270e+00
   1.0019480e+03   1.3317510e+00
   1.0024300e+03   1.4961890e+00
   1.0029120e+03   1.5890460e+00
   1.0033940e+03   1.6258510e+00
   1.0038760e+03   1.6123560e+00
   1.0043580e+03   1.5116290e+00
   1.0048400e+03   1.2604620e+00
   1.0053220e+03   9.6536800e-01
   1.0058040e+03   8.9308200e-01
   1.0062870e+03   9.3401500e-01
   1.0067690e+03   7.9081000e-01
   1.0072510e+03   2.0987000e-02
   1.0077330e+03   4.4408800e-01
   1.0082150e+03   3.1353400e-01
   1.0086970e+03   1.2577130e+00
   1.0091790e+03   1.4178560e+00
   1.0096610e+03   6.9610600e-01
   1.0101440e+03   4.3696200e-01
   1.0106260e+03   7.1028900e-01
   1.0111080e+03   9.9687600e-01
   1.0115900e+03   7.4619700e-01
   1.0120720e+03   3.9302100e-01
   1.0125540e+03   4.6890600e-01
   1.0130360e+03   9.0937400e-01
   1.0135180e+03   1.0360760e+00
   1.0140000e+03   4.9644100e-01
   1.0144830e+03   8.5464001e-02
   1.0149650e+03   3.8406000e-02
   1.0154470e+03   1.6868200e-01
   1.0159290e+03   5.7964001e-02
   1.0164110e+03   2.2498700e-01
   1.0168930e+03   3.9283400e-01
   1.0173750e+03   3.2363900e-01
   1.0178570e+03   3.1729900e-01
   1.0183400e+03   6.8361700e-01
   1.0188220e+03   1.0989840e+00
   1.0193040e+03   1.2513240e+00
   1.0197860e+03   1.0881390e+00
   1.0202680e+03   1.1738700e+00
   1.0207500e+03   1.5403940e+00
   1.0212320e+03   1.8844030e+00
   1.0217140e+03   1.9830440e+00
   1.0221960e+03   1.9787560e+00
   1.0226790e+03   1.9146120e+00
   1.0231610e+03   1.9165310e+00
   1.0236430e+03   2.3455700e+00
   1.0241250e+03   4.1130220e+00
   1.0246070e+03   5.2274740e+00
   1.0250890e+03   5.1533700e+00
   1.0255710e+03   4.5451930e+00
   1.0260530e+03   4.2656710e+00
   1.0265360e+03   4.3034130e+00
   1.0270180e+03   4.4699060e+00
   1.0275000e+03   4.7402500e+00
   1.0279820e+03   5.1592520e+00
   1.0284640e+03   5.9727020e+00
   1.0289460e+03   6.7672040e+00
   1.0294280e+03   7.1814190e+00
   1.0299100e+03   7.2184330e+00
   1.0303920e+03   7.2854080e+00
   1.0308750e+03   7.3357090e+00
   1.0313570e+03   7.5575410e+00
   1.0318390e+03   8.0638850e+00
   1.0323210e+03   8.7299610e+00
   1.0328030e+03   9.3492360e+00
   1.0332850e+03   9.9195060e+00
   1.0337670e+03   1.0431700e+01
   1.0342490e+03   1.0878310e+01
   1.0347320e+03   1.1354790e+01
   1.0352140e+03   1.1799580e+01
   1.0356960e+03   1.2327240e+01
   1.0361780e+03   1.3106130e+01
   1.0366600e+03   1.4125990e+01
   1.0371420e+03   1.4840800e+01
   1.0376240e+03   1.5252350e+01
   1.0381060e+03   1.5764420e+01
   1.0385890e+03   1.6732420e+01
   1.0390710e+03   1.7821320e+01
   1.0395530e+03   1.8821640e+01
   1.0400350e+03   1.9732280e+01
   1.0405170e+03   2.0605420e+01
   1.0409990e+03   2.1448620e+01
   1.0414810e+03   2.2279540e+01
   1.0419630e+03   2.3090450e+01
   1.0424450e+03   2.3962960e+01
   1.0429270e+03   2.5092930e+01
   1.0434100e+03   2.6374150e+01
   1.0438920e+03   2.7567210e+01
   1.0443740e+03   2.8627440e+01
   1.0448560e+03   2.9725400e+01
   1.0453380e+03   3.1002050e+01
   1.0458200e+03   3.2289950e+01
   1.0463020e+03   3.3476490e+01
   1.0467840e+03   3.4593740e+01
   1.0472670e+03   3.5808440e+01
   1.0477490e+03   3.7141140e+01
   1.0482310e+03   3.8711280e+01
   1.0487130e+03   4.0694470e+01
   1.0491950e+03   4.2656800e+01
   1.0496770e+03   4.4088010e+01
   1.0501590e+03   4.5367320e+01
   1.0506410e+03   4.7060610e+01
   1.0511240e+03   4.9417920e+01
   1.0516060e+03   5.1582970e+01
   1.0520880e+03   5.3525110e+01
   1.0525700e+03   5.5499870e+01
   1.0530520e+03   5.7698390e+01
   1.0535340e+03   6.0067770e+01
   1.0540160e+03   6.2561200e+01
   1.0544980e+03   6.5187840e+01
   1.0549800e+03   6.7977170e+01
   1.0554630e+03   7.0868640e+01
   1.0559450e+03   7.4046470e+01
   1.0564270e+03   7.7489340e+01
   1.0569090e+03   8.1207470e+01
   1.0573910e+03   8.5218450e+01
   1.0578730e+03   8.9516260e+01
   1.0583550e+03   9.4014190e+01
   1.0588370e+03   9.8686420e+01
   1.0593190e+03   1.0370140e+02
   1.0598020e+03   1.0928810e+02
   1.0602840e+03   1.1505440e+02
   1.0607660e+03   1.2047850e+02
   1.0612480e+03   1.2562760e+02
   1.0617300e+03   1.3178620e+02
   1.0622120e+03   1.3906590e+02
   1.0626940e+03   1.4687780e+02
   1.0631760e+03   1.5505030e+02
   1.0636590e+03   1.6342720e+02
   1.0641410e+03   1.7166490e+02
   1.0646230e+03   1.8008570e+02
   1.0651050e+03   1.8925140e+02
   1.0655870e+03   1.9910520e+02
   1.0660690e+03   2.0991720e+02
   1.0665510e+03   2.2160960e+02
   1.0670330e+03   2.3427740e+02
   1.0675160e+03   2.4798220e+02
   1.0679980e+03   2.6279050e+02
   1.0684800e+03   2.7829400e+02
   1.0689620e+03   2.9465050e+02
   1.0694440e+03   3.1256530e+02
   1.0699260e+03   3.3286530e+02
   1.0704080e+03   3.5417670e+02
   1.0708900e+03   3.7482280e+02
   1.0713720e+03   3.9618040e+02
   1.0718540e+03   4.2021360e+02
   1.0723370e+03   4.4683670e+02
   1.0728190e+03   4.7494470e+02
   1.0733010e+03   5.0414220e+02
   1.0737830e+03   5.3531290e+02
   1.0742650e+03   5.6807350e+02
   1.0747470e+03   6.0364230e+02
   1.0752290e+03   6.4314840e+02
   1.0757110e+03   6.8654980e+02
   1.0761940e+03   7.3386790e+02
   1.0766760e+03   7.8396900e+02
   1.0771580e+03   8.3886770e+02
   1.0776400e+03   8.9854160e+02
   1.0781220e+03   9.6349010e+02
   1.0786040e+03   1.0339080e+03
   1.0790860e+03   1.1104090e+03
   1.0795680e+03   1.1941620e+03
   1.0800510e+03   1.2865410e+03
   1.0805330e+03   1.3847390e+03
   1.0810150e+03   1.4874620e+03
   1.0814970e+03   1.5966830e+03
   1.0819790e+03   1.7129660e+03
   1.0824610e+03   1.8354750e+03
   1.0829430e+03   1.9649300e+03
   1.0834250e+03   2.1021610e+03
   1.0839070e+03   2.2452430e+03
   1.0843900e+03   2.3940640e+03
   1.0848720e+03   2.5478140e+03
   1.0853540e+03   2.7067510e+03
   1.0858360e+03   2.8692300e+03
   1.0863180e+03   3.0371700e+03
   1.0868000e+03   3.2099050e+03
   1.0872820e+03   3.3877600e+03
   1.0877640e+03   3.5713510e+03
   1.0882470e+03   3.7550070e+03
   1.0887290e+03   3.9376970e+03
   1.0892110e+03   4.1152310e+03
   1.0896930e+03   4.2889430e+03
   1.0901750e+03   4.4558820e+03
   1.0906570e+03   4.6052450e+03
   1.0911390e+03   4.7412260e+03
   1.0916210e+03   4.8499450e+03
   1.0921040e+03   4.9305720e+03
   1.0925860e+03   4.9809800e+03
   1.0930680e+03   5.0004490e+03
   1.0935500e+03   4.9868990e+03
   1.0940320e+03   4.9342810e+03
   1.0945140e+03   4.8419030e+03
   1.0949960e+03   4.7194670e+03
   1.0954780e+03   4.5617630e+03
   1.0959600e+03   4.3851100e+03
   1.0964430e+03   4.1931380e+03
   1.0969250e+03   3.9902210e+03
   1.0974070e+03   3.7816050e+03
   1.0978890e+03   3.5673990e+03
   1.0983710e+03   3.3548580e+03
   1.0988530e+03   3.1429510e+03
   1.0993350e+03   2.9384470e+03
   1.0998170e+03   2.7461370e+03
   1.1002990e+03   2.5631500e+03
   1.1007820e+03   2.3862660e+03
   1.1012640e+03   2.2135900e+03
   1.1017460e+03   2.0515390e+03
   1.1022280e+03   1.8995410e+03
   1.1027100e+03   1.7557890e+03
   1.1031920e+03   1.6209830e+03
   1.1036740e+03   1.4938430e+03
   1.1041560e+03   1.3744790e+03
   1.1046390e+03   1.2636550e+03
   1.1051210e+03   1.1614040e+03
   1.1056030e+03   1.0702970e+03
   1.1060850e+03   9.8475460e+02
   1.1065670e+03   9.0428060e+02
   1.1070490e+03   8.3020210e+02
   1.1075310e+03   7.6284090e+02
   1.1080130e+03   7.0226020e+02
   1.1084950e+03   6.4605380e+02
   1.1089780e+03   5.9437570e+02
   1.1094600e+03   5.4725640e+02
   1.1099420e+03   5.0519540e+02
   1.1104240e+03   4.6678040e+02
   1.1109060e+03   4.3148780e+02
   1.1113880e+03   3.9906510e+02
   1.1118700e+03   3.6915820e+02
   1.1123520e+03   3.4166510e+02
   1.1128340e+03   3.1639440e+02
   1.1133170e+03   2.9311150e+02
   1.1137990e+03   2.7150600e+02
   1.1142810e+03   2.5147720e+02
   1.1147630e+03   2.3292800e+02
   1.1152450e+03   2.1615010e+02
   1.1157270e+03   2.0093640e+02
   1.1162090e+03   1.8732450e+02
   1.1166910e+03   1.7519040e+02
   1.1171740e+03   1.6382430e+02
   1.1176560e+03   1.5307810e+02
   1.1181380e+03   1.4295470e+02
   1.1186200e+03   1.3339690e+02
   1.1191020e+03   1.2451400e+02
   1.1195840e+03   1.1657650e+02
   1.1200660e+03   1.0953110e+02
   1.1205480e+03   1.0243830e+02
   1.1210310e+03   9.5168780e+01
   1.1215130e+03   8.8767090e+01
   1.1219950e+03   8.3816140e+01
   1.1224770e+03   7.9512340e+01
   1.1229590e+03   7.4721240e+01
   1.1234410e+03   6.9855210e+01
   1.1239230e+03   6.5502320e+01
   1.1244050e+03   6.1990750e+01
   1.1248870e+03   5.8313360e+01
   1.1253700e+03   5.4291650e+01
   1.1258520e+03   5.0593510e+01
   1.1263340e+03   4.7677480e+01
   1.1268160e+03   4.5311650e+01
   1.1272980e+03   4.3198530e+01
   1.1277800e+03   4.1190260e+01
   1.1282620e+03   3.8960670e+01
   1.1287440e+03   3.5949590e+01
   1.1292270e+03   3.3351400e+01
   1.1297090e+03   3.1346900e+01
   1.1301910e+03   2.9639570e+01
   1.1306730e+03   2.7981040e+01
   1.1311550e+03   2.6392920e+01
   1.1316370e+03   2.4906970e+01
   1.1321190e+03   2.3511560e+01
   1.1326010e+03   2.2139060e+01
   1.1330830e+03   2.0741370e+01
   1.1335660e+03   1.9368870e+01
   1.1340480e+03   1.7973560e+01
   1.1345300e+03   1.6667890e+01
   1.1350120e+03   1.5645670e+01
   1.1354940e+03   1.4892090e+01
   1.1359760e+03   1.4150270e+01
   1.1364580e+03   1.3393230e+01
   1.1369400e+03   1.2657780e+01
   1.1374220e+03   1.1986110e+01
   1.1379050e+03   1.1325570e+01
   1.1383870e+03   1.0631550e+01
   1.1388690e+03   9.9243930e+00
   1.1393510e+03   9.2849040e+00
   1.1398330e+03   8.7100220e+00
   1.1403150e+03   8.0756610e+00
   1.1407970e+03   7.3520580e+00
   1.1412790e+03   6.6275100e+00
   1.1417620e+03   5.8259700e+00
   1.1422440e+03   5.1295620e+00
   1.1427260e+03   4.8174440e+00
   1.1432080e+03   4.8680310e+00
   1.1436900e+03   4.7342720e+00
   1.1441720e+03   4.4099730e+00
   1.1446540e+03   3.9358410e+00
   1.1451360e+03   3.2746470e+00
   1.1456190e+03   2.6687160e+00
   1.1461010e+03   2.5949630e+00
   1.1465830e+03   2.6711620e+00
   1.1470650e+03   2.3673060e+00
   1.1475470e+03   1.4776040e+00
   1.1480290e+03   9.4905500e-01
   1.1485110e+03   8.8196900e-01
   1.1489930e+03   8.7127700e-01
   1.1494750e+03   7.7759200e-01
   1.1499580e+03   6.0236000e-01
   1.1504400e+03   2.5184600e-01
   1.1509220e+03   1.6200600e-01
   1.1514040e+03   4.3432000e-01
   1.1518860e+03   4.5743600e-01
   1.1523680e+03   4.6740700e-01
   1.1528500e+03   4.7170400e-01
   1.1533320e+03   4.8131800e-01
   1.1538140e+03   4.7623100e-01
   1.1542970e+03   5.0071100e-01
   1.1547790e+03   6.9109500e-01
   1.1552610e+03   1.0016820e+00
   1.1557430e+03   1.2891030e+00
   1.1562250e+03   1.5578440e+00
   1.1567070e+03   1.7095090e+00
   1.1571890e+03   1.7224160e+00
   1.1576710e+03   1.6589510e+00
   1.1581540e+03   1.5118900e+00
   1.1586360e+03   1.3299850e+00
   1.1591180e+03   1.4172690e+00
   1.1596000e+03   1.6958890e+00
   1.1600820e+03   1.7733540e+00
   1.1605640e+03   1.1532250e+00
   1.1610460e+03   7.0842200e-01
   1.1615280e+03   7.1332600e-01
   1.1620100e+03   9.4861000e-01
   1.1624930e+03   1.2548450e+00
   1.1629750e+03   1.6008420e+00
   1.1634570e+03   1.7091850e+00
   1.1639390e+03   1.5855290e+00
   1.1644210e+03   1.4596540e+00
   1.1649030e+03   1.4963950e+00
   1.1653850e+03   1.5239050e+00
   1.1658670e+03   1.4393060e+00
   1.1663490e+03   1.3104440e+00
   1.1668320e+03   1.2605060e+00
   1.1673140e+03   1.2917230e+00
   1.1677960e+03   1.3261700e+00
   1.1682780e+03   1.3584520e+00
   1.1687600e+03   1.2869280e+00
   1.1692420e+03   9.0952300e-01
   1.1697240e+03   5.2635800e-01
   1.1702060e+03   3.2617000e-01
   1.1706890e+03   2.7714900e-01
   1.1711710e+03   3.1738100e-01
   1.1716530e+03   4.4062400e-01
   1.1721350e+03   4.4567700e-01
   1.1726170e+03   2.7496100e-01
   1.1730990e+03   1.5494000e-01
   1.1735810e+03   3.6935400e-01
   1.1740630e+03   6.2153400e-01
   1.1745460e+03   6.6130600e-01
   1.1750280e+03   5.3214100e-01
   1.1755100e+03   4.2132800e-01
   1.1759920e+03   3.2826800e-01
   1.1764740e+03   3.0385200e-01
   1.1769560e+03   3.9250000e-01
   1.1774380e+03   4.2369700e-01
   1.1779200e+03   1.7444200e-01
   1.1784020e+03   1.5748400e-01
   1.1788850e+03   3.9290200e-01
   1.1793670e+03   5.2612700e-01
   1.1798490e+03   6.5081800e-01
   1.1803310e+03   7.6535200e-01
   1.1808130e+03   8.7442400e-01
   1.1812950e+03   9.5888500e-01
   1.1817770e+03   1.0923860e+00
   1.1822590e+03   1.5318830e+00
   1.1827420e+03   1.9517420e+00
   1.1832240e+03   1.9177630e+00
   1.1837060e+03   1.3497450e+00
   1.1841880e+03   9.6009400e-01
   1.1846700e+03   7.5645100e-01
   1.1851520e+03   6.3442400e-01
   1.1856340e+03   5.1375200e-01
   1.1861160e+03   5.1343000e-01
   1.1865990e+03   8.8379300e-01
   1.1870810e+03   1.4091950e+00
   1.1875630e+03   1.7981340e+00
   1.1880450e+03   2.0014000e+00
   1.1885270e+03   2.1161990e+00
   1.1890090e+03   2.1249260e+00
   1.1894910e+03   2.1480850e+00
   1.1899730e+03   2.2686080e+00
   1.1904550e+03   2.4182820e+00
   1.1909380e+03   2.5425680e+00
   1.1914200e+03   2.6252560e+00
   1.1919020e+03   2.6309380e+00
   1.1923840e+03   2.5159550e+00
   1.1928660e+03   2.4308240e+00
   1.1933480e+03   2.3633520e+00
   1.1938300e+03   2.3879930e+00
   1.1943120e+03   2.5761240e+00
   1.1947940e+03   2.8633370e+00
   1.1952770e+03   3.2655930e+00
   1.1957590e+03   3.6817950e+00
   1.1962410e+03   3.8865450e+00
   1.1967230e+03   3.7202070e+00
   1.1972050e+03   3.6527840e+00
   1.1976870e+03   3.7073230e+00
   1.1981690e+03   3.7797210e+00
   1.1986510e+03   3.4372940e+00
   1.1991340e+03   3.3224780e+00
   1.1996160e+03   5.0147600e+00
   1.2000980e+03   7.5564860e+00
   1.2005800e+03   8.3606140e+00
   1.2010620e+03   5.5982310e+00
   1.2015440e+03   4.8176880e+00
   1.2020260e+03   6.7169130e+00
   1.2025080e+03   8.6922400e+00
   1.2029900e+03   8.2082130e+00
   1.2034730e+03   6.6497470e+00
   1.2039550e+03   5.6436670e+00
   1.2044370e+03   5.1375920e+00
   1.2049190e+03   4.7474670e+00
   1.2054010e+03   4.3281900e+00
   1.2058830e+03   4.2689350e+00
   1.2063650e+03   4.6693340e+00
   1.2068470e+03   5.1078080e+00
   1.2073290e+03   5.1490020e+00
   1.2078120e+03   5.0141090e+00
   1.2082940e+03   4.9419440e+00
   1.2087760e+03   4.9361820e+00
   1.2092580e+03   4.9878990e+00
   1.2097400e+03   5.1448380e+00
   1.2102220e+03   5.2128810e+00
   1.2107040e+03   5.1406750e+00
   1.2111860e+03   5.1037390e+00
   1.2116690e+03   5.3347310e+00
   1.2121510e+03   5.6664740e+00
   1.2126330e+03   5.9147050e+00
   1.2131150e+03   6.0627540e+00
   1.2135970e+03   6.0823460e+00
   1.2140790e+03   5.8947910e+00
   1.2145610e+03   5.8621390e+00
   1.2150430e+03   6.0827410e+00
   1.2155260e+03   6.2918490e+00
   1.2160080e+03   6.1398940e+00
   1.2164900e+03   5.8605080e+00
   1.2169720e+03   5.7056370e+00
   1.2174540e+03   5.6702140e+00
   1.2179360e+03   5.6710340e+00
   1.2184180e+03   5.7689510e+00
   1.2189000e+03   5.7471120e+00
   1.2193820e+03   5.4692240e+00
   1.2198650e+03   5.3873710e+00
   1.2203470e+03   6.5324990e+00
   1.2208290e+03   7.7822850e+00
   1.2213110e+03   7.6716650e+00
   1.2217930e+03   6.2995830e+00
   1.2222750e+03   5.4687580e+00
   1.2227570e+03   5.3681320e+00
   1.2232390e+03   5.1778510e+00
   1.2237220e+03   4.6497020e+00
   1.2242040e+03   4.4649110e+00
   1.2246860e+03   6.1210990e+00
   1.2251680e+03   7.9416600e+00
   1.2256500e+03   8.0159890e+00
   1.2261320e+03   6.3405650e+00
   1.2266140e+03   4.9719540e+00
   1.2270960e+03   3.8839130e+00
   1.2275780e+03   3.5761280e+00
   1.2280610e+03   4.2859460e+00
   1.2285430e+03   5.0880450e+00
   1.2290250e+03   4.9033390e+00
   1.2295070e+03   4.4020710e+00
   1.2299890e+03   4.2081990e+00
   1.2304710e+03   4.3575710e+00
   1.2309530e+03   4.6012570e+00
   1.2314350e+03   4.9534520e+00
   1.2319170e+03   5.0490760e+00
   1.2324000e+03   4.7806890e+00
   1.2328820e+03   4.4505750e+00
   1.2333640e+03   4.3250100e+00
   1.2338460e+03   4.2720850e+00
   1.2343280e+03   4.1462780e+00
   1.2348100e+03   3.9640940e+00
   1.2352920e+03   3.9561180e+00
   1.2357740e+03   4.1541080e+00
   1.2362570e+03   4.1993260e+00
   1.2367390e+03   3.9708840e+00
   1.2372210e+03   3.6956270e+00
   1.2377030e+03   3.5359490e+00
   1.2381850e+03   3.4387490e+00
   1.2386670e+03   3.3568380e+00
   1.2391490e+03   3.2974810e+00
   1.2396310e+03   3.3644980e+00
   1.2401140e+03   3.5581160e+00
   1.2405960e+03   3.6192300e+00
   1.2410780e+03   3.4499510e+00
   1.2415600e+03   3.2446840e+00
   1.2420420e+03   3.0942120e+00
   1.2425240e+03   3.0433590e+00
   1.2430060e+03   3.1773660e+00
   1.2434880e+03   3.4163520e+00
   1.2439700e+03   3.4686910e+00
   1.2444530e+03   3.3689750e+00
   1.2449350e+03   3.2314530e+00
   1.2454170e+03   3.0662140e+00
   1.2458990e+03   2.9252370e+00
   1.2463810e+03   2.8659890e+00
   1.2468630e+03   2.8110690e+00
   1.2473450e+03   2.6853310e+00
   1.2478270e+03   2.5168570e+00
   1.2483090e+03   2.4724960e+00
   1.2487920e+03   2.5465110e+00
   1.2492740e+03   2.6403660e+00
   1.2497560e+03   2.7147720e+00
   1.2502380e+03   2.7159970e+00
   1.2507200e+03   2.5828500e+00
   1.2512020e+03   2.4357990e+00
   1.2516840e+03   2.3238530e+00
   1.2521660e+03   2.2246820e+00
   1.2526490e+03   2.1660270e+00
   1.2531310e+03   2.1442810e+00
   1.2536130e+03   2.1589570e+00
   1.2540950e+03   2.1947280e+00
   1.2545770e+03   2.2536050e+00
   1.2550590e+03   2.3988270e+00
   1.2555410e+03   2.4946650e+00
   1.2560230e+03   2.4888260e+00
   1.2565050e+03   2.4450620e+00
   1.2569880e+03   2.5303300e+00
   1.2574700e+03   2.6546420e+00
   1.2579520e+03   2.5507410e+00
   1.2584340e+03   2.1119480e+00
   1.2589160e+03   1.8784730e+00
   1.2593980e+03   2.0409870e+00
   1.2598800e+03   2.1437630e+00
   1.2603620e+03   2.0150970e+00
   1.2608440e+03   1.8174790e+00
   1.2613270e+03   1.8931840e+00
   1.2618090e+03   2.0445410e+00
   1.2622910e+03   1.8355630e+00
   1.2627730e+03   1.1416850e+00
   1.2632550e+03   9.1778000e-01
   1.2637370e+03   1.4013400e+00
   1.2642190e+03   1.6903690e+00
   1.2647010e+03   1.4243440e+00
   1.2651840e+03   9.7400600e-01
   1.2656660e+03   8.1460500e-01
   1.2661480e+03   8.3658200e-01
   1.2666300e+03   9.8969100e-01
   1.2671120e+03   1.2783110e+00
   1.2675940e+03   1.3652710e+00
   1.2680760e+03   1.2101010e+00
   1.2685580e+03   1.1705720e+00
   1.2690410e+03   1.3917480e+00
   1.2695230e+03   1.5962790e+00
   1.2700050e+03   1.3876170e+00
   1.2704870e+03   1.1157380e+00
   1.2709690e+03   1.2107770e+00
   1.2714510e+03   1.5789780e+00
   1.2719330e+03   1.5598180e+00
   1.2724150e+03   1.1547660e+00
   1.2728970e+03   8.7948400e-01
   1.2733800e+03   8.7674100e-01
   1.2738620e+03   9.5219800e-01
   1.2743440e+03   9.6466800e-01
   1.2748260e+03   1.0144820e+00
   1.2753080e+03   1.2191070e+00
   1.2757900e+03   1.4882770e+00
   1.2762720e+03   1.4630130e+00
   1.2767540e+03   1.2038420e+00
   1.2772370e+03   1.0883690e+00
   1.2777190e+03   1.2205940e+00
   1.2782010e+03   1.2482070e+00
   1.2786830e+03   7.9120300e-01
   1.2791650e+03   4.4267700e-01
   1.2796470e+03   4.5562200e-01
   1.2801290e+03   6.8407800e-01
   1.2806110e+03   8.9664800e-01
   1.2810940e+03   1.0510010e+00
   1.2815760e+03   1.0264240e+00
   1.2820580e+03   7.8870400e-01
   1.2825400e+03   5.3244800e-01
   1.2830220e+03   1.4257600e-01
   1.2835040e+03   1.5815999e-02
   1.2839860e+03   2.7074800e-01
   1.2844680e+03   6.3633300e-01
   1.2849500e+03   7.6085900e-01
   1.2854320e+03   7.3121300e-01
   1.2859150e+03   6.7936100e-01
   1.2863970e+03   6.2443200e-01
   1.2868790e+03   5.5885900e-01
   1.2873610e+03   4.9052000e-01
   1.2878430e+03   3.9855400e-01
   1.2883250e+03   2.6426700e-01
   1.2888070e+03   1.8652900e-01
   1.2892890e+03   3.3456200e-01
   1.2897720e+03   5.4381400e-01
   1.2902540e+03   6.5774900e-01
   1.2907360e+03   6.6313200e-01
   1.2912180e+03   5.6904000e-01
   1.2917000e+03   3.7144500e-01
   1.2921820e+03   3.4583700e-01
   1.2926640e+03   5.6063800e-01
   1.2931460e+03   7.1253400e-01
   1.2936290e+03   5.5059600e-01
   1.2941110e+03   3.2331700e-01
   1.2945930e+03   1.8681300e-01
   1.2950750e+03   1.2884500e-01
   1.2955570e+03   1.5174300e-01
   1.2960390e+03   2.4396700e-01
   1.2965210e+03   2.7348500e-01
   1.2970030e+03   2.2665800e-01
   1.2974850e+03   1.6622500e-01
   1.2979680e+03   1.3226000e-02
   1.2984500e+03   2.3190999e-02
   1.2989320e+03   3.8426400e-01
   1.2994140e+03   8.0249200e-01
   1.2998960e+03   7.7968600e-01
   1.3003780e+03   4.5275900e-01
   1.3008600e+03   1.8911200e-01
   1.3013420e+03   3.2124002e-02
   1.3018240e+03   6.2469998e-03
   1.3023070e+03   0.0000000e+00
   1.5000000e+03   0.0000000e+00
