   1.0000000e+02   0.0000000e+00
   1.6925300e+02   0.0000000e+00
   1.6973500e+02   4.8776200e-01
   1.7021700e+02   2.6914370e+00
   1.7069900e+02   8.5957340e+00
   1.7118100e+02   1.5332760e+01
   1.7166300e+02   3.1575160e+01
   1.7214500e+02   3.2864290e+01
   1.7262700e+02   2.2440060e+01
   1.7310900e+02   6.9953610e+00
   1.7359200e+02   2.5729980e+00
   1.7407400e+02   1.6877440e+00
   1.7455600e+02   1.1870030e+01
   1.7503800e+02   1.9398380e+01
   1.7552000e+02   2.4133850e+01
   1.7600200e+02   2.5965300e+01
   1.7648400e+02   2.1993680e+01
   1.7696600e+02   1.4645720e+01
   1.7744900e+02   9.9696960e+00
   1.7793100e+02   1.2063720e+01
   1.7841300e+02   1.8364470e+01
   1.7889500e+02   2.5413570e+01
   1.7937700e+02   3.3341190e+01
   1.7985900e+02   4.0516390e+01
   1.8034100e+02   4.5942500e+01
   1.8082300e+02   4.9375460e+01
   1.8130500e+02   4.9568600e+01
   1.8178800e+02   4.2883670e+01
   1.8227000e+02   3.2556730e+01
   1.8275200e+02   2.6560030e+01
   1.8323400e+02   2.6598880e+01
   1.8371600e+02   2.9141170e+01
   1.8419800e+02   2.8556400e+01
   1.8468000e+02   2.5229030e+01
   1.8516200e+02   2.3032070e+01
   1.8564500e+02   2.6590150e+01
   1.8612700e+02   3.3816010e+01
   1.8660900e+02   3.6787020e+01
   1.8709100e+02   3.3336550e+01
   1.8757300e+02   2.6443050e+01
   1.8805500e+02   2.0926120e+01
   1.8853700e+02   1.6704280e+01
   1.8901900e+02   1.4826080e+01
   1.8950100e+02   1.6701930e+01
   1.8998400e+02   2.1967250e+01
   1.9046600e+02   2.8115720e+01
   1.9094800e+02   3.5847840e+01
   1.9143000e+02   4.3344540e+01
   1.9191200e+02   4.4817600e+01
   1.9239400e+02   3.9810210e+01
   1.9287600e+02   3.2985870e+01
   1.9335800e+02   2.7757570e+01
   1.9384000e+02   2.4170870e+01
   1.9432300e+02   2.2190800e+01
   1.9480500e+02   2.1962740e+01
   1.9528700e+02   2.3812160e+01
   1.9576900e+02   2.7493040e+01
   1.9625100e+02   3.2993650e+01
   1.9673300e+02   3.9397250e+01
   1.9721500e+02   4.6521970e+01
   1.9769700e+02   5.4756130e+01
   1.9818000e+02   5.9480650e+01
   1.9866200e+02   5.8377140e+01
   1.9914400e+02   5.2217290e+01
   1.9962600e+02   4.4199010e+01
   2.0010800e+02   3.3297240e+01
   2.0059000e+02   2.3123200e+01
   2.0107200e+02   1.8092320e+01
   2.0155400e+02   1.9768550e+01
   2.0203600e+02   2.4944000e+01
   2.0251900e+02   3.3817140e+01
   2.0300100e+02   4.7767670e+01
   2.0348300e+02   5.4580350e+01
   2.0396500e+02   5.1866030e+01
   2.0444700e+02   4.5176390e+01
   2.0492900e+02   4.3056270e+01
   2.0541100e+02   4.7317630e+01
   2.0589300e+02   4.9277530e+01
   2.0637600e+02   4.5514070e+01
   2.0685800e+02   3.5334560e+01
   2.0734000e+02   2.8726930e+01
   2.0782200e+02   2.5690190e+01
   2.0830400e+02   2.6227110e+01
   2.0878600e+02   3.2426820e+01
   2.0926800e+02   4.7660770e+01
   2.0975000e+02   5.8105130e+01
   2.1023200e+02   5.6953120e+01
   2.1071400e+02   3.9327670e+01
   2.1119700e+02   2.6623780e+01
   2.1167900e+02   1.9377590e+01
   2.1216100e+02   1.6755980e+01
   2.1264300e+02   1.8471560e+01
   2.1312500e+02   2.7055600e+01
   2.1360700e+02   3.3918980e+01
   2.1408900e+02   3.4615810e+01
   2.1457200e+02   2.6629120e+01
   2.1505400e+02   2.1701570e+01
   2.1553600e+02   2.1514500e+01
   2.1601800e+02   2.3634800e+01
   2.1650000e+02   2.1787020e+01
   2.1698200e+02   1.3929380e+01
   2.1746400e+02   6.6314700e+00
   2.1794600e+02   3.0549320e+00
   2.1842800e+02   4.2002560e+00
   2.1891100e+02   6.3256840e+00
   2.1939300e+02   1.0599090e+01
   2.1987500e+02   1.5438290e+01
   2.2035700e+02   1.5579250e+01
   2.2083900e+02   7.6590880e+00
   2.2132100e+02   6.4248700e-01
   2.2180300e+02   1.2936400e-01
   2.2228500e+02   8.5427250e+00
   2.2276700e+02   1.4009980e+01
   2.2325000e+02   1.4713840e+01
   2.2373200e+02   1.1923280e+01
   2.2421400e+02   1.0385010e+01
   2.2469600e+02   1.1238920e+01
   2.2517800e+02   1.2117650e+01
   2.2566000e+02   1.0140440e+01
   2.2614200e+02   2.5922240e+00
   2.2662400e+02   5.1586900e-01
   2.2710700e+02   3.1579590e+00
   2.2758900e+02   1.1911010e+01
   2.2807100e+02   1.9142550e+01
   2.2855300e+02   2.5131560e+01
   2.2903500e+02   2.9340420e+01
   2.2951700e+02   3.1238860e+01
   2.2999900e+02   2.9988280e+01
   2.3048100e+02   2.8296110e+01
   2.3096300e+02   2.6719700e+01
   2.3144500e+02   2.4710020e+01
   2.3192800e+02   2.0842070e+01
   2.3241000e+02   1.3612150e+01
   2.3289200e+02   5.9266660e+00
   2.3337400e+02   9.8226900e-01
   2.3385600e+02   1.0892240e+01
   2.3433800e+02   1.1568850e+01
   2.3482000e+02   3.8894960e+00
   2.3530300e+02   3.1859250e+01
   2.3578500e+02   4.4171360e+01
   2.3626700e+02   3.2320800e+01
   2.3674900e+02   1.4863980e+01
   2.3723100e+02   4.2441410e+00
   2.3771300e+02   1.2410580e+00
   2.3819500e+02   4.3990780e+00
   2.3867700e+02   1.8297850e+01
   2.3915900e+02   4.0638760e+01
   2.3964100e+02   4.7820130e+01
   2.4012400e+02   3.0311490e+01
   2.4060600e+02   8.7809450e+00
   2.4108800e+02   2.2667240e+00
   2.4157000e+02   4.6704100e-01
   2.4205200e+02   6.7056270e+00
   2.4253400e+02   1.8150450e+01
   2.4301600e+02   3.3801730e+01
   2.4349800e+02   4.0912690e+01
   2.4398100e+02   3.4699520e+01
   2.4446300e+02   2.5324310e+01
   2.4494500e+02   2.0569120e+01
   2.4542700e+02   2.3269840e+01
   2.4590900e+02   2.4958530e+01
   2.4639100e+02   2.3805210e+01
   2.4687300e+02   2.0140900e+01
   2.4735500e+02   1.9361630e+01
   2.4783700e+02   2.4355290e+01
   2.4832000e+02   2.8915100e+01
   2.4880200e+02   2.7672970e+01
   2.4928400e+02   1.7103910e+01
   2.4976600e+02   7.8948060e+00
   2.5024800e+02   8.0215500e-01
   2.5073000e+02   4.0574340e+00
   2.5121200e+02   4.4511410e+00
   2.5169400e+02   2.3792110e+00
   2.5217600e+02   1.0394810e+01
   2.5265900e+02   1.4677000e+01
   2.5314100e+02   1.3139740e+01
   2.5362300e+02   1.2529540e+01
   2.5410500e+02   1.3822910e+01
   2.5458700e+02   1.6918730e+01
   2.5506900e+02   2.0057070e+01
   2.5555100e+02   2.3322880e+01
   2.5603300e+02   2.6576170e+01
   2.5651600e+02   2.9965580e+01
   2.5699800e+02   3.4259340e+01
   2.5748000e+02   3.6827420e+01
   2.5796200e+02   3.6769530e+01
   2.5844400e+02   3.4344270e+01
   2.5892600e+02   3.3079860e+01
   2.5940800e+02   3.4455750e+01
   2.5989000e+02   3.4851650e+01
   2.6037200e+02   3.0666630e+01
   2.6085500e+02   1.8210820e+01
   2.6133700e+02   8.7691960e+00
   2.6181900e+02   3.6676030e+00
   2.6230100e+02   2.8924560e+00
   2.6278300e+02   7.4354550e+00
   2.6326500e+02   1.9889370e+01
   2.6374700e+02   3.3501100e+01
   2.6422900e+02   4.3931210e+01
   2.6471100e+02   5.2113770e+01
   2.6519400e+02   5.3321560e+01
   2.6567600e+02   4.3810360e+01
   2.6615800e+02   2.6088710e+01
   2.6664000e+02   1.5966400e+01
   2.6712200e+02   1.5305450e+01
   2.6760400e+02   1.8819920e+01
   2.6808600e+02   2.2804110e+01
   2.6856900e+02   2.7452480e+01
   2.6905100e+02   3.1875760e+01
   2.6953300e+02   3.5226140e+01
   2.7001500e+02   3.8194640e+01
   2.7049700e+02   4.6290190e+01
   2.7097900e+02   6.3101290e+01
   2.7146100e+02   7.6323940e+01
   2.7194300e+02   7.4513610e+01
   2.7242500e+02   5.4606350e+01
   2.7290800e+02   3.5531560e+01
   2.7339000e+02   1.8305570e+01
   2.7387200e+02   4.4463810e+00
   2.7435400e+02   1.5449520e+00
   2.7483600e+02   1.2602140e+01
   2.7531800e+02   2.5451870e+01
   2.7580000e+02   2.9959690e+01
   2.7628200e+02   2.4701230e+01
   2.7676400e+02   2.3654660e+01
   2.7724700e+02   3.0724210e+01
   2.7772900e+02   4.2468510e+01
   2.7821100e+02   4.6375950e+01
   2.7869300e+02   4.1565610e+01
   2.7917500e+02   3.3073940e+01
   2.7965700e+02   2.2346190e+01
   2.8013900e+02   8.6270750e+00
   2.8062100e+02   8.3282001e-02
   2.8110300e+02   2.6991880e+00
   2.8158600e+02   3.5842900e-01
   2.8206800e+02   1.0839630e+01
   2.8255000e+02   3.0247530e+01
   2.8303200e+02   4.6479610e+01
   2.8351400e+02   4.9071840e+01
   2.8399600e+02   3.8477110e+01
   2.8447800e+02   3.1039310e+01
   2.8496000e+02   2.9943180e+01
   2.8544300e+02   3.1532750e+01
   2.8592500e+02   2.6225160e+01
   2.8640700e+02   1.3661440e+01
   2.8688900e+02   2.7533570e+00
   2.8737100e+02   5.9179700e-01
   2.8785300e+02   5.9883730e+00
   2.8833500e+02   9.2786560e+00
   2.8881700e+02   8.6070860e+00
   2.8929900e+02   7.5121460e+00
   2.8978200e+02   1.2688110e+01
   2.9026400e+02   2.3931120e+01
   2.9074600e+02   3.3618100e+01
   2.9122800e+02   3.7301610e+01
   2.9171000e+02   3.5095280e+01
   2.9219200e+02   2.8802400e+01
   2.9267400e+02   1.7963900e+01
   2.9315600e+02   7.0201720e+00
   2.9363800e+02   4.7761230e+00
   2.9412100e+02   1.0308650e+01
   2.9460300e+02   1.5984340e+01
   2.9508500e+02   1.8061830e+01
   2.9556700e+02   1.7155300e+01
   2.9604900e+02   1.4440610e+01
   2.9653100e+02   9.7791440e+00
   2.9701300e+02   4.5755000e+00
   2.9749600e+02   7.3312400e-01
   2.9797800e+02   5.4499210e+00
   2.9846000e+02   7.2537230e+00
   2.9894200e+02   3.3361210e+00
   2.9942400e+02   4.1925960e+00
   2.9990600e+02   1.0959470e+01
   3.0038800e+02   1.6662480e+01
   3.0087000e+02   2.1233370e+01
   3.0135200e+02   2.4512970e+01
   3.0183500e+02   2.6547640e+01
   3.0231700e+02   2.7430390e+01
   3.0279900e+02   2.6529140e+01
   3.0328100e+02   2.4769990e+01
   3.0376300e+02   2.2653900e+01
   3.0424500e+02   2.0082860e+01
   3.0472700e+02   1.9227810e+01
   3.0520900e+02   2.5100860e+01
   3.0569100e+02   3.3977540e+01
   3.0617400e+02   3.8434510e+01
   3.0665600e+02   3.0509610e+01
   3.0713800e+02   1.9796390e+01
   3.0762000e+02   1.6740720e+01
   3.0810200e+02   2.1384860e+01
   3.0858400e+02   2.4872560e+01
   3.0906600e+02   1.9709590e+01
   3.0954800e+02   1.0611510e+01
   3.1003000e+02   3.4851990e+00
   3.1051300e+02   8.0444300e-01
   3.1099500e+02   1.4675600e+00
   3.1147700e+02   3.4869380e+00
   3.1195900e+02   1.3569670e+01
   3.1244100e+02   2.4133540e+01
   3.1292300e+02   3.6990110e+01
   3.1340500e+02   4.7159850e+01
   3.1388700e+02   4.9216340e+01
   3.1437000e+02   3.1640110e+01
   3.1485200e+02   1.5627990e+01
   3.1533400e+02   1.5417020e+01
   3.1581600e+02   2.7691440e+01
   3.1629800e+02   3.4718720e+01
   3.1678000e+02   2.1184200e+01
   3.1726200e+02   3.7568660e+00
   3.1774400e+02   4.5256650e+00
   3.1822600e+02   6.9751590e+00
   3.1870900e+02   1.8450930e+01
   3.1919100e+02   2.3700130e+01
   3.1967300e+02   2.3780360e+01
   3.2015500e+02   2.2321470e+01
   3.2063700e+02   1.9176390e+01
   3.2111900e+02   1.5530270e+01
   3.2160100e+02   1.2167660e+01
   3.2208300e+02   7.8357850e+00
   3.2256500e+02   6.1833190e+00
   3.2304800e+02   9.3658450e+00
   3.2353000e+02   1.5749480e+01
   3.2401200e+02   2.1474490e+01
   3.2449400e+02   2.8352510e+01
   3.2497600e+02   3.2440120e+01
   3.2545800e+02   3.0778870e+01
   3.2594000e+02   1.6232570e+01
   3.2642200e+02   1.0794740e+01
   3.2690500e+02   2.6744930e+01
   3.2738700e+02   5.0843410e+01
   3.2786900e+02   6.0785370e+01
   3.2835100e+02   3.7649380e+01
   3.2883300e+02   1.8270260e+01
   3.2931500e+02   1.4129120e+01
   3.2979700e+02   3.1932860e+01
   3.3027900e+02   4.0764470e+01
   3.3076200e+02   3.6015470e+01
   3.3124400e+02   2.4778840e+01
   3.3172600e+02   1.5638240e+01
   3.3220800e+02   8.2708440e+00
   3.3269000e+02   3.5506900e+00
   3.3317200e+02   1.6831360e+00
   3.3365400e+02   2.6818850e+00
   3.3413600e+02   6.7170410e+00
   3.3461800e+02   1.7745390e+01
   3.3510000e+02   2.7550380e+01
   3.3558300e+02   2.6832760e+01
   3.3606500e+02   9.5886230e+00
   3.3654700e+02   3.0151670e+00
   3.3702900e+02   6.7471310e+00
   3.3751100e+02   2.3402100e+00
   3.3799300e+02   3.6253660e+00
   3.3847500e+02   1.1757720e+01
   3.3895700e+02   1.9855590e+01
   3.3944000e+02   2.7589810e+01
   3.3992200e+02   3.5555300e+01
   3.4040400e+02   3.8077580e+01
   3.4088600e+02   3.1961330e+01
   3.4136800e+02   2.1012020e+01
   3.4185000e+02   1.9619630e+01
   3.4233200e+02   2.9598240e+01
   3.4281400e+02   3.9312530e+01
   3.4329700e+02   3.9607360e+01
   3.4377900e+02   3.0925570e+01
   3.4426100e+02   2.5599060e+01
   3.4474300e+02   2.6068510e+01
   3.4522500e+02   2.8076290e+01
   3.4570700e+02   2.1008150e+01
   3.4618900e+02   5.0462340e+00
   3.4667100e+02   6.2503050e+00
   3.4715300e+02   1.0499270e+00
   3.4763500e+02   1.5439420e+01
   3.4811800e+02   2.2168090e+01
   3.4860000e+02   1.6581760e+01
   3.4908200e+02   8.0709530e+00
   3.4956400e+02   1.0286220e+01
   3.5004600e+02   2.0929170e+01
   3.5052800e+02   2.9709900e+01
   3.5101000e+02   3.0102290e+01
   3.5149200e+02   2.6225770e+01
   3.5197500e+02   2.5852870e+01
   3.5245700e+02   2.9352200e+01
   3.5293900e+02   3.1322750e+01
   3.5342100e+02   2.3303500e+01
   3.5390300e+02   1.0465360e+01
   3.5438500e+02   3.0002440e+00
   3.5486700e+02   1.0991550e+01
   3.5534900e+02   2.1532960e+01
   3.5583200e+02   2.0539430e+01
   3.5631400e+02   9.3192440e+00
   3.5679600e+02   5.9600800e-01
   3.5727800e+02   6.9555700e-01
   3.5776000e+02   4.4874880e+00
   3.5824200e+02   1.0006840e+01
   3.5872400e+02   1.4965910e+01
   3.5920600e+02   1.9367370e+01
   3.5968800e+02   2.3023190e+01
   3.6017100e+02   2.6075410e+01
   3.6065300e+02   2.9014010e+01
   3.6113500e+02   3.5720030e+01
   3.6161700e+02   4.0051390e+01
   3.6209900e+02   3.6428160e+01
   3.6258100e+02   1.8123260e+01
   3.6306300e+02   4.3872380e+00
   3.6354500e+02   4.8916320e+00
   3.6402700e+02   1.3824710e+01
   3.6451000e+02   2.0039790e+01
   3.6499200e+02   1.6782380e+01
   3.6547400e+02   1.3784240e+01
   3.6595600e+02   1.5701380e+01
   3.6643800e+02   2.5093510e+01
   3.6692000e+02   3.1561800e+01
   3.6740200e+02   3.2494630e+01
   3.6788400e+02   3.0488890e+01
   3.6836600e+02   2.8730870e+01
   3.6884900e+02   2.7653810e+01
   3.6933100e+02   2.6019680e+01
   3.6981300e+02   2.2978880e+01
   3.7029500e+02   1.8318150e+01
   3.7077700e+02   1.7822910e+01
   3.7125900e+02   2.5743380e+01
   3.7174100e+02   3.3645510e+01
   3.7222400e+02   3.4238430e+01
   3.7270600e+02   2.0381740e+01
   3.7318800e+02   1.3839660e+01
   3.7367000e+02   2.1394710e+01
   3.7415200e+02   3.8695530e+01
   3.7463400e+02   4.3244540e+01
   3.7511600e+02   2.9911500e+01
   3.7559800e+02   1.3932890e+01
   3.7608000e+02   5.2935180e+00
   3.7656200e+02   5.1282650e+00
   3.7704500e+02   4.0595400e+00
   3.7752700e+02   3.0648800e-01
   3.7800900e+02   3.7711180e+00
   3.7849100e+02   6.4331670e+00
   3.7897300e+02   3.2643400e+01
   3.7945500e+02   5.2770870e+01
   3.7993700e+02   5.1515200e+01
   3.8041900e+02   3.1353210e+01
   3.8090200e+02   2.0754850e+01
   3.8138400e+02   2.1241550e+01
   3.8186600e+02   2.6186770e+01
   3.8234800e+02   2.8653560e+01
   3.8283000e+02   2.8672150e+01
   3.8331200e+02   2.6244420e+01
   3.8379400e+02   1.9327000e+01
   3.8427600e+02   1.0722470e+01
   3.8475900e+02   6.7020870e+00
   3.8524100e+02   7.3360290e+00
   3.8572300e+02   9.8154910e+00
   3.8620500e+02   1.0959110e+01
   3.8668700e+02   1.1097440e+01
   3.8716900e+02   1.2639620e+01
   3.8765100e+02   1.7363220e+01
   3.8813300e+02   2.1959990e+01
   3.8861500e+02   2.2888460e+01
   3.8909800e+02   2.0676450e+01
   3.8958000e+02   1.7643280e+01
   3.9006200e+02   1.2966950e+01
   3.9054400e+02   9.2541500e+00
   3.9102600e+02   9.6745910e+00
   3.9150800e+02   1.6165410e+01
   3.9199000e+02   2.2551060e+01
   3.9247200e+02   2.5430110e+01
   3.9295400e+02   2.5903260e+01
   3.9343700e+02   2.6057460e+01
   3.9391900e+02   2.5256960e+01
   3.9440100e+02   2.5304720e+01
   3.9488300e+02   2.8681760e+01
   3.9536500e+02   3.6980530e+01
   3.9584700e+02   4.0826140e+01
   3.9632900e+02   3.4461850e+01
   3.9681100e+02   2.3865940e+01
   3.9729300e+02   1.4700740e+01
   3.9777600e+02   3.7517700e+00
   3.9825800e+02   1.2528380e+00
   3.9874000e+02   4.1782530e+00
   3.9922200e+02   1.9016940e+01
   3.9970400e+02   2.9328120e+01
   4.0018600e+02   3.4336430e+01
   4.0066800e+02   3.5410740e+01
   4.0115100e+02   3.2784180e+01
   4.0163300e+02   2.2075710e+01
   4.0211500e+02   1.5586360e+01
   4.0259700e+02   1.4595490e+01
   4.0307900e+02   1.7650120e+01
   4.0356100e+02   2.2207060e+01
   4.0404300e+02   3.1093020e+01
   4.0452500e+02   3.4837800e+01
   4.0500700e+02   2.7826170e+01
   4.0549000e+02   7.3851320e+00
   4.0597200e+02   2.4899900e+00
   4.0645400e+02   4.7689800e-01
   4.0693600e+02   9.3245850e+00
   4.0741800e+02   1.6512540e+01
   4.0790000e+02   2.2128780e+01
   4.0838200e+02   2.4963070e+01
   4.0886400e+02   2.4316650e+01
   4.0934600e+02   2.0753510e+01
   4.0982800e+02   1.4898500e+01
   4.1031100e+02   6.4877010e+00
   4.1079300e+02   2.7966300e-01
   4.1127500e+02   3.4149170e+00
   4.1175700e+02   1.2542330e+01
   4.1223900e+02   1.4981840e+01
   4.1272100e+02   6.0472110e+00
   4.1320300e+02   5.6279600e+00
   4.1368500e+02   7.9230960e+00
   4.1416800e+02   2.4766540e+00
   4.1465000e+02   4.3138430e+00
   4.1513200e+02   1.0503080e+01
   4.1561400e+02   1.5301910e+01
   4.1609600e+02   1.6886020e+01
   4.1657800e+02   1.4655550e+01
   4.1706000e+02   1.2390140e+01
   4.1754200e+02   1.2652800e+01
   4.1802500e+02   1.4692540e+01
   4.1850700e+02   1.7389340e+01
   4.1898900e+02   2.4239170e+01
   4.1947100e+02   2.8244080e+01
   4.1995300e+02   2.3277070e+01
   4.2043500e+02   1.0192080e+01
   4.2091700e+02   5.6216400e-01
   4.2139900e+02   4.5816000e-01
   4.2188100e+02   4.3587950e+00
   4.2236400e+02   8.3751830e+00
   4.2284600e+02   1.3124540e+01
   4.2332800e+02   1.6338170e+01
   4.2381000e+02   1.8123660e+01
   4.2429200e+02   1.8196260e+01
   4.2477400e+02   1.5570920e+01
   4.2525600e+02   5.4141850e+00
   4.2573800e+02   2.6242370e+00
   4.2622000e+02   4.5881040e+00
   4.2670300e+02   2.0383610e+00
   4.2718500e+02   5.1969300e+00
   4.2766700e+02   2.2305600e+00
   4.2814900e+02   1.8430180e+00
   4.2863100e+02   4.1043100e-01
   4.2911300e+02   9.5795290e+00
   4.2959500e+02   1.6642330e+01
   4.3007700e+02   1.7172670e+01
   4.3056000e+02   1.2471440e+01
   4.3104200e+02   1.1053250e+01
   4.3152400e+02   1.3707340e+01
   4.3200600e+02   1.7070740e+01
   4.3248800e+02   1.8271480e+01
   4.3297000e+02   1.7498660e+01
   4.3345200e+02   1.8423710e+01
   4.3393400e+02   2.2427120e+01
   4.3441700e+02   2.6501740e+01
   4.3489900e+02   2.4653470e+01
   4.3538100e+02   1.7256100e+01
   4.3586300e+02   1.0130370e+01
   4.3634500e+02   6.2171630e+00
   4.3682700e+02   5.2042540e+00
   4.3730900e+02   7.8250730e+00
   4.3779100e+02   1.4524020e+01
   4.3827300e+02   2.0910740e+01
   4.3875500e+02   2.3306270e+01
   4.3923800e+02   2.2986820e+01
   4.3972000e+02   2.1796940e+01
   4.4020200e+02   1.8512850e+01
   4.4068400e+02   1.5598480e+01
   4.4116600e+02   1.6086820e+01
   4.4164800e+02   1.8928560e+01
   4.4213000e+02   1.9266080e+01
   4.4261200e+02   8.5923160e+00
   4.4309500e+02   1.6203310e+00
   4.4357700e+02   2.0403140e+00
   4.4405900e+02   1.4432460e+01
   4.4454100e+02   2.7077180e+01
   4.4502300e+02   2.6402950e+01
   4.4550500e+02   1.9283940e+01
   4.4598700e+02   1.6479580e+01
   4.4646900e+02   2.6043820e+01
   4.4695200e+02   3.3632750e+01
   4.4743400e+02   3.3287410e+01
   4.4791600e+02   2.3916750e+01
   4.4839800e+02   2.2767580e+01
   4.4888000e+02   3.7094330e+01
   4.4936200e+02   5.2975160e+01
   4.4984400e+02   5.9711980e+01
   4.5032600e+02   5.4444820e+01
   4.5080800e+02   4.6771610e+01
   4.5129000e+02   3.5597350e+01
   4.5177300e+02   2.3513240e+01
   4.5225500e+02   1.7804140e+01
   4.5273700e+02   1.9401030e+01
   4.5321900e+02   2.3734860e+01
   4.5370100e+02   3.1495910e+01
   4.5418300e+02   4.2212100e+01
   4.5466500e+02   4.1285340e+01
   4.5514700e+02   2.6340670e+01
   4.5563000e+02   9.2745360e+00
   4.5611200e+02   5.0582890e+00
   4.5659400e+02   1.1740140e+01
   4.5707600e+02   1.8184910e+01
   4.5755800e+02   2.1007840e+01
   4.5804000e+02   2.1429870e+01
   4.5852200e+02   2.0629120e+01
   4.5900400e+02   1.8815460e+01
   4.5948700e+02   1.7400050e+01
   4.5996900e+02   1.6224820e+01
   4.6045100e+02   1.6436800e+01
   4.6093300e+02   2.0292020e+01
   4.6141500e+02   2.9503420e+01
   4.6189700e+02   3.7584260e+01
   4.6237900e+02   3.9380130e+01
   4.6286100e+02   3.7531770e+01
   4.6334300e+02   3.6367100e+01
   4.6382600e+02   3.8873380e+01
   4.6430800e+02   4.1173460e+01
   4.6479000e+02   4.1480410e+01
   4.6527200e+02   3.9629820e+01
   4.6575400e+02   3.6616550e+01
   4.6623600e+02   3.0873690e+01
   4.6671800e+02   2.5152160e+01
   4.6720000e+02   2.1344060e+01
   4.6768200e+02   2.1213380e+01
   4.6816500e+02   2.0762330e+01
   4.6864700e+02   1.9109620e+01
   4.6912900e+02   1.7274570e+01
   4.6961100e+02   1.7758850e+01
   4.7009300e+02   2.1953700e+01
   4.7057500e+02   2.5644810e+01
   4.7105700e+02   2.6718170e+01
   4.7153900e+02   2.5206420e+01
   4.7202200e+02   2.4679750e+01
   4.7250400e+02   2.4343810e+01
   4.7298600e+02   2.6230380e+01
   4.7346800e+02   3.4950380e+01
   4.7395000e+02   5.0326140e+01
   4.7443200e+02   6.0608550e+01
   4.7491400e+02   6.3318630e+01
   4.7539600e+02   5.9663420e+01
   4.7587800e+02   4.9617920e+01
   4.7636100e+02   3.3908140e+01
   4.7684300e+02   1.9476100e+01
   4.7732500e+02   9.7628170e+00
   4.7780700e+02   4.5443420e+00
   4.7828900e+02   4.6089780e+00
   4.7877100e+02   1.0390930e+01
   4.7925300e+02   1.7320220e+01
   4.7973500e+02   2.3984740e+01
   4.8021700e+02   2.8823060e+01
   4.8070000e+02   2.9479000e+01
   4.8118200e+02   2.0884890e+01
   4.8166400e+02   1.1600650e+01
   4.8214600e+02   5.5933840e+00
   4.8262800e+02   2.6518550e+00
   4.8311000e+02   1.4442440e+00
   4.8359200e+02   3.4422610e+00
   4.8407400e+02   5.3811340e+00
   4.8455600e+02   5.5788270e+00
   4.8503900e+02   1.8710330e+00
   4.8552100e+02   3.9358500e-01
   4.8600300e+02   1.4379900e-01
   4.8648500e+02   2.0831600e+00
   4.8696700e+02   3.5020450e+00
   4.8744900e+02   4.4334720e+00
   4.8793100e+02   4.4599300e+00
   4.8841400e+02   3.4504700e+00
   4.8889600e+02   1.4489750e+00
   4.8937800e+02   1.0670780e+00
   4.8986000e+02   3.8788450e+00
   4.9034200e+02   7.7356870e+00
   4.9082400e+02   1.5341550e+01
   4.9130600e+02   2.7191380e+01
   4.9178800e+02   2.9353210e+01
   4.9227000e+02   1.8567110e+01
   4.9275300e+02   3.4383540e+00
   4.9323500e+02   2.2011410e+00
   4.9371700e+02   3.9056400e-01
   4.9419900e+02   1.5069580e+00
   4.9468100e+02   6.1242680e+00
   4.9516300e+02   1.6108400e+01
   4.9564500e+02   1.6337890e+01
   4.9612700e+02   7.4230350e+00
   4.9660900e+02   2.7091670e+00
   4.9709200e+02   1.0958190e+01
   4.9757400e+02   1.5906860e+01
   4.9805600e+02   1.5149260e+01
   4.9853800e+02   6.1030580e+00
   4.9902000e+02   3.4868160e+00
   4.9950200e+02   1.0052190e+01
   4.9998400e+02   1.4147370e+01
   5.0046600e+02   1.6501160e+01
   5.0094800e+02   1.6439420e+01
   5.0143100e+02   1.5335420e+01
   5.0191300e+02   1.2866670e+01
   5.0239500e+02   8.4337460e+00
   5.0287700e+02   7.4384460e+00
   5.0335900e+02   1.4186980e+01
   5.0384100e+02   2.1496030e+01
   5.0432300e+02   2.5239870e+01
   5.0480500e+02   2.3114320e+01
   5.0528800e+02   2.2023130e+01
   5.0577000e+02   2.3109710e+01
   5.0625200e+02   2.4590180e+01
   5.0673400e+02   2.1930480e+01
   5.0721600e+02   1.3486940e+01
   5.0769800e+02   7.7917790e+00
   5.0818000e+02   7.3081360e+00
   5.0866200e+02   1.1981750e+01
   5.0914500e+02   2.4815280e+01
   5.0962700e+02   4.6956330e+01
   5.1010900e+02   6.4827730e+01
   5.1059100e+02   6.1342500e+01
   5.1107300e+02   4.3958620e+01
   5.1155500e+02   3.6608220e+01
   5.1203700e+02   4.6293180e+01
   5.1251900e+02   5.7855650e+01
   5.1300100e+02   5.1026520e+01
   5.1348400e+02   3.3060490e+01
   5.1396600e+02   2.0464690e+01
   5.1444800e+02   2.1514680e+01
   5.1493000e+02   3.0460850e+01
   5.1541200e+02   4.7560580e+01
   5.1589400e+02   7.1880920e+01
   5.1637600e+02   9.0264920e+01
   5.1685800e+02   9.5114590e+01
   5.1734100e+02   9.3331880e+01
   5.1782300e+02   8.8815920e+01
   5.1830500e+02   7.4955660e+01
   5.1878700e+02   6.9927190e+01
   5.1926900e+02   8.3469420e+01
   5.1975100e+02   1.0505150e+02
   5.2023300e+02   1.1764330e+02
   5.2071500e+02   1.1743690e+02
   5.2119700e+02   1.1379560e+02
   5.2168000e+02   1.0633320e+02
   5.2216200e+02   9.5963930e+01
   5.2264400e+02   9.7848690e+01
   5.2312600e+02   1.1670740e+02
   5.2360800e+02   1.3390610e+02
   5.2409000e+02   1.3199670e+02
   5.2457200e+02   1.1175930e+02
   5.2505400e+02   1.0203400e+02
   5.2553600e+02   1.0607270e+02
   5.2601900e+02   1.1794760e+02
   5.2650100e+02   1.3326290e+02
   5.2698300e+02   1.5024570e+02
   5.2746500e+02   1.6239860e+02
   5.2794700e+02   1.6427470e+02
   5.2842900e+02   1.6182190e+02
   5.2891100e+02   1.6173740e+02
   5.2939300e+02   1.6375270e+02
   5.2987500e+02   1.6621530e+02
   5.3035800e+02   1.6819840e+02
   5.3084000e+02   1.7017880e+02
   5.3132200e+02   1.7194060e+02
   5.3180400e+02   1.7215860e+02
   5.3228600e+02   1.7624900e+02
   5.3276800e+02   1.9166790e+02
   5.3325000e+02   2.0998610e+02
   5.3373200e+02   2.2060780e+02
   5.3421400e+02   2.1479690e+02
   5.3469700e+02   2.0962150e+02
   5.3517900e+02   2.0583860e+02
   5.3566100e+02   2.0419220e+02
   5.3614300e+02   2.1065300e+02
   5.3662500e+02   2.3122710e+02
   5.3710700e+02   2.4910930e+02
   5.3758900e+02   2.5397820e+02
   5.3807100e+02   2.4374990e+02
   5.3855400e+02   2.3942130e+02
   5.3903600e+02   2.4174030e+02
   5.3951800e+02   2.4799100e+02
   5.4000000e+02   2.5647850e+02
   5.4048200e+02   2.6663920e+02
   5.4096400e+02   2.7528980e+02
   5.4144600e+02   2.8203670e+02
   5.4192800e+02   2.8661550e+02
   5.4241100e+02   2.8460100e+02
   5.4289300e+02   2.7865510e+02
   5.4337500e+02   2.8000030e+02
   5.4385700e+02   3.0900630e+02
   5.4433900e+02   3.4021430e+02
   5.4482100e+02   3.4564250e+02
   5.4530300e+02   3.2216210e+02
   5.4578500e+02   3.0105260e+02
   5.4626800e+02   2.9852780e+02
   5.4675000e+02   3.0498330e+02
   5.4723200e+02   3.1203360e+02
   5.4771400e+02   3.2250780e+02
   5.4819600e+02   3.2758980e+02
   5.4867800e+02   3.2287990e+02
   5.4916000e+02   3.1176180e+02
   5.4964200e+02   3.0301020e+02
   5.5012400e+02   2.9775430e+02
   5.5060600e+02   2.9563090e+02
   5.5108900e+02   2.9719760e+02
   5.5157100e+02   3.0186870e+02
   5.5205300e+02   2.9980980e+02
   5.5253500e+02   2.8863420e+02
   5.5301700e+02   2.7883990e+02
   5.5349900e+02   2.8023750e+02
   5.5398100e+02   2.9192500e+02
   5.5446300e+02   3.0123710e+02
   5.5494500e+02   3.0652210e+02
   5.5542800e+02   3.0976940e+02
   5.5591000e+02   3.1441850e+02
   5.5639200e+02   3.1974160e+02
   5.5687400e+02   3.2219370e+02
   5.5735600e+02   3.1877990e+02
   5.5783800e+02   3.1251450e+02
   5.5832000e+02   3.0365080e+02
   5.5880200e+02   2.9347250e+02
   5.5928400e+02   2.8851000e+02
   5.5976700e+02   2.9908760e+02
   5.6024900e+02   3.1119190e+02
   5.6073100e+02   3.1428590e+02
   5.6121300e+02   3.0358990e+02
   5.6169500e+02   2.9696620e+02
   5.6217700e+02   3.0086840e+02
   5.6265900e+02   3.0910750e+02
   5.6314100e+02   3.1610310e+02
   5.6362400e+02   3.2330670e+02
   5.6410600e+02   3.2526020e+02
   5.6458800e+02   3.1760480e+02
   5.6507000e+02   3.0507050e+02
   5.6555200e+02   3.0151040e+02
   5.6603400e+02   3.0900650e+02
   5.6651600e+02   3.1786770e+02
   5.6699800e+02   3.2547090e+02
   5.6748100e+02   3.3153230e+02
   5.6796300e+02   3.2923840e+02
   5.6844500e+02   3.1801430e+02
   5.6892700e+02   3.0689470e+02
   5.6940900e+02   3.0553290e+02
   5.6989100e+02   3.0975780e+02
   5.7037300e+02   3.1049950e+02
   5.7085500e+02   3.0569210e+02
   5.7133800e+02   2.9858260e+02
   5.7182000e+02   2.8756850e+02
   5.7230200e+02   2.7692140e+02
   5.7278400e+02   2.7420900e+02
   5.7326600e+02   2.9365060e+02
   5.7374800e+02   3.1057700e+02
   5.7423000e+02   3.1294630e+02
   5.7471200e+02   3.0236150e+02
   5.7519400e+02   2.9246370e+02
   5.7567700e+02   2.8471160e+02
   5.7615900e+02   2.7892470e+02
   5.7664100e+02   2.7499280e+02
   5.7712300e+02   2.7284980e+02
   5.7760500e+02   2.7402870e+02
   5.7808700e+02   2.8349390e+02
   5.7856900e+02   2.8944300e+02
   5.7905100e+02   2.7438020e+02
   5.7953300e+02   2.3474550e+02
   5.8001600e+02   2.0996410e+02
   5.8049800e+02   2.0875280e+02
   5.8098000e+02   2.2139580e+02
   5.8146200e+02   2.3490120e+02
   5.8194400e+02   2.4791000e+02
   5.8242600e+02   2.5207610e+02
   5.8290800e+02   2.3531370e+02
   5.8339000e+02   2.1118980e+02
   5.8387200e+02   1.9691930e+02
   5.8435500e+02   1.9218420e+02
   5.8483700e+02   1.9212960e+02
   5.8531900e+02   1.9906960e+02
   5.8580100e+02   2.0625410e+02
   5.8628300e+02   2.0763310e+02
   5.8676500e+02   2.0025080e+02
   5.8724700e+02   1.9251690e+02
   5.8772900e+02   1.8570170e+02
   5.8821100e+02   1.8001900e+02
   5.8869400e+02   1.7578290e+02
   5.8917600e+02   1.7373350e+02
   5.8965800e+02   1.7182270e+02
   5.9014000e+02   1.6861960e+02
   5.9062200e+02   1.6558910e+02
   5.9110400e+02   1.6964320e+02
   5.9158600e+02   1.8407010e+02
   5.9206800e+02   1.9301570e+02
   5.9255100e+02   1.8623490e+02
   5.9303300e+02   1.6683290e+02
   5.9351500e+02   1.5574890e+02
   5.9399700e+02   1.5332890e+02
   5.9447900e+02   1.5379360e+02
   5.9496100e+02   1.5339000e+02
   5.9544300e+02   1.5205740e+02
   5.9592500e+02   1.4896650e+02
   5.9640700e+02   1.4304830e+02
   5.9689000e+02   1.3880810e+02
   5.9737200e+02   1.4255870e+02
   5.9785400e+02   1.4965920e+02
   5.9833600e+02   1.5320590e+02
   5.9881800e+02   1.4760310e+02
   5.9930000e+02   1.4135940e+02
   5.9978200e+02   1.3714880e+02
   6.0026500e+02   1.3467710e+02
   6.0074700e+02   1.3249570e+02
   6.0122900e+02   1.3190620e+02
   6.0171100e+02   1.3004140e+02
   6.0219300e+02   1.2651690e+02
   6.0267500e+02   1.2164060e+02
   6.0315700e+02   1.1035320e+02
   6.0363900e+02   8.9560940e+01
   6.0412100e+02   6.9414890e+01
   6.0460400e+02   5.7890170e+01
   6.0508600e+02   5.4849550e+01
   6.0556800e+02   5.9505680e+01
   6.0605000e+02   7.4384580e+01
   6.0653200e+02   8.8682160e+01
   6.0701400e+02   8.3499570e+01
   6.0749600e+02   6.5799380e+01
   6.0797800e+02   5.4531770e+01
   6.0846000e+02   6.5907710e+01
   6.0894300e+02   7.8289950e+01
   6.0942500e+02   7.1249080e+01
   6.0990700e+02   4.9489230e+01
   6.1038900e+02   2.9783540e+01
   6.1087100e+02   1.9113920e+01
   6.1135300e+02   1.2111450e+01
   6.1183500e+02   6.3700560e+00
   6.1231700e+02   1.5550840e+00
   6.1279900e+02   1.1697690e+00
   6.1328200e+02   1.6111150e+00
   6.1376400e+02   1.9833400e-01
   6.1424600e+02   3.6207580e+00
   6.1472800e+02   1.1921020e+01
   6.1521000e+02   1.5274440e+01
   6.1569200e+02   1.2588010e+01
   6.1617400e+02   6.0387570e+00
   6.1665600e+02   2.7203670e+00
   6.1713800e+02   1.3359010e+01
   6.1762100e+02   2.0349640e+01
   6.1810300e+02   2.0760350e+01
   6.1858500e+02   1.8244320e+01
   6.1906700e+02   1.7902440e+01
   6.1954900e+02   1.9642550e+01
   6.2003100e+02   2.3071380e+01
   6.2051300e+02   3.3232480e+01
   6.2099500e+02   4.1278630e+01
   6.2147700e+02   3.7565700e+01
   6.2196000e+02   2.1585820e+01
   6.2244200e+02   9.1655270e+00
   6.2292400e+02   1.0021270e+01
   6.2340600e+02   1.3228390e+01
   6.2388800e+02   1.1378230e+01
   6.2437000e+02   7.7203400e-01
   6.2485200e+02   8.3301090e+00
   6.2533400e+02   9.0044250e+00
   6.2581700e+02   7.0289610e+00
   6.2629900e+02   7.8647160e+00
   6.2678100e+02   1.2260740e+01
   6.2726300e+02   1.5193020e+01
   6.2774500e+02   1.4542570e+01
   6.2822700e+02   1.3389370e+01
   6.2870900e+02   2.0489500e+01
   6.2919100e+02   3.4730830e+01
   6.2967400e+02   4.6406520e+01
   6.3015600e+02   4.8839480e+01
   6.3063800e+02   4.6645720e+01
   6.3112000e+02   4.2020260e+01
   6.3160200e+02   3.6278140e+01
   6.3208400e+02   3.9280270e+01
   6.3256600e+02   6.7898800e+01
   6.3304800e+02   9.9805820e+01
   6.3353100e+02   1.1732510e+02
   6.3401300e+02   1.1342880e+02
   6.3449500e+02   1.1215580e+02
   6.3497700e+02   1.2039810e+02
   6.3545900e+02   1.3171390e+02
   6.3594100e+02   1.4043590e+02
   6.3642300e+02   1.4533740e+02
   6.3690500e+02   1.5029580e+02
   6.3738700e+02   1.5521770e+02
   6.3787000e+02   1.6069840e+02
   6.3835200e+02   1.6795140e+02
   6.3883400e+02   1.7706360e+02
   6.3931600e+02   1.8765200e+02
   6.3979800e+02   2.0306880e+02
   6.4028000e+02   2.1711870e+02
   6.4076200e+02   2.1163210e+02
   6.4124400e+02   1.9014200e+02
   6.4172600e+02   1.7345020e+02
   6.4220900e+02   1.7841480e+02
   6.4269100e+02   1.9140840e+02
   6.4317300e+02   1.9991510e+02
   6.4365500e+02   2.0309180e+02
   6.4413700e+02   2.0674250e+02
   6.4461900e+02   2.1605280e+02
   6.4510100e+02   2.2491470e+02
   6.4558300e+02   2.2880100e+02
   6.4606500e+02   2.2404060e+02
   6.4654800e+02   2.2034450e+02
   6.4703000e+02   2.1824890e+02
   6.4751200e+02   2.1677660e+02
   6.4799400e+02   2.1421470e+02
   6.4847600e+02   2.0960410e+02
   6.4895800e+02   2.0865280e+02
   6.4944000e+02   2.1350380e+02
   6.4992200e+02   2.2092410e+02
   6.5040400e+02   2.2429080e+02
   6.5088700e+02   2.2404970e+02
   6.5136900e+02   2.2332790e+02
   6.5185100e+02   2.2407150e+02
   6.5233300e+02   2.2484140e+02
   6.5281500e+02   2.2359060e+02
   6.5329700e+02   2.2063410e+02
   6.5377900e+02   2.1744480e+02
   6.5426100e+02   2.1112960e+02
   6.5474400e+02   2.0772580e+02
   6.5522600e+02   2.1344210e+02
   6.5570800e+02   2.3153170e+02
   6.5619000e+02   2.4244060e+02
   6.5667200e+02   2.3466590e+02
   6.5715400e+02   2.2572090e+02
   6.5763600e+02   2.2793960e+02
   6.5811800e+02   2.4699650e+02
   6.5860100e+02   2.5899260e+02
   6.5908300e+02   2.6076470e+02
   6.5956500e+02   2.5924200e+02
   6.6004700e+02   2.6658330e+02
   6.6052900e+02   2.8163280e+02
   6.6101100e+02   2.8803260e+02
   6.6149300e+02   2.7807060e+02
   6.6197500e+02   2.6371080e+02
   6.6245800e+02   2.6039430e+02
   6.6294000e+02   2.6632680e+02
   6.6342200e+02   2.7642730e+02
   6.6390400e+02   2.9219480e+02
   6.6438600e+02   3.0802010e+02
   6.6486800e+02   3.1989140e+02
   6.6535000e+02   3.2828640e+02
   6.6583200e+02   3.3676030e+02
   6.6631400e+02   3.4791320e+02
   6.6679700e+02   3.5763070e+02
   6.6727900e+02   3.6308190e+02
   6.6776100e+02   3.6287590e+02
   6.6824300e+02   3.6908360e+02
   6.6872500e+02   3.8501800e+02
   6.6920700e+02   4.0109090e+02
   6.6968900e+02   4.0732370e+02
   6.7017100e+02   4.0430510e+02
   6.7065300e+02   4.0776280e+02
   6.7113500e+02   4.1920620e+02
   6.7161800e+02   4.3697500e+02
   6.7210000e+02   4.6456370e+02
   6.7258200e+02   4.9611480e+02
   6.7306400e+02   5.1931860e+02
   6.7354600e+02   5.2866250e+02
   6.7402800e+02   5.3201230e+02
   6.7451000e+02   5.3109310e+02
   6.7499200e+02   5.2799050e+02
   6.7547400e+02   5.2750310e+02
   6.7595700e+02   5.3420610e+02
   6.7643900e+02   5.4117670e+02
   6.7692100e+02   5.4467790e+02
   6.7740300e+02   5.4618280e+02
   6.7788500e+02   5.5351500e+02
   6.7836700e+02   5.6735820e+02
   6.7884900e+02   5.8446030e+02
   6.7933100e+02   6.0674110e+02
   6.7981400e+02   6.3332450e+02
   6.8029600e+02   6.5003780e+02
   6.8077800e+02   6.5539260e+02
   6.8126000e+02   6.5814770e+02
   6.8174200e+02   6.6617360e+02
   6.8222400e+02   6.7681740e+02
   6.8270600e+02   6.8273170e+02
   6.8318800e+02   6.8268980e+02
   6.8367000e+02   6.8372690e+02
   6.8415300e+02   6.8950750e+02
   6.8463500e+02   6.9931010e+02
   6.8511700e+02   7.1340830e+02
   6.8559900e+02   7.4088210e+02
   6.8608100e+02   7.5750840e+02
   6.8656300e+02   7.4974210e+02
   6.8704500e+02   7.3364390e+02
   6.8752800e+02   7.2989230e+02
   6.8801000e+02   7.4648880e+02
   6.8849200e+02   7.5391560e+02
   6.8897400e+02   7.4385960e+02
   6.8945600e+02   7.2562730e+02
   6.8993800e+02   7.2402990e+02
   6.9042000e+02   7.3801370e+02
   6.9090200e+02   7.4646900e+02
   6.9138400e+02   7.3477920e+02
   6.9186700e+02   7.1599120e+02
   6.9234900e+02   7.1098580e+02
   6.9283100e+02   7.1665090e+02
   6.9331300e+02   7.1893620e+02
   6.9379500e+02   7.0887530e+02
   6.9427700e+02   6.9553790e+02
   6.9475900e+02   6.8125870e+02
   6.9524100e+02   6.6505620e+02
   6.9572300e+02   6.5556510e+02
   6.9620600e+02   6.6585470e+02
   6.9668800e+02   6.7247270e+02
   6.9717000e+02   6.6271640e+02
   6.9765200e+02   6.3178910e+02
   6.9813400e+02   6.0351460e+02
   6.9861600e+02   5.7631150e+02
   6.9909800e+02   5.5682450e+02
   6.9958000e+02   5.6015490e+02
   7.0006200e+02   5.7975670e+02
   7.0054500e+02   5.7810960e+02
   7.0102700e+02   5.4526460e+02
   7.0150900e+02   5.0611720e+02
   7.0199100e+02   4.8506600e+02
   7.0247300e+02   4.7574700e+02
   7.0295500e+02   4.6801300e+02
   7.0343700e+02   4.5990780e+02
   7.0391900e+02   4.5090910e+02
   7.0440200e+02   4.4261170e+02
   7.0488400e+02   4.3308110e+02
   7.0536600e+02   4.1754410e+02
   7.0584800e+02   3.8914690e+02
   7.0633000e+02   3.6444680e+02
   7.0681200e+02   3.4724370e+02
   7.0729400e+02   3.3592350e+02
   7.0777600e+02   3.2447230e+02
   7.0825800e+02   3.1284300e+02
   7.0874100e+02   3.0104700e+02
   7.0922300e+02   2.9051820e+02
   7.0970500e+02   2.7954550e+02
   7.1018700e+02   2.6068100e+02
   7.1066900e+02   2.3496730e+02
   7.1115100e+02   2.1523740e+02
   7.1163300e+02   2.1541630e+02
   7.1211500e+02   2.2114670e+02
   7.1259700e+02   2.1894880e+02
   7.1308000e+02   2.0670860e+02
   7.1356200e+02   1.9694240e+02
   7.1404400e+02   1.9635020e+02
   7.1452600e+02   1.9775270e+02
   7.1500800e+02   1.9628220e+02
   7.1549000e+02   1.9143790e+02
   7.1597200e+02   1.8692050e+02
   7.1645500e+02   1.8375560e+02
   7.1693700e+02   1.7913380e+02
   7.1741900e+02   1.6834050e+02
   7.1790100e+02   1.5197740e+02
   7.1838300e+02   1.4023680e+02
   7.1886500e+02   1.3527010e+02
   7.1934700e+02   1.3320840e+02
   7.1982900e+02   1.2985160e+02
   7.2031100e+02   1.2689540e+02
   7.2079400e+02   1.2690710e+02
   7.2127600e+02   1.3590470e+02
   7.2175800e+02   1.4130530e+02
   7.2224000e+02   1.3441060e+02
   7.2272200e+02   1.1981080e+02
   7.2320400e+02   1.0732190e+02
   7.2368600e+02   9.8946170e+01
   7.2416800e+02   9.1790680e+01
   7.2465100e+02   8.5285860e+01
   7.2513300e+02   7.9786710e+01
   7.2561500e+02   7.6832240e+01
   7.2609700e+02   7.6798860e+01
   7.2657900e+02   7.7290100e+01
   7.2706100e+02   7.7369510e+01
   7.2754300e+02   7.6715150e+01
   7.2802500e+02   7.6866970e+01
   7.2850700e+02   7.7634670e+01
   7.2899000e+02   7.6275360e+01
   7.2947200e+02   6.8483800e+01
   7.2995400e+02   5.9581510e+01
   7.3043600e+02   5.4479580e+01
   7.3091800e+02   5.3471070e+01
   7.3140000e+02   5.2364750e+01
   7.3188200e+02   4.9389650e+01
   7.3236400e+02   4.6489590e+01
   7.3284600e+02   4.4565670e+01
   7.3332800e+02   4.3580540e+01
   7.3381100e+02   4.4652500e+01
   7.3429300e+02   4.9609650e+01
   7.3477500e+02   5.2188750e+01
   7.3525700e+02   4.3902620e+01
   7.3573900e+02   2.7126010e+01
   7.3622100e+02   1.9488890e+01
   7.3670300e+02   2.3700160e+01
   7.3718500e+02   2.9923890e+01
   7.3766700e+02   2.6646850e+01
   7.3815000e+02   1.9725490e+01
   7.3863200e+02   1.8164730e+01
   7.3911400e+02   2.7394650e+01
   7.3959600e+02   3.5387790e+01
   7.4007800e+02   3.7681730e+01
   7.4056000e+02   3.5990230e+01
   7.4104200e+02   3.2452300e+01
   7.4152400e+02   2.6519260e+01
   7.4200700e+02   1.9821440e+01
   7.4248900e+02   1.1135770e+01
   7.4297100e+02   3.1705320e+00
   7.4345300e+02   1.8700560e+00
   7.4393500e+02   7.1422730e+00
   7.4441700e+02   1.2139710e+01
   7.4489900e+02   1.5103760e+01
   7.4538100e+02   1.6397030e+01
   7.4586400e+02   1.6810520e+01
   7.4634600e+02   1.6062070e+01
   7.4682800e+02   1.3332760e+01
   7.4731000e+02   3.6788940e+00
   7.4779200e+02   3.6077270e+00
   7.4827400e+02   2.4791560e+00
   7.4875600e+02   5.5571290e+00
   7.4923800e+02   1.3611300e+01
   7.4972100e+02   2.7860900e+01
   7.5020300e+02   3.2777440e+01
   7.5068500e+02   2.0545990e+01
   7.5116700e+02   6.3359680e+00
   7.5164900e+02   2.6565770e+01
   7.5213100e+02   4.0626340e+01
   7.5261300e+02   4.5340300e+01
   7.5309500e+02   3.1550930e+01
   7.5357700e+02   8.3594360e+00
   7.5406000e+02   1.1837160e+00
   7.5454200e+02   8.8676450e+00
   7.5502400e+02   1.5239780e+01
   7.5550600e+02   6.0074160e+00
   7.5598800e+02   6.0447690e+00
   7.5647000e+02   1.0436190e+01
   7.5695200e+02   5.0378720e+00
   7.5743400e+02   1.0458070e+00
   7.5791600e+02   5.4794300e-01
   7.5839900e+02   1.4233090e+00
   7.5888100e+02   2.1333920e+00
   7.5936300e+02   2.7785950e+00
   7.5984500e+02   5.5702210e+00
   7.6032700e+02   1.1385800e+01
   7.6080900e+02   1.6311460e+01
   7.6129100e+02   1.5134400e+01
   7.6177300e+02   9.9211730e+00
   7.6225500e+02   7.3256230e+00
   7.6273800e+02   8.4622800e+00
   7.6322000e+02   1.0666320e+01
   7.6370200e+02   1.2490810e+01
   7.6418400e+02   1.3829680e+01
   7.6466600e+02   1.4584470e+01
   7.6514800e+02   1.4813170e+01
   7.6563000e+02   1.4271880e+01
   7.6611200e+02   1.1189580e+01
   7.6659400e+02   8.2967530e+00
   7.6707700e+02   8.9842530e+00
   7.6755900e+02   1.4544680e+01
   7.6804100e+02   1.8815730e+01
   7.6852300e+02   2.0857790e+01
   7.6900500e+02   2.1758700e+01
   7.6948700e+02   2.4923280e+01
   7.6996900e+02   2.8841490e+01
   7.7045100e+02   2.6415310e+01
   7.7093400e+02   1.1213930e+01
   7.7141600e+02   3.2509160e+00
   7.7189800e+02   3.7258910e+00
   7.7238000e+02   4.7755740e+00
   7.7286200e+02   1.3016480e+01
   7.7334400e+02   2.0061800e+01
   7.7382600e+02   2.4415620e+01
   7.7430800e+02   2.6423800e+01
   7.7479100e+02   2.5458500e+01
   7.7527300e+02   1.8133610e+01
   7.7575500e+02   7.9605100e-01
   7.7623700e+02   9.1990050e+00
   7.7671900e+02   4.9968870e+00
   7.7720100e+02   7.4964900e+00
   7.7768300e+02   1.4917720e+01
   7.7816500e+02   1.7885960e+01
   7.7864800e+02   1.9754610e+01
   7.7913000e+02   2.3021700e+01
   7.7961200e+02   2.5189060e+01
   7.8009400e+02   2.1981690e+01
   7.8057600e+02   1.5442470e+01
   7.8105800e+02   1.2819400e+01
   7.8154000e+02   2.2321140e+01
   7.8202200e+02   2.9572080e+01
   7.8250400e+02   2.9723210e+01
   7.8298700e+02   2.3656590e+01
   7.8346900e+02   1.5921750e+01
   7.8395100e+02   4.6130830e+00
   7.8443300e+02   1.2782440e+00
   7.8491500e+02   4.2200320e+00
   7.8539700e+02   1.7723530e+01
   7.8587900e+02   3.0527860e+01
   7.8636100e+02   4.2136340e+01
   7.8684300e+02   4.8608000e+01
   7.8732600e+02   4.3324710e+01
   7.8780800e+02   3.4843060e+01
   7.8829000e+02   2.9636900e+01
   7.8877200e+02   2.8043960e+01
   7.8925400e+02   2.7176670e+01
   7.8973600e+02   2.8969220e+01
   7.9021800e+02   2.8667660e+01
   7.9070000e+02   2.2737080e+01
   7.9118200e+02   1.0721380e+01
   7.9166500e+02   7.2618260e+00
   7.9214700e+02   1.3668690e+01
   7.9262900e+02   2.2350770e+01
   7.9311100e+02   3.0257570e+01
   7.9359300e+02   3.6128080e+01
   7.9407500e+02   3.4742250e+01
   7.9455700e+02   2.6252080e+01
   7.9503900e+02   1.9434420e+01
   7.9552100e+02   2.1582120e+01
   7.9600400e+02   2.7209270e+01
   7.9648600e+02   3.3296910e+01
   7.9696800e+02   4.0244050e+01
   7.9745000e+02   4.2322620e+01
   7.9793200e+02   3.5610660e+01
   7.9841400e+02   2.7683120e+01
   7.9889600e+02   2.3187000e+01
   7.9937800e+02   2.2687260e+01
   7.9986000e+02   1.9567810e+01
   8.0034300e+02   1.3106980e+01
   8.0082500e+02   8.8465730e+00
   8.0130700e+02   1.4103160e+01
   8.0178900e+02   2.4321440e+01
   8.0227100e+02   3.0329880e+01
   8.0275300e+02   3.0931120e+01
   8.0323500e+02   2.9650270e+01
   8.0371800e+02   2.8440780e+01
   8.0420000e+02   2.6341660e+01
   8.0468200e+02   2.1833850e+01
   8.0516400e+02   1.1386470e+01
   8.0564600e+02   7.8384400e+00
   8.0612800e+02   1.5942050e+01
   8.0661000e+02   2.5414460e+01
   8.0709200e+02   2.5878170e+01
   8.0757400e+02   1.7525240e+01
   8.0805700e+02   1.3717250e+01
   8.0853900e+02   1.5768880e+01
   8.0902100e+02   1.8444120e+01
   8.0950300e+02   1.5335460e+01
   8.0998500e+02   9.4805450e+00
   8.1046700e+02   6.0628050e+00
   8.1094900e+02   8.0389400e+00
   8.1143100e+02   1.0152760e+01
   8.1191400e+02   7.4628450e+00
   8.1239600e+02   2.8030400e+00
   8.1287800e+02   1.9722000e-01
   8.1336000e+02   1.2702180e+00
   8.1384200e+02   9.5312500e-01
   8.1432400e+02   2.7210390e+00
   8.1480600e+02   6.5854030e+00
   8.1528800e+02   8.4776610e+00
   8.1577000e+02   7.9132840e+00
   8.1625300e+02   2.8350800e-01
   8.1673500e+02   1.6622310e+01
   8.1721700e+02   3.0830570e+01
   8.1769900e+02   2.7984650e+01
   8.1818100e+02   1.7461760e+01
   8.1866300e+02   1.0608030e+01
   8.1914500e+02   1.0228710e+01
   8.1962700e+02   1.2743740e+01
   8.2010900e+02   2.0645110e+01
   8.2059200e+02   2.9491380e+01
   8.2107400e+02   3.5077790e+01
   8.2155600e+02   3.6912610e+01
   8.2203800e+02   3.3427870e+01
   8.2252000e+02   2.3677120e+01
   8.2300200e+02   1.3653440e+01
   8.2348400e+02   1.0781680e+01
   8.2396600e+02   1.3277080e+01
   8.2444800e+02   1.6245620e+01
   8.2493100e+02   1.8338090e+01
   8.2541300e+02   2.2525880e+01
   8.2589500e+02   3.6313490e+01
   8.2637700e+02   5.0433900e+01
   8.2685900e+02   5.5024280e+01
   8.2734100e+02   3.5867780e+01
   8.2782300e+02   2.7758480e+01
   8.2830500e+02   3.7664700e+01
   8.2878700e+02   5.0861340e+01
   8.2927000e+02   4.8260680e+01
   8.2975200e+02   3.0367050e+01
   8.3023400e+02   1.9104000e+01
   8.3071600e+02   1.7126460e+01
   8.3119800e+02   1.9001480e+01
   8.3168000e+02   1.9165700e+01
   8.3216200e+02   1.9203160e+01
   8.3264400e+02   2.2569950e+01
   8.3312700e+02   3.3445880e+01
   8.3360900e+02   3.8357730e+01
   8.3409100e+02   2.3836120e+01
   8.3457300e+02   6.6929170e+00
   8.3505500e+02   4.0810700e+00
   8.3553700e+02   2.4041120e+01
   8.3601900e+02   3.3421040e+01
   8.3650100e+02   2.8386290e+01
   8.3698400e+02   1.8871170e+01
   8.3746600e+02   1.6526470e+01
   8.3794800e+02   1.9878220e+01
   8.3843000e+02   2.4561340e+01
   8.3891200e+02   3.0697420e+01
   8.3939400e+02   3.3600510e+01
   8.3987600e+02   2.4195040e+01
   8.4035800e+02   1.2212070e+01
   8.4084100e+02   8.9364170e+00
   8.4132300e+02   2.4992740e+01
   8.4180500e+02   3.1661580e+01
   8.4228700e+02   2.1178340e+01
   8.4276900e+02   7.8820340e+00
   8.4325100e+02   6.1905360e+00
   8.4373300e+02   1.6810420e+01
   8.4421500e+02   2.1246830e+01
   8.4469700e+02   1.7272930e+01
   8.4518000e+02   1.1437880e+01
   8.4566200e+02   9.8533480e+00
   8.4614400e+02   1.1431270e+01
   8.4662600e+02   1.5297740e+01
   8.4710800e+02   2.2242890e+01
   8.4759000e+02   2.7115710e+01
   8.4807200e+02   2.6243900e+01
   8.4855400e+02   2.3355680e+01
   8.4903600e+02   2.1509520e+01
   8.4951900e+02   2.1245010e+01
   8.5000100e+02   2.0495180e+01
   8.5048300e+02   1.8816770e+01
   8.5096500e+02   1.7668790e+01
   8.5144700e+02   1.9486540e+01
   8.5192900e+02   2.3109150e+01
   8.5241100e+02   2.4030670e+01
   8.5289300e+02   2.1674970e+01
   8.5337500e+02   1.9052030e+01
   8.5385800e+02   1.7576570e+01
   8.5434000e+02   1.7385010e+01
   8.5482200e+02   1.9060300e+01
   8.5530400e+02   2.3655470e+01
   8.5578600e+02   2.6445570e+01
   8.5626800e+02   2.8093550e+01
   8.5675000e+02   2.6704040e+01
   8.5723200e+02   1.8671720e+01
   8.5771400e+02   3.8976440e+00
   8.5819700e+02   1.2526550e+00
   8.5867900e+02   3.9816280e+00
   8.5916100e+02   1.1212840e+01
   8.5964300e+02   1.2878980e+01
   8.6012500e+02   1.2471790e+01
   8.6060700e+02   1.5925550e+01
   8.6108900e+02   2.4096410e+01
   8.6157100e+02   2.7691100e+01
   8.6205400e+02   1.4784360e+01
   8.6253600e+02   4.1907350e+00
   8.6301800e+02   8.2552340e+00
   8.6350000e+02   2.8786540e+01
   8.6398200e+02   3.5988270e+01
   8.6446400e+02   2.6936140e+01
   8.6494600e+02   1.7020680e+01
   8.6542800e+02   1.9235380e+01
   8.6591100e+02   2.7779850e+01
   8.6639300e+02   2.8255890e+01
   8.6687500e+02   2.1084580e+01
   8.6735700e+02   1.3909520e+01
   8.6783900e+02   1.0840590e+01
   8.6832100e+02   9.7837070e+00
   8.6880300e+02   9.3426360e+00
   8.6928500e+02   9.5054020e+00
   8.6976700e+02   1.2816620e+01
   8.7025000e+02   2.2719330e+01
   8.7073200e+02   2.8940920e+01
   8.7121400e+02   2.4257770e+01
   8.7169600e+02   1.1739880e+01
   8.7217800e+02   9.5321040e+00
   8.7266000e+02   1.6387370e+01
   8.7314200e+02   2.1263340e+01
   8.7362400e+02   1.3233510e+01
   8.7410600e+02   4.0267030e+00
   8.7458900e+02   2.7587590e+00
   8.7507100e+02   8.3343960e+00
   8.7555300e+02   1.5186540e+01
   8.7603500e+02   2.9740200e+01
   8.7651700e+02   3.5500170e+01
   8.7699900e+02   2.4997910e+01
   8.7748100e+02   3.4926450e+00
   8.7796300e+02   9.3342290e+00
   8.7844500e+02   1.3450260e+01
   8.7892800e+02   9.4685060e+00
   8.7941000e+02   8.1463780e+00
   8.7989200e+02   2.6784700e+01
   8.8037400e+02   2.7214570e+01
   8.8085600e+02   1.5637850e+01
   8.8133800e+02   7.0105440e+00
   8.8182000e+02   1.1366620e+01
   8.8230200e+02   1.4349180e+01
   8.8278400e+02   8.5261540e+00
   8.8326700e+02   9.9441998e-02
   8.8374900e+02   1.6480560e+00
   8.8423100e+02   1.6914790e+01
   8.8471300e+02   2.3750210e+01
   8.8519500e+02   1.4639800e+01
   8.8567700e+02   1.3949580e+00
   8.8615900e+02   3.9292600e+00
   8.8664100e+02   1.6126750e+01
   8.8712400e+02   2.4172330e+01
   8.8760600e+02   2.1770110e+01
   8.8808800e+02   1.7811140e+01
   8.8857000e+02   1.5570880e+01
   8.8905200e+02   1.4401400e+01
   8.8953400e+02   1.3212650e+01
   8.9001600e+02   1.0834630e+01
   8.9049800e+02   1.2191380e+01
   8.9098100e+02   1.9255110e+01
   8.9146300e+02   2.6086760e+01
   8.9194500e+02   2.3638260e+01
   8.9242700e+02   1.4707660e+01
   8.9290900e+02   7.2278290e+00
   8.9339100e+02   2.0070500e+00
   8.9387300e+02   1.9977570e+00
   8.9435500e+02   1.4695950e+01
   8.9483800e+02   3.0276000e+01
   8.9532000e+02   3.9757860e+01
   8.9580200e+02   4.0899570e+01
   8.9628400e+02   3.8041180e+01
   8.9676600e+02   2.8168780e+01
   8.9724800e+02   1.9729260e+01
   8.9773000e+02   2.1991610e+01
   8.9821200e+02   3.2356670e+01
   8.9869400e+02   3.3669270e+01
   8.9917700e+02   2.5402100e+01
   8.9965900e+02   1.6212300e+01
   9.0014100e+02   1.2460570e+01
   9.0062300e+02   1.0905610e+01
   9.0110500e+02   7.9187010e+00
   9.0158700e+02   2.9125980e+00
   9.0206900e+02   3.8331600e+00
   9.0255100e+02   1.6775450e+01
   9.0303300e+02   2.7606050e+01
   9.0351600e+02   2.9888080e+01
   9.0399800e+02   2.4771850e+01
   9.0448000e+02   1.9319870e+01
   9.0496200e+02   1.3580950e+01
   9.0544400e+02   9.0140080e+00
   9.0592600e+02   5.6730350e+00
   9.0640800e+02   4.5478820e+00
   9.0689000e+02   8.1057280e+00
   9.0737200e+02   1.5056170e+01
   9.0785500e+02   2.0333920e+01
   9.0833700e+02   2.0449690e+01
   9.0881900e+02   2.1362520e+01
   9.0930100e+02   2.5502330e+01
   9.0978300e+02   3.0868390e+01
   9.1026500e+02   3.0445790e+01
   9.1074700e+02   2.4200730e+01
   9.1122900e+02   2.1007170e+01
   9.1171100e+02   2.5280900e+01
   9.1219400e+02   3.1474120e+01
   9.1267600e+02   3.3710370e+01
   9.1315800e+02   3.2649690e+01
   9.1364000e+02   2.9561070e+01
   9.1412200e+02   2.2343490e+01
   9.1460400e+02   1.6351040e+01
   9.1508600e+02   1.2173900e+01
   9.1556800e+02   9.7387700e+00
   9.1605100e+02   9.0308840e+00
   9.1653300e+02   1.0235810e+01
   9.1701500e+02   1.3964140e+01
   9.1749700e+02   2.1084820e+01
   9.1797900e+02   2.6826170e+01
   9.1846100e+02   2.4034740e+01
   9.1894300e+02   1.7345290e+01
   9.1942500e+02   1.2993300e+01
   9.1990700e+02   1.1525050e+01
   9.2039000e+02   1.3663700e+01
   9.2087200e+02   2.4207430e+01
   9.2135400e+02   3.4995210e+01
   9.2183600e+02   4.0302310e+01
   9.2231800e+02   3.9574020e+01
   9.2280000e+02   3.8129500e+01
   9.2328200e+02   3.6067310e+01
   9.2376400e+02   3.3201890e+01
   9.2424700e+02   2.9096130e+01
   9.2472900e+02   2.4784550e+01
   9.2521100e+02   2.2136260e+01
   9.2569300e+02   2.1059780e+01
   9.2617500e+02   1.9551530e+01
   9.2665700e+02   1.7956760e+01
   9.2713900e+02   1.4363740e+01
   9.2762100e+02   5.8434600e+00
   9.2810400e+02   5.7476650e+00
   9.2858600e+02   7.8980410e+00
   9.2906800e+02   7.0794700e-01
   9.2955000e+02   7.3441310e+00
   9.3003200e+02   3.8406830e+00
   9.3051400e+02   1.9524540e+00
   9.3099600e+02   6.1882170e+00
   9.3147800e+02   2.3071290e+01
   9.3196000e+02   3.4054310e+01
   9.3244300e+02   3.1274900e+01
   9.3292500e+02   2.4579700e+01
   9.3340700e+02   1.2548860e+01
   9.3388900e+02   1.8489100e-01
   9.3437100e+02   3.5670010e+00
   9.3485300e+02   2.7906340e+00
   9.3533500e+02   6.4992220e+00
   9.3581700e+02   3.4766240e+00
   9.3629900e+02   9.2010500e-01
   9.3678200e+02   1.3232010e+01
   9.3726400e+02   3.1641140e+01
   9.3774600e+02   3.9047710e+01
   9.3822800e+02   2.7945300e+01
   9.3871000e+02   1.6674910e+01
   9.3919200e+02   8.7893070e+00
   9.3967400e+02   5.3071290e+00
   9.4015600e+02   8.3578640e+00
   9.4063800e+02   2.0120910e+01
   9.4112100e+02   2.3818190e+01
   9.4160300e+02   1.8737840e+01
   9.4208500e+02   1.1647580e+01
   9.4256700e+02   5.9323730e+00
   9.4304900e+02   2.8190770e+00
   9.4353100e+02   4.9662780e+00
   9.4401300e+02   1.2254710e+01
   9.4449500e+02   1.9493150e+01
   9.4497700e+02   2.5520630e+01
   9.4546000e+02   3.0161130e+01
   9.4594200e+02   3.4022670e+01
   9.4642400e+02   3.6622240e+01
   9.4690600e+02   3.3076870e+01
   9.4738800e+02   2.2847530e+01
   9.4787000e+02   1.6738190e+01
   9.4835200e+02   2.2664640e+01
   9.4883400e+02   3.1602220e+01
   9.4931700e+02   2.8625060e+01
   9.4979900e+02   1.9134930e+01
   9.5028100e+02   1.5075010e+01
   9.5076300e+02   2.7293990e+01
   9.5124500e+02   3.7038530e+01
   9.5172700e+02   4.1251140e+01
   9.5220900e+02   4.0970610e+01
   9.5269100e+02   3.5899110e+01
   9.5317400e+02   2.5744630e+01
   9.5365600e+02   2.0446200e+01
   9.5413800e+02   2.2474810e+01
   9.5462000e+02   2.5193470e+01
   9.5510200e+02   2.0764330e+01
   9.5558400e+02   1.3322250e+01
   9.5606600e+02   7.2012790e+00
   9.5654800e+02   2.0584870e+00
   9.5703100e+02   3.9279630e+00
   9.5751300e+02   1.9619060e+01
   9.5799500e+02   3.3556820e+01
   9.5847700e+02   3.6437760e+01
   9.5895900e+02   2.9077960e+01
   9.5944100e+02   2.7734250e+01
   9.5992300e+02   3.2373430e+01
   9.6040500e+02   3.6746410e+01
   9.6088700e+02   3.7610430e+01
   9.6137000e+02   3.5388520e+01
   9.6185200e+02   2.7819660e+01
   9.6233400e+02   1.6611790e+01
   9.6281600e+02   1.0897720e+01
   9.6329800e+02   1.6193070e+01
   9.6378000e+02   2.1391460e+01
   9.6426200e+02   2.4687820e+01
   9.6474400e+02   2.5854550e+01
   9.6522600e+02   2.5101530e+01
   9.6570900e+02   2.2472500e+01
   9.6619100e+02   1.7974490e+01
   9.6667300e+02   1.0331480e+01
   9.6715500e+02   3.4654850e+00
   9.6763700e+02   2.4728400e-01
   9.6811900e+02   9.7061001e-02
   9.6860100e+02   1.6073000e+00
   9.6908300e+02   7.6771390e+00
   9.6956500e+02   1.1291000e+01
   9.7004800e+02   1.1790910e+01
   9.7053000e+02   1.1284900e+01
   9.7101200e+02   1.2344970e+01
   9.7149400e+02   1.4184110e+01
   9.7197600e+02   1.2925340e+01
   9.7245800e+02   8.2986300e+00
   9.7294000e+02   5.2980190e+00
   9.7342200e+02   9.0346070e+00
   9.7390400e+02   1.3846210e+01
   9.7438700e+02   1.6500720e+01
   9.7486900e+02   1.6775380e+01
   9.7535100e+02   1.3798160e+01
   9.7583300e+02   6.5380550e+00
   9.7631500e+02   5.9996000e-01
   9.7679700e+02   6.8414610e+00
   9.7727900e+02   1.0683670e+01
   9.7776100e+02   6.8556060e+00
   9.7824400e+02   2.1519010e+00
   9.7872600e+02   8.7972870e+00
   9.7920800e+02   8.4328310e+00
   9.7969000e+02   6.6555020e+00
   9.8017200e+02   2.4462740e+00
   9.8065400e+02   5.6601000e-01
   9.8113600e+02   3.9773710e+00
   9.8161800e+02   1.8215810e+01
   9.8210100e+02   2.6800380e+01
   9.8258300e+02   2.7460140e+01
   9.8306500e+02   2.5184100e+01
   9.8354700e+02   2.3910230e+01
   9.8402900e+02   2.4041640e+01
   9.8451100e+02   2.7508290e+01
   9.8499300e+02   3.5481190e+01
   9.8547500e+02   3.9002850e+01
   9.8595700e+02   3.2479510e+01
   9.8644000e+02   2.2822800e+01
   9.8692200e+02   1.0971650e+01
   9.8740400e+02   2.4049380e+00
   9.8788600e+02   1.3314800e-01
   9.8836800e+02   1.7958270e+01
   9.8885000e+02   3.3799120e+01
   9.8933200e+02   3.6769580e+01
   9.8981400e+02   3.3308440e+01
   9.9029600e+02   2.7531770e+01
   9.9077900e+02   2.0306430e+01
   9.9126100e+02   1.3708440e+01
   9.9174300e+02   7.1497040e+00
   9.9222500e+02   2.4402620e+00
   9.9270700e+02   1.3803100e-01
   9.9318900e+02   1.7053200e-01
   9.9367100e+02   7.2134700e+00
   9.9415300e+02   1.8987030e+01
   9.9463500e+02   2.6386310e+01
   9.9511800e+02   2.6909680e+01
   9.9560000e+02   2.5657410e+01
   9.9608200e+02   2.6993580e+01
   9.9656400e+02   2.7820140e+01
   9.9704600e+02   2.4097560e+01
   9.9752800e+02   1.4106990e+01
   9.9801000e+02   1.1429780e+01
   9.9849200e+02   1.8328250e+01
   9.9897400e+02   2.4982450e+01
   9.9945700e+02   2.4381330e+01
   9.9993900e+02   1.9558700e+01
   1.0004210e+03   1.6482990e+01
   1.0009030e+03   1.5210890e+01
   1.0013850e+03   1.6078640e+01
   1.0018670e+03   2.2568330e+01
   1.0023490e+03   2.7423520e+01
   1.0028310e+03   2.6400220e+01
   1.0033140e+03   2.2642470e+01
   1.0037960e+03   2.3141270e+01
   1.0042780e+03   2.8687620e+01
   1.0047600e+03   2.6918520e+01
   1.0052420e+03   1.3639980e+01
   1.0057240e+03   1.1799600e-01
   1.0062060e+03   1.7439120e+00
   1.0066880e+03   3.4914250e+00
   1.0071710e+03   9.2103420e+00
   1.0076530e+03   1.4850910e+01
   1.0081350e+03   1.8923050e+01
   1.0086170e+03   2.2485870e+01
   1.0090990e+03   2.2904480e+01
   1.0095810e+03   1.6553890e+01
   1.0100630e+03   5.0839540e+00
   1.0105450e+03   2.7336430e+00
   1.0110270e+03   8.3590090e+00
   1.0115100e+03   1.2799060e+01
   1.0119920e+03   8.3527530e+00
   1.0124740e+03   3.0045470e+00
   1.0129560e+03   3.5486300e+00
   1.0134380e+03   7.1714020e+00
   1.0139200e+03   4.1706390e+00
   1.0144020e+03   1.1128890e+01
   1.0148840e+03   1.5758360e+01
   1.0153670e+03   3.2472380e+00
   1.0158490e+03   1.3996730e+01
   1.0163310e+03   1.8013470e+01
   1.0168130e+03   1.3598010e+01
   1.0172950e+03   1.0409440e+01
   1.0177770e+03   1.0463750e+01
   1.0182590e+03   1.1169860e+01
   1.0187410e+03   1.1686750e+01
   1.0192230e+03   1.2447460e+01
   1.0197060e+03   1.4520970e+01
   1.0201880e+03   1.8029910e+01
   1.0206700e+03   1.4459010e+01
   1.0211520e+03   3.7410580e+00
   1.0216340e+03   2.7299650e+00
   1.0221160e+03   6.0675050e+00
   1.0225980e+03   1.9122860e+01
   1.0230800e+03   2.6175110e+01
   1.0235630e+03   2.8399260e+01
   1.0240450e+03   2.9023300e+01
   1.0245270e+03   2.8024260e+01
   1.0250090e+03   2.6398960e+01
   1.0254910e+03   2.3739290e+01
   1.0259730e+03   2.1212400e+01
   1.0264550e+03   2.0096860e+01
   1.0269370e+03   2.0505810e+01
   1.0274190e+03   2.4087330e+01
   1.0279010e+03   3.1658890e+01
   1.0283840e+03   3.6486420e+01
   1.0288660e+03   3.1887010e+01
   1.0293480e+03   2.5009630e+01
   1.0298300e+03   2.0332290e+01
   1.0303120e+03   1.7951810e+01
   1.0307940e+03   1.8220110e+01
   1.0312760e+03   2.1643970e+01
   1.0317580e+03   2.4408920e+01
   1.0322410e+03   2.4258970e+01
   1.0327230e+03   2.2720110e+01
   1.0332050e+03   2.0709350e+01
   1.0336870e+03   1.9178020e+01
   1.0341690e+03   2.0098980e+01
   1.0346510e+03   3.1189730e+01
   1.0351330e+03   3.3668080e+01
   1.0356150e+03   1.9800580e+01
   1.0360980e+03   4.9056700e+00
   1.0365800e+03   1.1287260e+01
   1.0370620e+03   3.4301150e+01
   1.0375440e+03   3.9875760e+01
   1.0380260e+03   2.4159990e+01
   1.0385080e+03   7.8854520e+00
   1.0389900e+03   6.3439330e+00
   1.0394720e+03   1.0331450e+01
   1.0399540e+03   1.4016300e+01
   1.0404370e+03   1.7013530e+01
   1.0409190e+03   2.0160130e+01
   1.0414010e+03   2.4141130e+01
   1.0418830e+03   2.5289510e+01
   1.0423650e+03   2.1016300e+01
   1.0428470e+03   1.5087510e+01
   1.0433290e+03   1.4834240e+01
   1.0438110e+03   1.7601300e+01
   1.0442930e+03   1.7652330e+01
   1.0447760e+03   8.6740570e+00
   1.0452580e+03   5.0208130e+00
   1.0457400e+03   1.4161710e+01
   1.0462220e+03   2.4908050e+01
   1.0467040e+03   2.6955990e+01
   1.0471860e+03   2.0863420e+01
   1.0476680e+03   1.9874400e+01
   1.0481500e+03   2.4098920e+01
   1.0486330e+03   2.6046970e+01
   1.0491150e+03   1.6309620e+01
   1.0495970e+03   5.9172360e+00
   1.0500790e+03   4.3994450e+00
   1.0505610e+03   9.8532260e+00
   1.0510430e+03   9.6292570e+00
   1.0515250e+03   7.3808300e-01
   1.0520070e+03   4.3392790e+00
   1.0524900e+03   2.7123110e+00
   1.0529720e+03   3.8565370e+00
   1.0534540e+03   1.6637340e+01
   1.0539360e+03   3.1327670e+01
   1.0544180e+03   3.9968580e+01
   1.0549000e+03   3.9901170e+01
   1.0553820e+03   3.6473480e+01
   1.0558640e+03   2.6324460e+01
   1.0563460e+03   1.8502060e+01
   1.0568280e+03   1.9819340e+01
   1.0573110e+03   2.8800290e+01
   1.0577930e+03   2.9661930e+01
   1.0582750e+03   2.3172450e+01
   1.0587570e+03   1.7693770e+01
   1.0592390e+03   1.8365860e+01
   1.0597210e+03   2.1217650e+01
   1.0602030e+03   2.6292160e+01
   1.0606850e+03   3.1039370e+01
   1.0611680e+03   2.8965290e+01
   1.0616500e+03   1.5324950e+01
   1.0621320e+03   1.2010350e+01
   1.0626140e+03   2.3252470e+01
   1.0630960e+03   3.7302380e+01
   1.0635780e+03   4.2077300e+01
   1.0640600e+03   4.0462940e+01
   1.0645420e+03   3.6071140e+01
   1.0650250e+03   2.9084090e+01
   1.0655070e+03   2.3479310e+01
   1.0659890e+03   2.0790340e+01
   1.0664710e+03   1.9526170e+01
   1.0669530e+03   1.9796810e+01
   1.0674350e+03   2.0894270e+01
   1.0679170e+03   2.0861560e+01
   1.0683990e+03   1.9572650e+01
   1.0688810e+03   1.5626590e+01
   1.0693640e+03   4.5773770e+00
   1.0698460e+03   1.5250090e+00
   1.0703280e+03   1.2526140e+01
   1.0708100e+03   3.0788190e+01
   1.0712920e+03   3.4612080e+01
   1.0717740e+03   1.8806850e+01
   1.0722560e+03   1.0030150e+01
   1.0727380e+03   9.3687440e+00
   1.0732200e+03   1.2791560e+01
   1.0737030e+03   1.9208310e+01
   1.0741850e+03   2.4346050e+01
   1.0746670e+03   2.0033780e+01
   1.0751490e+03   9.0945280e+00
   1.0756310e+03   4.2142940e+00
   1.0761130e+03   1.6916060e+01
   1.0765950e+03   2.1282870e+01
   1.0770770e+03   9.1117100e+00
   1.0775590e+03   6.5184020e+00
   1.0780420e+03   6.8452500e-01
   1.0785240e+03   1.8784300e+01
   1.0790060e+03   2.7376190e+01
   1.0794880e+03   1.9390530e+01
   1.0799700e+03   1.1809540e+01
   1.0804520e+03   1.5849590e+01
   1.0809340e+03   2.0051740e+01
   1.0814160e+03   1.6364930e+01
   1.0818990e+03   6.2642360e+00
   1.0823810e+03   4.1186070e+00
   1.0828630e+03   9.9016110e+00
   1.0833450e+03   1.6384000e+01
   1.0838270e+03   2.1054760e+01
   1.0843090e+03   2.2165940e+01
   1.0847910e+03   1.5540630e+01
   1.0852730e+03   6.4033810e+00
   1.0857550e+03   2.7991790e+00
   1.0862380e+03   7.2159880e+00
   1.0867200e+03   1.4415850e+01
   1.0872020e+03   2.6157780e+01
   1.0876840e+03   3.4754780e+01
   1.0881660e+03   3.0036820e+01
   1.0886480e+03   1.9232970e+01
   1.0891300e+03   1.6308180e+01
   1.0896120e+03   2.0607480e+01
   1.0900940e+03   2.4659850e+01
   1.0905770e+03   2.4995250e+01
   1.0910590e+03   2.5681750e+01
   1.0915410e+03   2.8041380e+01
   1.0920230e+03   3.0914860e+01
   1.0925050e+03   3.1435820e+01
   1.0929870e+03   3.0369320e+01
   1.0934690e+03   3.2620320e+01
   1.0939510e+03   3.9890560e+01
   1.0944340e+03   4.4623870e+01
   1.0949160e+03   3.9325320e+01
   1.0953980e+03   3.1661830e+01
   1.0958800e+03   2.6089600e+01
   1.0963620e+03   2.2805160e+01
   1.0968440e+03   2.7848910e+01
   1.0973260e+03   4.2089720e+01
   1.0978080e+03   4.8575360e+01
   1.0982910e+03   3.4162090e+01
   1.0987730e+03   1.7125950e+01
   1.0992550e+03   2.0288890e+01
   1.0997370e+03   3.3979930e+01
   1.1002190e+03   4.3567060e+01
   1.1007010e+03   4.5378300e+01
   1.1011830e+03   4.4257640e+01
   1.1016650e+03   3.8888060e+01
   1.1021470e+03   3.4255570e+01
   1.1026300e+03   3.6836170e+01
   1.1031120e+03   4.2300890e+01
   1.1035940e+03   4.1292100e+01
   1.1040760e+03   3.4523380e+01
   1.1045580e+03   2.7086730e+01
   1.1050400e+03   1.5716170e+01
   1.1055220e+03   1.1586580e+01
   1.1060040e+03   1.9925030e+01
   1.1064860e+03   3.3318570e+01
   1.1069690e+03   3.9656190e+01
   1.1074510e+03   3.9818860e+01
   1.1079330e+03   3.7908690e+01
   1.1084150e+03   3.4402270e+01
   1.1088970e+03   3.0808290e+01
   1.1093790e+03   2.6102400e+01
   1.1098610e+03   2.3526120e+01
   1.1103430e+03   2.8211260e+01
   1.1108260e+03   3.7888490e+01
   1.1113080e+03   3.6180050e+01
   1.1117900e+03   2.1825410e+01
   1.1122720e+03   9.5747530e+00
   1.1127540e+03   3.7811740e+00
   1.1132360e+03   3.4566190e+00
   1.1137180e+03   1.1595120e+01
   1.1142000e+03   2.2614640e+01
   1.1146820e+03   2.9212190e+01
   1.1151650e+03   2.9617800e+01
   1.1156470e+03   2.8542920e+01
   1.1161290e+03   2.5999570e+01
   1.1166110e+03   2.1681240e+01
   1.1170930e+03   1.2175900e+01
   1.1175750e+03   2.4926300e+00
   1.1180570e+03   3.3343510e+00
   1.1185390e+03   1.1559050e+01
   1.1190210e+03   1.7552780e+01
   1.1195040e+03   1.4957550e+01
   1.1199860e+03   1.4643300e+01
   1.1204680e+03   1.8590030e+01
   1.1209500e+03   2.4015790e+01
   1.1214320e+03   2.8924790e+01
   1.1219140e+03   3.2417470e+01
   1.1223960e+03   2.9700090e+01
   1.1228780e+03   2.0942200e+01
   1.1233610e+03   1.5469830e+01
   1.1238430e+03   2.4800450e+01
   1.1243250e+03   3.0941010e+01
   1.1248070e+03   2.3858610e+01
   1.1252890e+03   1.0017140e+01
   1.1257710e+03   6.9726560e+00
   1.1262530e+03   1.3785130e+01
   1.1267350e+03   2.1687590e+01
   1.1272180e+03   2.9810030e+01
   1.1277000e+03   3.2964020e+01
   1.1281820e+03   2.0840350e+01
   1.1286640e+03   6.8336180e+00
   1.1291460e+03   3.7208400e+00
   1.1296280e+03   1.1468980e+01
   1.1301100e+03   1.5701100e+01
   1.1305920e+03   1.6172360e+01
   1.1310740e+03   1.6038500e+01
   1.1315570e+03   1.6247510e+01
   1.1320390e+03   1.7238430e+01
   1.1325210e+03   2.1014360e+01
   1.1330030e+03   2.5339140e+01
   1.1334850e+03   2.6424870e+01
   1.1339670e+03   2.0639430e+01
   1.1344490e+03   1.9270920e+01
   1.1349310e+03   2.3627700e+01
   1.1354130e+03   2.8666340e+01
   1.1358960e+03   3.0090500e+01
   1.1363780e+03   2.9325440e+01
   1.1368600e+03   2.7415210e+01
   1.1373420e+03   2.4702590e+01
   1.1378240e+03   2.2219800e+01
   1.1383060e+03   2.1350810e+01
   1.1387880e+03   1.9217700e+01
   1.1392700e+03   1.5631380e+01
   1.1397520e+03   1.0349900e+01
   1.1402350e+03   9.6786000e-02
   1.1407170e+03   1.1276690e+01
   1.1411990e+03   1.3220960e+01
   1.1416810e+03   4.6699680e+00
   1.1421630e+03   4.8112180e+00
   1.1426450e+03   1.3069310e+01
   1.1431270e+03   1.8467410e+01
   1.1436090e+03   1.9357320e+01
   1.1440920e+03   1.7942900e+01
   1.1445740e+03   2.0458150e+01
   1.1450560e+03   2.5921100e+01
   1.1455380e+03   2.9002700e+01
   1.1460200e+03   2.8340000e+01
   1.1465020e+03   2.5767930e+01
   1.1469840e+03   1.8687530e+01
   1.1474660e+03   1.3720810e+01
   1.1479480e+03   1.6806690e+01
   1.1484310e+03   2.6732240e+01
   1.1489130e+03   2.6917420e+01
   1.1493950e+03   1.7984250e+01
   1.1498770e+03   1.5918690e+01
   1.1503590e+03   3.3866740e+01
   1.1508410e+03   5.0041400e+01
   1.1513230e+03   4.4774630e+01
   1.1518050e+03   2.9709410e+01
   1.1522870e+03   1.8812810e+01
   1.1527700e+03   1.2210190e+01
   1.1532520e+03   1.3628130e+01
   1.1537340e+03   2.4106630e+01
   1.1542160e+03   3.2031630e+01
   1.1546980e+03   2.6791210e+01
   1.1551800e+03   1.7400620e+01
   1.1556620e+03   9.4672090e+00
   1.1561440e+03   4.5973510e+00
   1.1566270e+03   7.5979610e+00
   1.1571090e+03   2.4495090e+01
   1.1575910e+03   3.1110720e+01
   1.1580730e+03   2.3558820e+01
   1.1585550e+03   1.4306440e+01
   1.1590370e+03   1.8396510e+01
   1.1595190e+03   2.6516050e+01
   1.1600010e+03   2.4662080e+01
   1.1604840e+03   1.3596530e+01
   1.1609660e+03   5.3964390e+00
   1.1614480e+03   1.1017610e+00
   1.1619300e+03   2.6261600e+00
   1.1624120e+03   1.3623210e+01
   1.1628940e+03   2.4774730e+01
   1.1633760e+03   2.1565610e+01
   1.1638580e+03   1.1626880e+01
   1.1643400e+03   9.7974550e+00
   1.1648230e+03   1.8791380e+01
   1.1653050e+03   2.5759690e+01
   1.1657870e+03   2.7521590e+01
   1.1662690e+03   2.7131580e+01
   1.1667510e+03   2.7028840e+01
   1.1672330e+03   2.5484390e+01
   1.1677150e+03   1.4554900e+01
   1.1681970e+03   1.0499730e+00
   1.1686790e+03   7.2712710e+00
   1.1691620e+03   2.3100130e+00
   1.1696440e+03   1.2122770e+01
   1.1701260e+03   1.7953320e+01
   1.1706080e+03   2.1323210e+01
   1.1710900e+03   2.3109390e+01
   1.1715720e+03   2.2916840e+01
   1.1720540e+03   1.6101580e+01
   1.1725360e+03   4.9525910e+00
   1.1730190e+03   1.4130000e-02
   1.1735010e+03   1.1542110e+01
   1.1739830e+03   2.0708450e+01
   1.1744650e+03   1.7586880e+01
   1.1749470e+03   1.0793350e+01
   1.1754290e+03   5.8378300e+00
   1.1759110e+03   2.8712920e+00
   1.1763930e+03   8.0056610e+00
   1.1768750e+03   1.9991970e+01
   1.1773580e+03   2.6823210e+01
   1.1778400e+03   1.5203840e+01
   1.1783220e+03   3.3998720e+00
   1.1788040e+03   1.9002990e+00
   1.1792860e+03   5.1416020e+00
   1.1797680e+03   4.1562960e+00
   1.1802500e+03   1.1646420e+00
   1.1807320e+03   5.4233090e+00
   1.1812140e+03   2.5106630e+01
   1.1816970e+03   4.0341290e+01
   1.1821790e+03   3.4691330e+01
   1.1826610e+03   2.4047710e+01
   1.1831430e+03   1.8316440e+01
   1.1836250e+03   1.5952550e+01
   1.1841070e+03   1.1250960e+01
   1.1845890e+03   3.7347110e+00
   1.1850710e+03   3.3876190e+00
   1.1855540e+03   1.2366010e+01
   1.1860360e+03   2.2998670e+01
   1.1865180e+03   3.3204640e+01
   1.1870000e+03   3.8270870e+01
   1.1874820e+03   2.8103360e+01
   1.1879640e+03   7.2197270e+00
   1.1884460e+03   7.5156100e+00
   1.1889280e+03   3.2265730e+01
   1.1894110e+03   4.3393050e+01
   1.1898930e+03   2.7273180e+01
   1.1903750e+03   7.7029420e+00
   1.1908570e+03   1.3948900e+01
   1.1913390e+03   2.6494090e+01
   1.1918210e+03   2.1810500e+01
   1.1923030e+03   2.5919190e+00
   1.1927850e+03   8.3401640e+00
   1.1932670e+03   7.5760500e+00
   1.1937500e+03   1.9255510e+01
   1.1942320e+03   1.3858170e+01
   1.1947140e+03   4.9050140e+00
   1.1951960e+03   8.3729710e+00
   1.1956780e+03   1.7364090e+01
   1.1961600e+03   2.3604390e+01
   1.1966420e+03   2.6962840e+01
   1.1971240e+03   2.0999470e+01
   1.1976060e+03   3.2082520e+00
   1.1980890e+03   8.8483580e+00
   1.1985710e+03   8.3258100e-01
   1.1990530e+03   1.2411410e+01
   1.1995350e+03   1.0668410e+01
   1.2000170e+03   2.0446470e+00
   1.2004990e+03   2.0297550e+00
   1.2009810e+03   1.8041150e+01
   1.2014630e+03   2.8351610e+01
   1.2019450e+03   3.2711040e+01
   1.2024280e+03   3.2014510e+01
   1.2029100e+03   2.1998960e+01
   1.2033920e+03   1.0887340e+01
   1.2038740e+03   8.9267270e+00
   1.2043560e+03   1.4277040e+01
   1.2048380e+03   2.2502300e+01
   1.2053200e+03   3.8203550e+01
   1.2058020e+03   4.2075740e+01
   1.2062850e+03   3.0457900e+01
   1.2067670e+03   1.7880040e+01
   1.2072490e+03   2.1232100e+01
   1.2077310e+03   2.9387100e+01
   1.2082130e+03   2.5900020e+01
   1.2086950e+03   1.3272890e+01
   1.2091770e+03   7.0836180e+00
   1.2096590e+03   1.0388630e+01
   1.2101410e+03   1.7773700e+01
   1.2106240e+03   3.0546140e+01
   1.2111060e+03   3.8975520e+01
   1.2115880e+03   2.5531860e+01
   1.2120700e+03   5.2801970e+00
   1.2125520e+03   1.1557010e+00
   1.2130340e+03   6.7236790e+00
   1.2135160e+03   1.4239960e+01
   1.2139980e+03   2.0631200e+01
   1.2144800e+03   2.4066390e+01
   1.2149630e+03   2.3614520e+01
   1.2154450e+03   2.1823550e+01
   1.2159270e+03   2.2912510e+01
   1.2164090e+03   2.4284380e+01
   1.2168910e+03   2.1082840e+01
   1.2173730e+03   1.2724410e+01
   1.2178550e+03   1.0233090e+01
   1.2183370e+03   1.8309490e+01
   1.2188200e+03   1.8956990e+01
   1.2193020e+03   3.3766020e+00
   1.2197840e+03   1.3347720e+01
   1.2202660e+03   5.2708890e+00
   1.2207480e+03   1.3885160e+01
   1.2212300e+03   2.5827350e+01
   1.2217120e+03   2.7078670e+01
   1.2221940e+03   2.0813170e+01
   1.2226770e+03   2.8306430e+00
   1.2231590e+03   6.9653320e+00
   1.2236410e+03   2.4278410e+00
   1.2241230e+03   1.8103200e+01
   1.2246050e+03   1.9800660e+01
   1.2250870e+03   1.5662340e+01
   1.2255690e+03   1.8775160e+01
   1.2260510e+03   3.5640230e+01
   1.2265330e+03   4.2134520e+01
   1.2270160e+03   3.6343280e+01
   1.2274980e+03   3.0116320e+01
   1.2279800e+03   2.8143750e+01
   1.2284620e+03   2.8306400e+01
   1.2289440e+03   2.6407120e+01
   1.2294260e+03   2.4137300e+01
   1.2299080e+03   2.4682920e+01
   1.2303900e+03   3.0848210e+01
   1.2308720e+03   3.2962010e+01
   1.2313550e+03   3.0508350e+01
   1.2318370e+03   2.6177630e+01
   1.2323190e+03   1.8048660e+01
   1.2328010e+03   1.2383030e+01
   1.2332830e+03   2.2790310e+01
   1.2337650e+03   4.0181850e+01
   1.2342470e+03   4.6642880e+01
   1.2347290e+03   3.2415860e+01
   1.2352120e+03   2.7870060e+01
   1.2356940e+03   3.4634250e+01
   1.2361760e+03   4.0959530e+01
   1.2366580e+03   3.5633970e+01
   1.2371400e+03   2.7604430e+01
   1.2376220e+03   2.7724910e+01
   1.2381040e+03   3.2345400e+01
   1.2385860e+03   3.2256840e+01
   1.2390680e+03   2.3581300e+01
   1.2395510e+03   2.3310780e+01
   1.2400330e+03   3.3331280e+01
   1.2405150e+03   4.2084840e+01
   1.2409970e+03   3.6291470e+01
   1.2414790e+03   2.8600020e+01
   1.2419610e+03   3.4545610e+01
   1.2424430e+03   4.7562580e+01
   1.2429250e+03   5.0313720e+01
   1.2434070e+03   4.1362120e+01
   1.2438900e+03   3.2040470e+01
   1.2443720e+03   2.2916720e+01
   1.2448540e+03   1.7832890e+01
   1.2453360e+03   2.5671080e+01
   1.2458180e+03   3.3905000e+01
   1.2463000e+03   2.6940610e+01
   1.2467820e+03   1.0562820e+01
   1.2472640e+03   4.1231080e+00
   1.2477470e+03   8.8856960e+00
   1.2482290e+03   1.1717530e+01
   1.2487110e+03   1.0947620e+01
   1.2491930e+03   1.1396990e+01
   1.2496750e+03   1.9927640e+01
   1.2501570e+03   2.8415590e+01
   1.2506390e+03   3.0726870e+01
   1.2511210e+03   2.8225430e+01
   1.2516040e+03   2.2698030e+01
   1.2520860e+03   1.3972920e+01
   1.2525680e+03   1.5722290e+01
   1.2530500e+03   3.1191100e+01
   1.2535320e+03   4.3585250e+01
   1.2540140e+03   3.8413700e+01
   1.2544960e+03   2.7547470e+01
   1.2549780e+03   1.5212660e+01
   1.2554600e+03   4.0813140e+00
   1.2559430e+03   2.5547330e+00
   1.2564250e+03   7.3587490e+00
   1.2569070e+03   8.8972320e+00
   1.2573890e+03   2.0826720e+00
   1.2578710e+03   3.6564480e+00
   1.2583530e+03   2.5932920e+00
   1.2588350e+03   1.0350400e+01
   1.2593170e+03   1.4969740e+01
   1.2597990e+03   1.7056460e+01
   1.2602810e+03   1.5721270e+01
   1.2607640e+03   1.2834320e+01
   1.2612460e+03   2.0783570e+01
   1.2617280e+03   4.4151250e+01
   1.2622100e+03   5.8327270e+01
   1.2626920e+03   4.1271030e+01
   1.2631740e+03   2.3400130e+01
   1.2636560e+03   1.7306850e+01
   1.2641380e+03   1.9139340e+01
   1.2646210e+03   2.1191530e+01
   1.2651030e+03   2.3056400e+01
   1.2655850e+03   2.3745770e+01
   1.2660670e+03   2.3270520e+01
   1.2665490e+03   1.9908510e+01
   1.2670310e+03   6.6715550e+00
   1.2675130e+03   6.9747999e-02
   1.2679950e+03   8.1278080e+00
   1.2684780e+03   2.3220050e+01
   1.2689600e+03   2.8707210e+01
   1.2694420e+03   2.7351230e+01
   1.2699240e+03   2.4234150e+01
   1.2704060e+03   1.9615220e+01
   1.2708880e+03   1.8443010e+01
   1.2713700e+03   2.1941350e+01
   1.2718520e+03   2.7275050e+01
   1.2723340e+03   3.4486920e+01
   1.2728170e+03   4.1090000e+01
   1.2732990e+03   4.2318220e+01
   1.2737810e+03   4.0072330e+01
   1.2742630e+03   3.6483510e+01
   1.2747450e+03   3.1754700e+01
   1.2752270e+03   3.0755110e+01
   1.2757090e+03   3.7514360e+01
   1.2761910e+03   4.2781390e+01
   1.2766730e+03   4.2332870e+01
   1.2771560e+03   3.9930160e+01
   1.2776380e+03   4.0836400e+01
   1.2781200e+03   4.2894650e+01
   1.2786020e+03   4.3804170e+01
   1.2790840e+03   4.3795350e+01
   1.2795660e+03   3.6560840e+01
   1.2800480e+03   2.0345600e+01
   1.2805300e+03   8.5646510e+00
   1.2810130e+03   6.0785680e+00
   1.2814950e+03   9.7030030e+00
   1.2819770e+03   2.1695710e+01
   1.2824590e+03   3.4504440e+01
   1.2829410e+03   3.9731670e+01
   1.2834230e+03   3.7387880e+01
   1.2839050e+03   2.5242190e+01
   1.2843870e+03   3.7933200e+00
   1.2848700e+03   6.5388030e+00
   1.2853520e+03   8.4607090e+00
   1.2858340e+03   2.6812270e+01
   1.2863160e+03   3.6544950e+01
   1.2867980e+03   4.1086210e+01
   1.2872800e+03   4.4416170e+01
   1.2877620e+03   4.6223660e+01
   1.2882440e+03   4.4419680e+01
   1.2887260e+03   2.9104140e+01
   1.2892080e+03   2.1488340e+01
   1.2896910e+03   1.0387010e+01
   1.2901730e+03   4.0090790e+00
   1.2906550e+03   1.4741010e+01
   1.2911370e+03   2.4115750e+01
   1.2916190e+03   1.6921890e+01
   1.2921010e+03   0.0000000e+00
   1.5000000e+03   0.0000000e+00
