   1.0000000e+02   0.0000000e+00
   1.5752780e+02   0.0000000e+00
   1.5800990e+02   1.8370000e-03
   1.5849200e+02   6.5687001e-02
   1.5897410e+02   1.5794400e-01
   1.5945620e+02   2.1627400e-01
   1.5993830e+02   1.2357700e-01
   1.6042050e+02   8.9970000e-02
   1.6090260e+02   2.5505300e-01
   1.6138470e+02   6.5892400e-01
   1.6186680e+02   1.0253110e+00
   1.6234890e+02   1.0954860e+00
   1.6283100e+02   1.0226550e+00
   1.6331320e+02   8.9046900e-01
   1.6379530e+02   6.6178100e-01
   1.6427740e+02   4.3377900e-01
   1.6475950e+02   2.2833400e-01
   1.6524160e+02   3.4162998e-02
   1.6572370e+02   4.8852999e-02
   1.6620590e+02   1.3170200e-01
   1.6668800e+02   4.3699800e-01
   1.6717010e+02   6.5617000e-01
   1.6765220e+02   5.6412900e-01
   1.6813430e+02   4.3922400e-01
   1.6861640e+02   5.1559100e-01
   1.6909850e+02   8.6800800e-01
   1.6958070e+02   1.2093730e+00
   1.7006280e+02   1.3387990e+00
   1.7054490e+02   1.3140910e+00
   1.7102700e+02   1.2352560e+00
   1.7150910e+02   1.0906540e+00
   1.7199120e+02   9.4744100e-01
   1.7247340e+02   8.7949400e-01
   1.7295550e+02   9.0936900e-01
   1.7343760e+02   9.6922700e-01
   1.7391970e+02   1.0459670e+00
   1.7440180e+02   1.1160320e+00
   1.7488390e+02   1.1118640e+00
   1.7536610e+02   8.5909700e-01
   1.7584820e+02   5.5443000e-01
   1.7633030e+02   4.9311800e-01
   1.7681240e+02   7.9797000e-01
   1.7729450e+02   1.1697080e+00
   1.7777660e+02   1.2552890e+00
   1.7825880e+02   1.1059610e+00
   1.7874090e+02   9.4489700e-01
   1.7922300e+02   9.2033400e-01
   1.7970510e+02   9.7464200e-01
   1.8018720e+02   1.0131820e+00
   1.8066930e+02   1.1263160e+00
   1.8115150e+02   1.2518060e+00
   1.8163360e+02   1.3136980e+00
   1.8211570e+02   1.3618680e+00
   1.8259780e+02   1.4373210e+00
   1.8307990e+02   1.5186230e+00
   1.8356200e+02   1.5223050e+00
   1.8404420e+02   1.5256940e+00
   1.8452630e+02   1.6079710e+00
   1.8500840e+02   1.7126500e+00
   1.8549050e+02   1.7311210e+00
   1.8597260e+02   1.6645740e+00
   1.8645470e+02   1.5748370e+00
   1.8693690e+02   1.5281960e+00
   1.8741900e+02   1.4834370e+00
   1.8790110e+02   1.4674550e+00
   1.8838320e+02   1.5217390e+00
   1.8886530e+02   1.5669860e+00
   1.8934740e+02   1.4634040e+00
   1.8982960e+02   1.2092250e+00
   1.9031170e+02   9.7831300e-01
   1.9079380e+02   8.8607700e-01
   1.9127590e+02   9.2466800e-01
   1.9175800e+02   1.0111370e+00
   1.9224010e+02   1.1362720e+00
   1.9272230e+02   1.2916240e+00
   1.9320440e+02   1.4856660e+00
   1.9368650e+02   1.7335120e+00
   1.9416860e+02   1.9160650e+00
   1.9465070e+02   1.9168990e+00
   1.9513280e+02   1.7419620e+00
   1.9561500e+02   1.4734550e+00
   1.9609710e+02   1.0675290e+00
   1.9657920e+02   5.9664100e-01
   1.9706130e+02   3.6611300e-01
   1.9754340e+02   4.0178500e-01
   1.9802550e+02   5.5243200e-01
   1.9850770e+02   7.2175000e-01
   1.9898980e+02   9.1616000e-01
   1.9947190e+02   9.7854900e-01
   1.9995400e+02   7.9625300e-01
   2.0043610e+02   4.4643200e-01
   2.0091820e+02   4.2590300e-01
   2.0140040e+02   8.4183500e-01
   2.0188250e+02   1.2611060e+00
   2.0236460e+02   1.1664710e+00
   2.0284670e+02   4.8423200e-01
   2.0332880e+02   8.1873000e-02
   2.0381090e+02   3.5332100e-01
   2.0429310e+02   3.5654600e-01
   2.0477520e+02   2.9084000e-01
   2.0525730e+02   1.2873800e-01
   2.0573940e+02   3.6759999e-02
   2.0622150e+02   1.0446200e-01
   2.0670360e+02   5.9861999e-02
   2.0718580e+02   1.3060000e-02
   2.0766790e+02   1.1835900e-01
   2.0815000e+02   2.4840300e-01
   2.0863210e+02   2.7253800e-01
   2.0911420e+02   1.6365100e-01
   2.0959630e+02   3.6000001e-04
   2.1007850e+02   1.4922700e-01
   2.1056060e+02   2.9736700e-01
   2.1104270e+02   3.8032200e-01
   2.1152480e+02   3.6472700e-01
   2.1200690e+02   2.5341400e-01
   2.1248900e+02   1.8070200e-01
   2.1297120e+02   1.5792300e-01
   2.1345330e+02   1.5704200e-01
   2.1393540e+02   1.5372500e-01
   2.1441750e+02   1.5705500e-01
   2.1489960e+02   1.2795600e-01
   2.1538170e+02   4.7380000e-02
   2.1586390e+02   9.3301997e-02
   2.1634600e+02   1.6274500e-01
   2.1682810e+02   1.3396800e-01
   2.1731020e+02   7.0274003e-02
   2.1779230e+02   4.9417000e-02
   2.1827440e+02   1.0194800e-01
   2.1875650e+02   1.1536000e-01
   2.1923870e+02   4.2727999e-02
   2.1972080e+02   1.1991700e-01
   2.2020290e+02   2.0167000e-01
   2.2068500e+02   1.7566700e-01
   2.2116710e+02   9.9619001e-02
   2.2164920e+02   3.1145001e-02
   2.2213140e+02   3.9349001e-02
   2.2261350e+02   8.1721999e-02
   2.2309560e+02   8.8871002e-02
   2.2357770e+02   6.3660003e-02
   2.2405980e+02   5.0349999e-03
   2.2454190e+02   1.0343200e-01
   2.2502410e+02   2.1706000e-01
   2.2550620e+02   2.8962500e-01
   2.2598830e+02   3.0945000e-01
   2.2647040e+02   3.0904400e-01
   2.2695250e+02   2.7847700e-01
   2.2743460e+02   2.1318200e-01
   2.2791680e+02   2.2524500e-01
   2.2839890e+02   3.5817700e-01
   2.2888100e+02   5.2194200e-01
   2.2936310e+02   6.2326800e-01
   2.2984520e+02   6.5035600e-01
   2.3032730e+02   6.3785000e-01
   2.3080950e+02   5.7429100e-01
   2.3129160e+02   4.5589600e-01
   2.3177370e+02   3.9841300e-01
   2.3225580e+02   4.3355800e-01
   2.3273790e+02   4.9672500e-01
   2.3322000e+02   5.1913100e-01
   2.3370220e+02   4.6921900e-01
   2.3418430e+02   4.4057500e-01
   2.3466640e+02   4.5398300e-01
   2.3514850e+02   5.0965100e-01
   2.3563060e+02   5.7304600e-01
   2.3611270e+02   6.4023800e-01
   2.3659490e+02   7.1998200e-01
   2.3707700e+02   8.3217000e-01
   2.3755910e+02   1.0336490e+00
   2.3804120e+02   1.1533370e+00
   2.3852330e+02   1.1253190e+00
   2.3900540e+02   9.4947200e-01
   2.3948760e+02   8.7147100e-01
   2.3996970e+02   9.7275900e-01
   2.4045180e+02   1.0834260e+00
   2.4093390e+02   1.0363640e+00
   2.4141600e+02   7.0953600e-01
   2.4189810e+02   4.6798300e-01
   2.4238030e+02   3.9041500e-01
   2.4286240e+02   4.7226900e-01
   2.4334450e+02   5.4836700e-01
   2.4382660e+02   6.1169800e-01
   2.4430870e+02   6.7782000e-01
   2.4479080e+02   7.6456100e-01
   2.4527300e+02   9.0045500e-01
   2.4575510e+02   9.9853700e-01
   2.4623720e+02   1.0374240e+00
   2.4671930e+02   1.0214270e+00
   2.4720140e+02   1.0065570e+00
   2.4768350e+02   9.7853700e-01
   2.4816570e+02   9.6849800e-01
   2.4864780e+02   1.0049840e+00
   2.4912990e+02   1.1153550e+00
   2.4961200e+02   1.2129420e+00
   2.5009410e+02   1.2854670e+00
   2.5057620e+02   1.3355240e+00
   2.5105840e+02   1.3874820e+00
   2.5154050e+02   1.4593320e+00
   2.5202260e+02   1.5087490e+00
   2.5250470e+02   1.5018980e+00
   2.5298680e+02   1.4163190e+00
   2.5346890e+02   1.3194810e+00
   2.5395110e+02   1.1673030e+00
   2.5443320e+02   9.9905600e-01
   2.5491530e+02   1.0752300e+00
   2.5539740e+02   1.5651490e+00
   2.5587950e+02   2.0428300e+00
   2.5636160e+02   2.2174210e+00
   2.5684380e+02   1.9622860e+00
   2.5732590e+02   1.7338200e+00
   2.5780800e+02   1.5433370e+00
   2.5829010e+02   1.4062180e+00
   2.5877220e+02   1.3932210e+00
   2.5925430e+02   1.5623990e+00
   2.5973650e+02   1.7592960e+00
   2.6021860e+02   1.8991910e+00
   2.6070070e+02   1.9562550e+00
   2.6118280e+02   2.0182930e+00
   2.6166490e+02   2.1086880e+00
   2.6214700e+02   2.2145500e+00
   2.6262920e+02   2.2385500e+00
   2.6311130e+02   2.1311150e+00
   2.6359340e+02   2.0593640e+00
   2.6407550e+02   2.1271440e+00
   2.6455760e+02   2.4039920e+00
   2.6503970e+02   2.5341610e+00
   2.6552190e+02   2.4372620e+00
   2.6600400e+02   2.2308850e+00
   2.6648610e+02   2.2242970e+00
   2.6696820e+02   2.5169770e+00
   2.6745030e+02   2.7944430e+00
   2.6793240e+02   2.8748740e+00
   2.6841460e+02   2.6910020e+00
   2.6889670e+02   2.6109960e+00
   2.6937880e+02   2.6549870e+00
   2.6986090e+02   2.7825660e+00
   2.7034300e+02   2.9426610e+00
   2.7082510e+02   3.1668550e+00
   2.7130730e+02   3.3173920e+00
   2.7178940e+02   3.2872830e+00
   2.7227150e+02   3.0442220e+00
   2.7275360e+02   2.9845410e+00
   2.7323570e+02   3.1601790e+00
   2.7371780e+02   3.4361970e+00
   2.7420000e+02   3.6263410e+00
   2.7468210e+02   3.7213040e+00
   2.7516420e+02   3.8001560e+00
   2.7564630e+02   3.8813760e+00
   2.7612840e+02   3.9602150e+00
   2.7661050e+02   4.0496250e+00
   2.7709270e+02   4.1603790e+00
   2.7757480e+02   4.2740040e+00
   2.7805690e+02   4.3644680e+00
   2.7853900e+02   4.4291930e+00
   2.7902110e+02   4.4874800e+00
   2.7950320e+02   4.5458280e+00
   2.7998540e+02   4.6012990e+00
   2.8046750e+02   4.6392780e+00
   2.8094960e+02   4.6555500e+00
   2.8143170e+02   4.6809430e+00
   2.8191380e+02   4.7662870e+00
   2.8239590e+02   4.9134030e+00
   2.8287810e+02   5.0089230e+00
   2.8336020e+02   4.9975680e+00
   2.8384230e+02   4.9158540e+00
   2.8432440e+02   4.9165210e+00
   2.8480650e+02   5.0023540e+00
   2.8528860e+02   5.1498070e+00
   2.8577080e+02   5.3888680e+00
   2.8625290e+02   5.7094960e+00
   2.8673500e+02   5.9165080e+00
   2.8721710e+02   5.9474980e+00
   2.8769920e+02   5.8534660e+00
   2.8818130e+02   5.7256260e+00
   2.8866350e+02   5.5554810e+00
   2.8914560e+02   5.4860250e+00
   2.8962770e+02   5.7031960e+00
   2.9010980e+02   6.1584430e+00
   2.9059190e+02   6.5166570e+00
   2.9107400e+02   6.7179660e+00
   2.9155620e+02   6.8127710e+00
   2.9203830e+02   6.8978370e+00
   2.9252040e+02   6.9717330e+00
   2.9300250e+02   6.9890230e+00
   2.9348460e+02   6.8494680e+00
   2.9396670e+02   6.6179770e+00
   2.9444890e+02   6.5355130e+00
   2.9493100e+02   6.6551610e+00
   2.9541310e+02   6.8687730e+00
   2.9589520e+02   7.0635400e+00
   2.9637730e+02   7.2311610e+00
   2.9685940e+02   7.3235470e+00
   2.9734160e+02   7.2583290e+00
   2.9782370e+02   7.1044620e+00
   2.9830580e+02   7.0389460e+00
   2.9878790e+02   7.0910430e+00
   2.9927000e+02   7.1441970e+00
   2.9975210e+02   6.9995690e+00
   3.0023430e+02   6.7264580e+00
   3.0071640e+02   6.5545880e+00
   3.0119850e+02   6.7085610e+00
   3.0168060e+02   6.9935320e+00
   3.0216270e+02   7.0893860e+00
   3.0264480e+02   6.9814850e+00
   3.0312700e+02   6.8240390e+00
   3.0360910e+02   6.7222880e+00
   3.0409120e+02   6.6763110e+00
   3.0457330e+02   6.6814800e+00
   3.0505540e+02   6.7487260e+00
   3.0553750e+02   6.8598540e+00
   3.0601970e+02   7.0545860e+00
   3.0650180e+02   7.3217850e+00
   3.0698390e+02   7.4749260e+00
   3.0746600e+02   7.2291050e+00
   3.0794810e+02   6.8151840e+00
   3.0843020e+02   6.5695590e+00
   3.0891240e+02   6.7493990e+00
   3.0939450e+02   6.9813670e+00
   3.0987660e+02   6.9770810e+00
   3.1035870e+02   6.7585850e+00
   3.1084080e+02   6.4404950e+00
   3.1132290e+02   5.9212530e+00
   3.1180510e+02   5.4088440e+00
   3.1228720e+02   5.1391680e+00
   3.1276930e+02   5.2501490e+00
   3.1325140e+02   5.4658640e+00
   3.1373350e+02   5.7227460e+00
   3.1421560e+02   5.9737890e+00
   3.1469780e+02   6.0851000e+00
   3.1517990e+02   5.8847750e+00
   3.1566200e+02   5.5862200e+00
   3.1614410e+02   5.3374040e+00
   3.1662620e+02   5.1678920e+00
   3.1710830e+02   5.0446700e+00
   3.1759050e+02   4.9697130e+00
   3.1807260e+02   4.9231130e+00
   3.1855470e+02   4.8802320e+00
   3.1903680e+02   4.8690570e+00
   3.1951890e+02   4.8497180e+00
   3.2000100e+02   4.8251130e+00
   3.2048320e+02   4.8149780e+00
   3.2096530e+02   4.6956840e+00
   3.2144740e+02   4.2709180e+00
   3.2192950e+02   3.7722210e+00
   3.2241160e+02   3.4705140e+00
   3.2289370e+02   3.6483440e+00
   3.2337590e+02   3.8226530e+00
   3.2385800e+02   3.8253750e+00
   3.2434010e+02   3.6397500e+00
   3.2482220e+02   3.5104260e+00
   3.2530430e+02   3.4937580e+00
   3.2578640e+02   3.5119600e+00
   3.2626860e+02   3.5236920e+00
   3.2675070e+02   3.6288190e+00
   3.2723280e+02   3.6291950e+00
   3.2771490e+02   3.4230780e+00
   3.2819700e+02   3.0388550e+00
   3.2867910e+02   2.7855610e+00
   3.2916130e+02   2.7464540e+00
   3.2964340e+02   2.7776700e+00
   3.3012550e+02   2.8107690e+00
   3.3060760e+02   2.8789630e+00
   3.3108970e+02   2.9012720e+00
   3.3157180e+02   2.8875390e+00
   3.3205400e+02   2.8293910e+00
   3.3253610e+02   2.6910880e+00
   3.3301820e+02   2.3600330e+00
   3.3350030e+02   2.0953620e+00
   3.3398240e+02   2.0267730e+00
   3.3446450e+02   2.2567980e+00
   3.3494670e+02   2.3670330e+00
   3.3542880e+02   2.3331850e+00
   3.3591090e+02   2.1953590e+00
   3.3639300e+02   1.9958320e+00
   3.3687510e+02   1.6640640e+00
   3.3735720e+02   1.4353900e+00
   3.3783940e+02   1.4203910e+00
   3.3832150e+02   1.6247020e+00
   3.3880360e+02   1.7406710e+00
   3.3928570e+02   1.7654900e+00
   3.3976780e+02   1.7159220e+00
   3.4024990e+02   1.5680680e+00
   3.4073200e+02   1.2926950e+00
   3.4121410e+02   1.1195560e+00
   3.4169630e+02   1.1233330e+00
   3.4217840e+02   1.2627110e+00
   3.4266050e+02   1.3698140e+00
   3.4314260e+02   1.4458550e+00
   3.4362470e+02   1.4816960e+00
   3.4410680e+02   1.4726030e+00
   3.4458900e+02   1.4187350e+00
   3.4507110e+02   1.2940180e+00
   3.4555320e+02   1.0676010e+00
   3.4603530e+02   8.0797300e-01
   3.4651740e+02   6.5549300e-01
   3.4699950e+02   6.0850000e-01
   3.4748170e+02   6.3301900e-01
   3.4796380e+02   7.5478100e-01
   3.4844590e+02   9.3849600e-01
   3.4892800e+02   1.0546270e+00
   3.4941010e+02   1.0905750e+00
   3.4989220e+02   1.0736530e+00
   3.5037440e+02   1.0292870e+00
   3.5085650e+02   9.4785200e-01
   3.5133860e+02   8.5690100e-01
   3.5182070e+02   7.8818600e-01
   3.5230280e+02   7.3105700e-01
   3.5278490e+02   6.5871100e-01
   3.5326710e+02   5.6977100e-01
   3.5374920e+02   4.9587300e-01
   3.5423130e+02   4.4823200e-01
   3.5471340e+02   4.3575500e-01
   3.5519550e+02   4.8393200e-01
   3.5567760e+02   6.9915300e-01
   3.5615980e+02   8.8573500e-01
   3.5664190e+02   8.2554600e-01
   3.5712400e+02   5.5526300e-01
   3.5760610e+02   2.7176900e-01
   3.5808820e+02   5.5680000e-03
   3.5857030e+02   1.7425500e-01
   3.5905250e+02   1.6610800e-01
   3.5953460e+02   1.5750900e-01
   3.6001670e+02   4.5550800e-01
   3.6049880e+02   4.8201000e-01
   3.6098090e+02   3.3652100e-01
   3.6146300e+02   2.3725700e-01
   3.6194520e+02   3.1342900e-01
   3.6242730e+02   4.0975800e-01
   3.6290940e+02   4.2722800e-01
   3.6339150e+02   3.3260500e-01
   3.6387360e+02   2.6211200e-01
   3.6435570e+02   2.9563500e-01
   3.6483790e+02   3.6576700e-01
   3.6532000e+02   3.9365200e-01
   3.6580210e+02   2.9814300e-01
   3.6628420e+02   2.2118000e-01
   3.6676630e+02   2.2331800e-01
   3.6724840e+02   3.0477000e-01
   3.6773060e+02   3.4388400e-01
   3.6821270e+02   2.9618000e-01
   3.6869480e+02   2.2131500e-01
   3.6917690e+02   1.5849200e-01
   3.6965900e+02   1.2045600e-01
   3.7014110e+02   8.0820002e-02
   3.7062330e+02   3.5721000e-02
   3.7110540e+02   1.1930000e-02
   3.7158750e+02   5.4676000e-02
   3.7206960e+02   1.0754300e-01
   3.7255170e+02   1.3792700e-01
   3.7303380e+02   1.2163700e-01
   3.7351600e+02   1.8451000e-02
   3.7399810e+02   4.9100001e-03
   3.7448020e+02   1.1890600e-01
   3.7496230e+02   2.6999000e-01
   3.7544440e+02   2.2646700e-01
   3.7592650e+02   1.0354600e-01
   3.7640870e+02   3.7578800e-01
   3.7689080e+02   4.6018100e-01
   3.7737290e+02   3.6535500e-01
   3.7785500e+02   3.6506900e-01
   3.7833710e+02   5.0113700e-01
   3.7881920e+02   6.2045700e-01
   3.7930140e+02   5.4158200e-01
   3.7978350e+02   2.5271900e-01
   3.8026560e+02   2.4240001e-03
   3.8074770e+02   1.6311200e-01
   3.8122980e+02   2.6024500e-01
   3.8171190e+02   3.4899100e-01
   3.8219410e+02   4.2907900e-01
   3.8267620e+02   4.1839600e-01
   3.8315830e+02   1.6544300e-01
   3.8364040e+02   2.3451500e-01
   3.8412250e+02   3.9418900e-01
   3.8460460e+02   2.3253900e-01
   3.8508680e+02   8.1449999e-03
   3.8556890e+02   1.1454000e-02
   3.8605100e+02   2.2345700e-01
   3.8653310e+02   3.7037400e-01
   3.8701520e+02   2.4046300e-01
   3.8749730e+02   9.9900002e-03
   3.8797950e+02   4.6448998e-02
   3.8846160e+02   7.4633002e-02
   3.8894370e+02   2.0813700e-01
   3.8942580e+02   2.2262000e-01
   3.8990790e+02   1.7352900e-01
   3.9039000e+02   1.3630700e-01
   3.9087220e+02   1.3285300e-01
   3.9135430e+02   1.3611400e-01
   3.9183640e+02   1.1419800e-01
   3.9231850e+02   8.0986999e-02
   3.9280060e+02   8.3720997e-02
   3.9328270e+02   2.3578100e-01
   3.9376490e+02   3.7496000e-01
   3.9424700e+02   3.6260500e-01
   3.9472910e+02   1.1067600e-01
   3.9521120e+02   8.5928999e-02
   3.9569330e+02   9.5035002e-02
   3.9617540e+02   5.3510000e-03
   3.9665760e+02   6.2749997e-02
   3.9713970e+02   7.2512001e-02
   3.9762180e+02   6.8456002e-02
   3.9810390e+02   4.9995001e-02
   3.9858600e+02   1.2736000e-02
   3.9906810e+02   2.0199999e-02
   3.9955030e+02   1.0802800e-01
   4.0003240e+02   2.2721700e-01
   4.0051450e+02   3.4159600e-01
   4.0099660e+02   4.6838800e-01
   4.0147870e+02   5.7004300e-01
   4.0196080e+02   6.6022800e-01
   4.0244300e+02   7.2594900e-01
   4.0292510e+02   7.0405400e-01
   4.0340720e+02   5.2647900e-01
   4.0388930e+02   3.6194500e-01
   4.0437140e+02   2.8852700e-01
   4.0485350e+02   3.2284600e-01
   4.0533570e+02   3.9570900e-01
   4.0581780e+02   5.5535400e-01
   4.0629990e+02   6.8946000e-01
   4.0678200e+02   5.7190800e-01
   4.0726410e+02   1.3295300e-01
   4.0774620e+02   1.4714300e-01
   4.0822840e+02   7.4974999e-02
   4.0871050e+02   2.7231300e-01
   4.0919260e+02   5.3849600e-01
   4.0967470e+02   7.2870300e-01
   4.1015680e+02   8.1377100e-01
   4.1063890e+02   6.8936300e-01
   4.1112110e+02   4.0546800e-01
   4.1160320e+02   2.4711600e-01
   4.1208530e+02   2.9283500e-01
   4.1256740e+02   4.2019700e-01
   4.1304950e+02   4.4495800e-01
   4.1353160e+02   3.8400700e-01
   4.1401380e+02   3.2378900e-01
   4.1449590e+02   3.2839600e-01
   4.1497800e+02   3.7168500e-01
   4.1546010e+02   3.9500000e-01
   4.1594220e+02   3.9314200e-01
   4.1642430e+02   3.9205000e-01
   4.1690650e+02   4.4635000e-01
   4.1738860e+02   5.0981400e-01
   4.1787070e+02   4.9926300e-01
   4.1835280e+02   2.1728500e-01
   4.1883490e+02   1.5654000e-02
   4.1931700e+02   2.2975400e-01
   4.1979920e+02   7.6277200e-01
   4.2028130e+02   1.1491930e+00
   4.2076340e+02   1.0767880e+00
   4.2124550e+02   8.6770700e-01
   4.2172760e+02   7.4074100e-01
   4.2220970e+02   7.7764600e-01
   4.2269190e+02   7.8023300e-01
   4.2317400e+02   6.2708500e-01
   4.2365610e+02   4.2559700e-01
   4.2413820e+02   3.3693600e-01
   4.2462030e+02   5.2844600e-01
   4.2510240e+02   6.9440500e-01
   4.2558460e+02   7.4606300e-01
   4.2606670e+02   6.7516400e-01
   4.2654880e+02   6.3431500e-01
   4.2703090e+02   6.5892500e-01
   4.2751300e+02   6.8191500e-01
   4.2799510e+02   6.4721500e-01
   4.2847730e+02   4.9091300e-01
   4.2895940e+02   4.2470600e-01
   4.2944150e+02   5.1024100e-01
   4.2992360e+02   6.7069600e-01
   4.3040570e+02   6.9852000e-01
   4.3088780e+02   5.5238500e-01
   4.3137000e+02   4.1085000e-01
   4.3185210e+02   3.5818200e-01
   4.3233420e+02   3.9050700e-01
   4.3281630e+02   3.5380100e-01
   4.3329840e+02   2.3335900e-01
   4.3378050e+02   1.4750200e-01
   4.3426270e+02   2.7020400e-01
   4.3474480e+02   5.7334500e-01
   4.3522690e+02   7.6413300e-01
   4.3570900e+02   7.3311100e-01
   4.3619110e+02   5.8471600e-01
   4.3667320e+02   5.1632800e-01
   4.3715540e+02   5.2175500e-01
   4.3763750e+02   5.5602800e-01
   4.3811960e+02   6.5470700e-01
   4.3860170e+02   7.3690600e-01
   4.3908380e+02   6.4675300e-01
   4.3956590e+02   3.3516300e-01
   4.4004800e+02   2.5237000e-02
   4.4053020e+02   1.0744300e-01
   4.4101230e+02   8.9359000e-02
   4.4149440e+02   2.9420001e-03
   4.4197650e+02   2.3721500e-01
   4.4245860e+02   4.4191200e-01
   4.4294070e+02   4.7749400e-01
   4.4342290e+02   3.6541400e-01
   4.4390500e+02   2.8249600e-01
   4.4438710e+02   3.5149900e-01
   4.4486920e+02   4.4156500e-01
   4.4535130e+02   4.6542000e-01
   4.4583340e+02   3.7953800e-01
   4.4631560e+02   2.7976200e-01
   4.4679770e+02   1.4472400e-01
   4.4727980e+02   8.7479996e-03
   4.4776190e+02   6.6347003e-02
   4.4824400e+02   5.6131002e-02
   4.4872610e+02   4.5309998e-03
   4.4920830e+02   1.0579700e-01
   4.4969040e+02   2.8261900e-01
   4.5017250e+02   3.6820600e-01
   4.5065460e+02   3.3585500e-01
   4.5113670e+02   2.4568600e-01
   4.5161880e+02   1.2283100e-01
   4.5210100e+02   6.9246002e-02
   4.5258310e+02   1.6214000e-01
   4.5306520e+02   1.2103900e-01
   4.5354730e+02   1.9980001e-03
   4.5402940e+02   5.9971001e-02
   4.5451150e+02   5.6602001e-02
   4.5499370e+02   3.9664000e-02
   4.5547580e+02   1.4023000e-02
   4.5595790e+02   9.8919999e-03
   4.5644000e+02   4.8934001e-02
   4.5692210e+02   2.0301800e-01
   4.5740420e+02   3.5462100e-01
   4.5788640e+02   4.0042300e-01
   4.5836850e+02   3.6297900e-01
   4.5885060e+02   3.0423000e-01
   4.5933270e+02   2.2436700e-01
   4.5981480e+02   1.5558600e-01
   4.6029690e+02   1.4092600e-01
   4.6077910e+02   1.7061100e-01
   4.6126120e+02   2.1279700e-01
   4.6174330e+02   2.6888700e-01
   4.6222540e+02   3.1746700e-01
   4.6270750e+02   3.3691300e-01
   4.6318960e+02   3.2415000e-01
   4.6367180e+02   3.0306600e-01
   4.6415390e+02   2.7685000e-01
   4.6463600e+02   2.5299000e-01
   4.6511810e+02   2.3760000e-01
   4.6560020e+02   2.5136000e-01
   4.6608230e+02   2.4611600e-01
   4.6656450e+02   1.7413900e-01
   4.6704660e+02   5.6471001e-02
   4.6752870e+02   1.3843000e-02
   4.6801080e+02   1.4348800e-01
   4.6849290e+02   2.7468300e-01
   4.6897500e+02   3.4481000e-01
   4.6945720e+02   3.3607300e-01
   4.6993930e+02   3.3431100e-01
   4.7042140e+02   3.7591600e-01
   4.7090350e+02   3.9057500e-01
   4.7138560e+02   2.6253700e-01
   4.7186770e+02   1.1222300e-01
   4.7234990e+02   2.8387600e-01
   4.7283200e+02   1.0797500e-01
   4.7331410e+02   2.9411500e-01
   4.7379620e+02   4.9089300e-01
   4.7427830e+02   4.5923200e-01
   4.7476040e+02   3.9107200e-01
   4.7524260e+02   4.0743300e-01
   4.7572470e+02   4.8932800e-01
   4.7620680e+02   5.1050300e-01
   4.7668890e+02   4.5429800e-01
   4.7717100e+02   3.9629200e-01
   4.7765310e+02   4.0411200e-01
   4.7813530e+02   4.5852900e-01
   4.7861740e+02   5.0968400e-01
   4.7909950e+02   5.2018200e-01
   4.7958160e+02   5.4469600e-01
   4.8006370e+02   6.7631600e-01
   4.8054580e+02   8.8406200e-01
   4.8102800e+02   1.0505150e+00
   4.8151010e+02   1.1100850e+00
   4.8199220e+02   1.0999750e+00
   4.8247430e+02   1.0353110e+00
   4.8295640e+02   9.0511400e-01
   4.8343850e+02   7.8876700e-01
   4.8392070e+02   7.2017600e-01
   4.8440280e+02   6.8183500e-01
   4.8488490e+02   6.5580900e-01
   4.8536700e+02   6.4130300e-01
   4.8584910e+02   6.3616600e-01
   4.8633120e+02   6.4610600e-01
   4.8681340e+02   6.6738500e-01
   4.8729550e+02   6.8253600e-01
   4.8777760e+02   7.1503400e-01
   4.8825970e+02   7.1220100e-01
   4.8874180e+02   6.3287900e-01
   4.8922390e+02   4.4060400e-01
   4.8970610e+02   3.5301600e-01
   4.9018820e+02   3.9430200e-01
   4.9067030e+02   5.0626200e-01
   4.9115240e+02   6.4846300e-01
   4.9163450e+02   8.3411500e-01
   4.9211660e+02   9.4560900e-01
   4.9259880e+02   9.4223100e-01
   4.9308090e+02   8.6723100e-01
   4.9356300e+02   8.1957800e-01
   4.9404510e+02   7.9935900e-01
   4.9452720e+02   8.2340000e-01
   4.9500930e+02   9.3101800e-01
   4.9549150e+02   1.0861930e+00
   4.9597360e+02   1.2172740e+00
   4.9645570e+02   1.3213450e+00
   4.9693780e+02   1.3834640e+00
   4.9741990e+02   1.3505130e+00
   4.9790200e+02   1.2689210e+00
   4.9838420e+02   1.2193260e+00
   4.9886630e+02   1.2599210e+00
   4.9934840e+02   1.3161030e+00
   4.9983050e+02   1.3433400e+00
   5.0031260e+02   1.3436620e+00
   5.0079470e+02   1.3322770e+00
   5.0127690e+02   1.2650040e+00
   5.0175900e+02   1.2293100e+00
   5.0224110e+02   1.2832350e+00
   5.0272320e+02   1.4466590e+00
   5.0320530e+02   1.5841970e+00
   5.0368740e+02   1.6601700e+00
   5.0416960e+02   1.7125000e+00
   5.0465170e+02   1.7648260e+00
   5.0513380e+02   1.8055760e+00
   5.0561590e+02   1.8627770e+00
   5.0609800e+02   1.9676580e+00
   5.0658010e+02   2.0862010e+00
   5.0706230e+02   2.1226170e+00
   5.0754440e+02   2.0444830e+00
   5.0802650e+02   1.9794790e+00
   5.0850860e+02   1.9616370e+00
   5.0899070e+02   1.9927290e+00
   5.0947280e+02   2.1303330e+00
   5.0995500e+02   2.3862260e+00
   5.1043710e+02   2.5980000e+00
   5.1091920e+02   2.5437800e+00
   5.1140130e+02   2.3193130e+00
   5.1188340e+02   2.2938250e+00
   5.1236550e+02   2.5646740e+00
   5.1284770e+02   2.8995710e+00
   5.1332980e+02   3.0099530e+00
   5.1381190e+02   2.9812990e+00
   5.1429400e+02   3.0031680e+00
   5.1477610e+02   3.2295460e+00
   5.1525820e+02   3.4468230e+00
   5.1574040e+02   3.4700980e+00
   5.1622250e+02   3.3276240e+00
   5.1670460e+02   3.2231000e+00
   5.1718670e+02   3.2456120e+00
   5.1766880e+02   3.3532710e+00
   5.1815090e+02   3.5225780e+00
   5.1863310e+02   3.7801210e+00
   5.1911520e+02   3.9845810e+00
   5.1959730e+02   4.0871390e+00
   5.2007940e+02   4.1430030e+00
   5.2056150e+02   4.2211490e+00
   5.2104360e+02   4.3651650e+00
   5.2152580e+02   4.4755890e+00
   5.2200790e+02   4.5161970e+00
   5.2249000e+02   4.5003040e+00
   5.2297210e+02   4.5119740e+00
   5.2345420e+02   4.5578670e+00
   5.2393630e+02   4.6268770e+00
   5.2441850e+02   4.6874240e+00
   5.2490060e+02   4.7377030e+00
   5.2538270e+02   4.9431530e+00
   5.2586480e+02   5.3372570e+00
   5.2634690e+02   5.7320080e+00
   5.2682900e+02   5.9093090e+00
   5.2731120e+02   5.9187320e+00
   5.2779330e+02   5.9282140e+00
   5.2827540e+02   5.9539090e+00
   5.2875750e+02   6.0249430e+00
   5.2923960e+02   6.2339120e+00
   5.2972170e+02   6.5190070e+00
   5.3020390e+02   6.7290530e+00
   5.3068600e+02   6.8153150e+00
   5.3116810e+02   6.8043960e+00
   5.3165020e+02   6.6025280e+00
   5.3213230e+02   6.2167040e+00
   5.3261440e+02   6.0551650e+00
   5.3309660e+02   6.4893120e+00
   5.3357870e+02   7.0672070e+00
   5.3406080e+02   7.4823140e+00
   5.3454290e+02   7.6747910e+00
   5.3502500e+02   7.7196740e+00
   5.3550710e+02   7.5222500e+00
   5.3598930e+02   7.2149940e+00
   5.3647140e+02   6.9953190e+00
   5.3695350e+02   6.9286900e+00
   5.3743560e+02   6.8239410e+00
   5.3791770e+02   6.6043110e+00
   5.3839980e+02   6.3065340e+00
   5.3888200e+02   6.2005850e+00
   5.3936410e+02   6.3305840e+00
   5.3984620e+02   6.4536060e+00
   5.4032830e+02   6.3818590e+00
   5.4081040e+02   6.1514850e+00
   5.4129250e+02   6.0426060e+00
   5.4177470e+02   6.0857850e+00
   5.4225680e+02   6.1275670e+00
   5.4273890e+02   5.9276690e+00
   5.4322100e+02   5.5997410e+00
   5.4370310e+02   5.4303420e+00
   5.4418520e+02   5.6032680e+00
   5.4466740e+02   5.7938120e+00
   5.4514950e+02   5.6596430e+00
   5.4563160e+02   5.3066460e+00
   5.4611370e+02   4.9990950e+00
   5.4659580e+02   4.8598580e+00
   5.4707790e+02   4.7947400e+00
   5.4756010e+02   4.8097230e+00
   5.4804220e+02   4.9074670e+00
   5.4852430e+02   4.8647810e+00
   5.4900640e+02   4.4405990e+00
   5.4948850e+02   3.9993130e+00
   5.4997060e+02   3.7771790e+00
   5.5045280e+02   3.9608330e+00
   5.5093490e+02   4.0081600e+00
   5.5141700e+02   3.8494380e+00
   5.5189910e+02   3.6100520e+00
   5.5238120e+02   3.4887290e+00
   5.5286330e+02   3.5267830e+00
   5.5334550e+02   3.5099020e+00
   5.5382760e+02   3.3691200e+00
   5.5430970e+02   3.1477650e+00
   5.5479180e+02   3.0132680e+00
   5.5527390e+02   2.9676640e+00
   5.5575600e+02   2.8534250e+00
   5.5623820e+02   2.4534620e+00
   5.5672030e+02   1.9393380e+00
   5.5720240e+02   1.7392220e+00
   5.5768450e+02   1.8799070e+00
   5.5816660e+02   2.0525050e+00
   5.5864870e+02   1.9791190e+00
   5.5913090e+02   1.7934210e+00
   5.5961300e+02   1.6723230e+00
   5.6009510e+02   1.6978260e+00
   5.6057720e+02   1.7174890e+00
   5.6105930e+02   1.6128010e+00
   5.6154140e+02   1.4596530e+00
   5.6202360e+02   1.3932140e+00
   5.6250570e+02   1.5576010e+00
   5.6298780e+02   1.6952140e+00
   5.6346990e+02   1.7372060e+00
   5.6395200e+02   1.6885650e+00
   5.6443410e+02   1.6018890e+00
   5.6491630e+02   1.4777570e+00
   5.6539840e+02   1.3131980e+00
   5.6588050e+02   1.0723920e+00
   5.6636260e+02   7.1378700e-01
   5.6684470e+02   5.6456100e-01
   5.6732680e+02   6.8323500e-01
   5.6780900e+02   8.4248400e-01
   5.6829110e+02   7.3505000e-01
   5.6877320e+02   3.9858600e-01
   5.6925530e+02   1.9889500e-01
   5.6973740e+02   2.5833900e-01
   5.7021950e+02   3.8339500e-01
   5.7070170e+02   2.4964400e-01
   5.7118380e+02   5.7455000e-02
   5.7166590e+02   2.6526400e-01
   5.7214800e+02   1.4903700e-01
   5.7263010e+02   5.4423001e-02
   5.7311220e+02   1.7470800e-01
   5.7359440e+02   2.0981600e-01
   5.7407650e+02   1.7145200e-01
   5.7455860e+02   5.9762001e-02
   5.7504070e+02   2.7017800e-01
   5.7552280e+02   3.1349800e-01
   5.7600490e+02   9.3659997e-02
   5.7648710e+02   7.2929002e-02
   5.7696920e+02   1.6856500e-01
   5.7745130e+02   1.9693700e-01
   5.7793340e+02   1.4831400e-01
   5.7841550e+02   3.3020001e-02
   5.7889760e+02   1.5328100e-01
   5.7937980e+02   1.6844900e-01
   5.7986190e+02   1.2657000e-01
   5.8034400e+02   1.4891500e-01
   5.8082610e+02   2.4080500e-01
   5.8130820e+02   3.2772700e-01
   5.8179030e+02   3.8842300e-01
   5.8227250e+02   4.1789100e-01
   5.8275460e+02   3.7092100e-01
   5.8323670e+02   2.5548900e-01
   5.8371880e+02   1.7909800e-01
   5.8420090e+02   2.7579600e-01
   5.8468300e+02   4.3662600e-01
   5.8516520e+02   5.1043200e-01
   5.8564730e+02   4.6673200e-01
   5.8612940e+02   4.1365500e-01
   5.8661150e+02   4.5710900e-01
   5.8709360e+02   5.0594900e-01
   5.8757570e+02   4.6350800e-01
   5.8805780e+02   1.6242700e-01
   5.8853990e+02   6.3049003e-02
   5.8902200e+02   1.1042200e-01
   5.8950420e+02   4.3382999e-02
   5.8998630e+02   1.3918000e-02
   5.9046840e+02   5.8118999e-02
   5.9095050e+02   8.0426998e-02
   5.9143260e+02   4.7022000e-02
   5.9191470e+02   3.3363000e-02
   5.9239690e+02   8.8499002e-02
   5.9287900e+02   1.2148300e-01
   5.9336110e+02   1.1584500e-01
   5.9384320e+02   3.9811999e-02
   5.9432530e+02   8.9979000e-02
   5.9480740e+02   2.0163900e-01
   5.9528960e+02   2.9570400e-01
   5.9577170e+02   3.3929100e-01
   5.9625380e+02   2.2079500e-01
   5.9673590e+02   4.4605002e-02
   5.9721800e+02   2.6175000e-02
   5.9770010e+02   3.1750900e-01
   5.9818230e+02   5.6600000e-01
   5.9866440e+02   4.3425600e-01
   5.9914650e+02   1.1552400e-01
   5.9962860e+02   5.8993999e-02
   6.0011070e+02   1.5234600e-01
   6.0059280e+02   3.8522300e-01
   6.0107500e+02   5.3179600e-01
   6.0155710e+02   5.9755500e-01
   6.0203920e+02   6.6712600e-01
   6.0252130e+02   7.2596400e-01
   6.0300340e+02   8.1345600e-01
   6.0348550e+02   9.8452900e-01
   6.0396770e+02   1.2612090e+00
   6.0444980e+02   1.2693610e+00
   6.0493190e+02   9.2258100e-01
   6.0541400e+02   5.7626700e-01
   6.0589610e+02   6.0775200e-01
   6.0637820e+02   9.5890800e-01
   6.0686040e+02   1.2528720e+00
   6.0734250e+02   1.4499190e+00
   6.0782460e+02   1.5594180e+00
   6.0830670e+02   1.5076600e+00
   6.0878880e+02   1.3804700e+00
   6.0927090e+02   1.3687820e+00
   6.0975310e+02   1.6381210e+00
   6.1023520e+02   1.9299890e+00
   6.1071730e+02   2.0596120e+00
   6.1119940e+02   2.0775990e+00
   6.1168150e+02   2.1233430e+00
   6.1216360e+02   2.2904210e+00
   6.1264580e+02   2.4474300e+00
   6.1312790e+02   2.5293140e+00
   6.1361000e+02   2.5298400e+00
   6.1409210e+02   2.5876030e+00
   6.1457420e+02   2.7482830e+00
   6.1505630e+02   2.9073280e+00
   6.1553850e+02   2.9988990e+00
   6.1602060e+02   3.0056000e+00
   6.1650270e+02   3.0423600e+00
   6.1698480e+02   3.0985200e+00
   6.1746690e+02   3.2161770e+00
   6.1794900e+02   3.5021100e+00
   6.1843120e+02   3.9112150e+00
   6.1891330e+02   4.1920530e+00
   6.1939540e+02   4.2721230e+00
   6.1987750e+02   4.2735020e+00
   6.2035960e+02   4.3007870e+00
   6.2084170e+02   4.3634870e+00
   6.2132390e+02   4.4807870e+00
   6.2180600e+02   4.7293150e+00
   6.2228810e+02   4.9738030e+00
   6.2277020e+02   5.0889930e+00
   6.2325230e+02   5.1211220e+00
   6.2373440e+02   5.2615810e+00
   6.2421660e+02   5.6464440e+00
   6.2469870e+02   6.0691600e+00
   6.2518080e+02   6.4660210e+00
   6.2566290e+02   6.8419490e+00
   6.2614500e+02   7.1227870e+00
   6.2662710e+02   7.2534730e+00
   6.2710930e+02   7.3825610e+00
   6.2759140e+02   7.6220930e+00
   6.2807350e+02   7.9802890e+00
   6.2855560e+02   8.3332630e+00
   6.2903770e+02   8.6685240e+00
   6.2951980e+02   8.9706970e+00
   6.3000200e+02   9.2404710e+00
   6.3048410e+02   9.4892310e+00
   6.3096620e+02   9.7228180e+00
   6.3144830e+02   9.9224740e+00
   6.3193040e+02   1.0149430e+01
   6.3241250e+02   1.0490790e+01
   6.3289470e+02   1.0888640e+01
   6.3337680e+02   1.1249850e+01
   6.3385890e+02   1.1427660e+01
   6.3434100e+02   1.1685480e+01
   6.3482310e+02   1.2212220e+01
   6.3530520e+02   1.2945300e+01
   6.3578740e+02   1.3506900e+01
   6.3626950e+02   1.3644430e+01
   6.3675160e+02   1.3824750e+01
   6.3723370e+02   1.4195190e+01
   6.3771580e+02   1.4765160e+01
   6.3819790e+02   1.5495950e+01
   6.3868010e+02   1.6460280e+01
   6.3916220e+02   1.7372730e+01
   6.3964430e+02   1.7970330e+01
   6.4012640e+02   1.8286830e+01
   6.4060850e+02   1.8642200e+01
   6.4109060e+02   1.9054110e+01
   6.4157280e+02   1.9552370e+01
   6.4205490e+02   2.0203070e+01
   6.4253700e+02   2.0945650e+01
   6.4301910e+02   2.1691000e+01
   6.4350120e+02   2.2412560e+01
   6.4398330e+02   2.3156490e+01
   6.4446550e+02   2.4067040e+01
   6.4494760e+02   2.4992900e+01
   6.4542970e+02   2.5719370e+01
   6.4591180e+02   2.5827130e+01
   6.4639390e+02   2.6134380e+01
   6.4687600e+02   2.6970400e+01
   6.4735820e+02   2.8185470e+01
   6.4784030e+02   2.9180070e+01
   6.4832240e+02   2.9861800e+01
   6.4880450e+02   3.0531170e+01
   6.4928660e+02   3.1320230e+01
   6.4976870e+02   3.2212810e+01
   6.5025090e+02   3.2999660e+01
   6.5073300e+02   3.3684850e+01
   6.5121510e+02   3.4299210e+01
   6.5169720e+02   3.4754480e+01
   6.5217930e+02   3.5177980e+01
   6.5266140e+02   3.5909770e+01
   6.5314360e+02   3.6987220e+01
   6.5362570e+02   3.8088840e+01
   6.5410780e+02   3.8921400e+01
   6.5458990e+02   3.9647540e+01
   6.5507200e+02   4.0481600e+01
   6.5555410e+02   4.1610350e+01
   6.5603630e+02   4.2546200e+01
   6.5651840e+02   4.2935730e+01
   6.5700050e+02   4.3115910e+01
   6.5748260e+02   4.3543230e+01
   6.5796470e+02   4.4492560e+01
   6.5844680e+02   4.5239910e+01
   6.5892900e+02   4.5621470e+01
   6.5941110e+02   4.5795620e+01
   6.5989320e+02   4.6160610e+01
   6.6037530e+02   4.6739860e+01
   6.6085740e+02   4.7321450e+01
   6.6133950e+02   4.7901250e+01
   6.6182170e+02   4.8382810e+01
   6.6230380e+02   4.8418580e+01
   6.6278590e+02   4.8072270e+01
   6.6326800e+02   4.7785050e+01
   6.6375010e+02   4.7960620e+01
   6.6423220e+02   4.8245510e+01
   6.6471440e+02   4.8318480e+01
   6.6519650e+02   4.8162620e+01
   6.6567860e+02   4.7858120e+01
   6.6616070e+02   4.7197370e+01
   6.6664280e+02   4.6578250e+01
   6.6712490e+02   4.6311610e+01
   6.6760710e+02   4.6699270e+01
   6.6808920e+02   4.6662630e+01
   6.6857130e+02   4.5985330e+01
   6.6905340e+02   4.5120830e+01
   6.6953550e+02   4.4511050e+01
   6.7001760e+02   4.4217720e+01
   6.7049980e+02   4.3699050e+01
   6.7098190e+02   4.2843420e+01
   6.7146400e+02   4.1911150e+01
   6.7194610e+02   4.1299790e+01
   6.7242820e+02   4.0948200e+01
   6.7291030e+02   4.0599360e+01
   6.7339250e+02   4.0270530e+01
   6.7387460e+02   3.9755310e+01
   6.7435670e+02   3.8628930e+01
   6.7483880e+02   3.7171740e+01
   6.7532090e+02   3.5988950e+01
   6.7580300e+02   3.5616380e+01
   6.7628520e+02   3.5290880e+01
   6.7676730e+02   3.4711440e+01
   6.7724940e+02   3.3904960e+01
   6.7773150e+02   3.3102340e+01
   6.7821360e+02   3.2197010e+01
   6.7869570e+02   3.1464460e+01
   6.7917790e+02   3.1139060e+01
   6.7966000e+02   3.1179940e+01
   6.8014210e+02   3.0523250e+01
   6.8062420e+02   2.9035430e+01
   6.8110630e+02   2.7571440e+01
   6.8158840e+02   2.6834750e+01
   6.8207060e+02   2.6582890e+01
   6.8255270e+02   2.5999090e+01
   6.8303480e+02   2.5025200e+01
   6.8351690e+02   2.4069680e+01
   6.8399900e+02   2.3482740e+01
   6.8448110e+02   2.3066390e+01
   6.8496330e+02   2.2583040e+01
   6.8544540e+02   2.1966570e+01
   6.8592750e+02   2.1360890e+01
   6.8640960e+02   2.0847480e+01
   6.8689170e+02   2.0345230e+01
   6.8737380e+02   1.9754130e+01
   6.8785600e+02   1.8950700e+01
   6.8833810e+02   1.8293510e+01
   6.8882020e+02   1.7842670e+01
   6.8930230e+02   1.7500770e+01
   6.8978440e+02   1.7116050e+01
   6.9026650e+02   1.6683110e+01
   6.9074870e+02   1.6233590e+01
   6.9123080e+02   1.5754080e+01
   6.9171290e+02   1.5291230e+01
   6.9219500e+02   1.4969080e+01
   6.9267710e+02   1.4736560e+01
   6.9315920e+02   1.4408280e+01
   6.9364140e+02   1.3802520e+01
   6.9412350e+02   1.3154280e+01
   6.9460560e+02   1.2636720e+01
   6.9508770e+02   1.2232950e+01
   6.9556980e+02   1.1851910e+01
   6.9605190e+02   1.1461610e+01
   6.9653410e+02   1.1107890e+01
   6.9701620e+02   1.0854680e+01
   6.9749830e+02   1.0699150e+01
   6.9798040e+02   1.0344520e+01
   6.9846250e+02   9.6620120e+00
   6.9894460e+02   9.0163630e+00
   6.9942680e+02   8.6804390e+00
   6.9990890e+02   8.6391640e+00
   7.0039100e+02   8.4960920e+00
   7.0087310e+02   8.2487050e+00
   7.0135520e+02   7.9790860e+00
   7.0183730e+02   7.7599580e+00
   7.0231950e+02   7.5728520e+00
   7.0280160e+02   7.4025080e+00
   7.0328370e+02   7.2580740e+00
   7.0376580e+02   7.0856090e+00
   7.0424790e+02   6.8641030e+00
   7.0473000e+02   6.5850260e+00
   7.0521220e+02   6.2333260e+00
   7.0569430e+02   5.6832450e+00
   7.0617640e+02   5.2843520e+00
   7.0665850e+02   5.1302270e+00
   7.0714060e+02   5.0803200e+00
   7.0762270e+02   4.9736420e+00
   7.0810490e+02   4.8022440e+00
   7.0858700e+02   4.6037190e+00
   7.0906910e+02   4.3649610e+00
   7.0955120e+02   4.1204460e+00
   7.1003330e+02   3.9678130e+00
   7.1051540e+02   3.8922580e+00
   7.1099760e+02   3.7978370e+00
   7.1147970e+02   3.6260370e+00
   7.1196180e+02   3.4520140e+00
   7.1244390e+02   3.3756820e+00
   7.1292600e+02   3.3608890e+00
   7.1340810e+02   3.3163850e+00
   7.1389030e+02   3.2544760e+00
   7.1437240e+02   3.1067220e+00
   7.1485450e+02   2.7644100e+00
   7.1533660e+02   2.2790910e+00
   7.1581870e+02   1.9768830e+00
   7.1630080e+02   1.9214850e+00
   7.1678300e+02   1.9394440e+00
   7.1726510e+02   2.0096910e+00
   7.1774720e+02   2.1176580e+00
   7.1822930e+02   2.0856110e+00
   7.1871140e+02   1.8922410e+00
   7.1919350e+02   1.7022710e+00
   7.1967570e+02   1.6760000e+00
   7.2015780e+02   1.7316220e+00
   7.2063990e+02   1.6993670e+00
   7.2112200e+02   1.5785670e+00
   7.2160410e+02   1.4537870e+00
   7.2208620e+02   1.3657640e+00
   7.2256840e+02   1.3093590e+00
   7.2305050e+02   1.3088300e+00
   7.2353260e+02   1.4021220e+00
   7.2401470e+02   1.3694110e+00
   7.2449680e+02   1.0068590e+00
   7.2497890e+02   6.5555000e-01
   7.2546110e+02   5.5507900e-01
   7.2594320e+02   8.0768400e-01
   7.2642530e+02   9.1176900e-01
   7.2690740e+02   8.3685200e-01
   7.2738950e+02   6.9126400e-01
   7.2787160e+02   5.6455800e-01
   7.2835380e+02   4.6333300e-01
   7.2883590e+02   4.4122300e-01
   7.2931800e+02   5.2706900e-01
   7.2980010e+02   5.9136900e-01
   7.3028220e+02   4.9118300e-01
   7.3076430e+02   3.0715900e-01
   7.3124650e+02   1.4418300e-01
   7.3172860e+02   1.9160000e-03
   7.3221070e+02   6.9977000e-02
   7.3269280e+02   2.6250999e-02
   7.3317490e+02   1.8415000e-01
   7.3365700e+02   2.4411800e-01
   7.3413920e+02   1.3519700e-01
   7.3462130e+02   1.0008000e-01
   7.3510340e+02   2.1245000e-01
   7.3558550e+02   3.6395400e-01
   7.3606760e+02   2.9506400e-01
   7.3654970e+02   2.3879999e-02
   7.3703190e+02   1.6770100e-01
   7.3751400e+02   1.5722700e-01
   7.3799610e+02   5.8529999e-02
   7.3847820e+02   2.6829999e-03
   7.3896030e+02   3.3860002e-02
   7.3944240e+02   5.3986002e-02
   7.3992460e+02   9.4366997e-02
   7.4040670e+02   1.0329500e-01
   7.4088880e+02   3.3135001e-02
   7.4137090e+02   9.4912998e-02
   7.4185300e+02   1.8485200e-01
   7.4233510e+02   2.1889400e-01
   7.4281730e+02   2.3605900e-01
   7.4329940e+02   2.5154200e-01
   7.4378150e+02   2.5969300e-01
   7.4426360e+02   2.1137000e-01
   7.4474570e+02   1.0008300e-01
   7.4522780e+02   2.2453999e-02
   7.4571000e+02   7.7420004e-02
   7.4619210e+02   1.8686500e-01
   7.4667420e+02   1.8637400e-01
   7.4715630e+02   9.0527996e-02
   7.4763840e+02   3.1199999e-04
   7.4812050e+02   7.3230001e-03
   7.4860270e+02   2.9380000e-03
   7.4908480e+02   6.5397002e-02
   7.4956690e+02   2.0414200e-01
   7.5004900e+02   2.1967600e-01
   7.5053110e+02   2.7236000e-02
   7.5101320e+02   2.7376400e-01
   7.5149540e+02   4.0719000e-01
   7.5197750e+02   4.2292000e-01
   7.5245960e+02   3.7526700e-01
   7.5294170e+02   2.4748900e-01
   7.5342380e+02   1.3794200e-01
   7.5390590e+02   1.4658400e-01
   7.5438810e+02   2.2863200e-01
   7.5487020e+02   2.8698500e-01
   7.5535230e+02   3.1449600e-01
   7.5583440e+02   2.7485400e-01
   7.5631650e+02   1.2412000e-02
   7.5679860e+02   2.5028400e-01
   7.5728080e+02   2.7958800e-01
   7.5776290e+02   4.9376000e-02
   7.5824500e+02   2.6709400e-01
   7.5872710e+02   2.3733500e-01
   7.5920920e+02   1.2227900e-01
   7.5969130e+02   1.2967000e-02
   7.6017350e+02   1.0876300e-01
   7.6065560e+02   1.2844600e-01
   7.6113770e+02   1.5430000e-02
   7.6161980e+02   1.1382100e-01
   7.6210190e+02   1.0956900e-01
   7.6258400e+02   1.4804000e-02
   7.6306620e+02   2.7641000e-02
   7.6354830e+02   1.3564000e-02
   7.6403040e+02   6.5834001e-02
   7.6451250e+02   6.8428002e-02
   7.6499460e+02   4.7162998e-02
   7.6547670e+02   3.4897000e-02
   7.6595890e+02   7.5696997e-02
   7.6644100e+02   6.0017999e-02
   7.6692310e+02   9.3177997e-02
   7.6740520e+02   2.7236400e-01
   7.6788730e+02   3.5366800e-01
   7.6836940e+02   3.0202200e-01
   7.6885160e+02   2.9089600e-01
   7.6933370e+02   3.4950200e-01
   7.6981580e+02   4.2920900e-01
   7.7029790e+02   4.6035800e-01
   7.7078000e+02   4.5168700e-01
   7.7126210e+02   4.3481300e-01
   7.7174430e+02   4.1906600e-01
   7.7222640e+02   3.9495500e-01
   7.7270850e+02   3.3541300e-01
   7.7319060e+02   2.6774500e-01
   7.7367270e+02   2.3265000e-01
   7.7415480e+02   3.2262900e-01
   7.7463700e+02   3.4336300e-01
   7.7511910e+02   1.6895100e-01
   7.7560120e+02   5.0120998e-02
   7.7608330e+02   4.8742998e-02
   7.7656540e+02   2.4436800e-01
   7.7704750e+02   4.5381700e-01
   7.7752970e+02   4.9299900e-01
   7.7801180e+02   4.4818800e-01
   7.7849390e+02   4.6541000e-01
   7.7897600e+02   5.3146600e-01
   7.7945810e+02   6.0161000e-01
   7.7994020e+02   6.8773200e-01
   7.8042240e+02   7.2959500e-01
   7.8090450e+02   6.1820800e-01
   7.8138660e+02   4.3671200e-01
   7.8186870e+02   3.4264500e-01
   7.8235080e+02   4.8500500e-01
   7.8283290e+02   5.8878400e-01
   7.8331510e+02   5.6710000e-01
   7.8379720e+02   4.8734300e-01
   7.8427930e+02   5.2239400e-01
   7.8476140e+02   7.0725300e-01
   7.8524350e+02   8.0467300e-01
   7.8572560e+02   7.1386900e-01
   7.8620770e+02   5.4756600e-01
   7.8668980e+02   5.5269700e-01
   7.8717190e+02   6.8557200e-01
   7.8765410e+02   7.8674400e-01
   7.8813620e+02   7.7685400e-01
   7.8861830e+02   7.2077600e-01
   7.8910040e+02   6.1926700e-01
   7.8958250e+02   5.0489400e-01
   7.9006460e+02   4.6195400e-01
   7.9054680e+02   6.1642700e-01
   7.9102890e+02   7.1175100e-01
   7.9151100e+02   6.5511500e-01
   7.9199310e+02   5.1788200e-01
   7.9247520e+02   5.5564100e-01
   7.9295730e+02   7.9645700e-01
   7.9343950e+02   9.5197300e-01
   7.9392160e+02   8.7646700e-01
   7.9440370e+02   7.0374600e-01
   7.9488580e+02   6.9200700e-01
   7.9536790e+02   8.0299100e-01
   7.9585000e+02   9.0538700e-01
   7.9633220e+02   9.3552200e-01
   7.9681430e+02   9.3314900e-01
   7.9729640e+02   9.0000700e-01
   7.9777850e+02   8.4952100e-01
   7.9826060e+02   8.3008400e-01
   7.9874270e+02   8.6259800e-01
   7.9922490e+02   8.9843500e-01
   7.9970700e+02   9.2485000e-01
   8.0018910e+02   9.4750400e-01
   8.0067120e+02   9.9689400e-01
   8.0115330e+02   1.0740000e+00
   8.0163540e+02   1.0905890e+00
   8.0211760e+02   9.7789500e-01
   8.0259970e+02   8.2478500e-01
   8.0308180e+02   7.3309000e-01
   8.0356390e+02   6.9590000e-01
   8.0404600e+02   7.0575000e-01
   8.0452810e+02   8.4137100e-01
   8.0501030e+02   9.5993500e-01
   8.0549240e+02   9.8639900e-01
   8.0597450e+02   9.3286600e-01
   8.0645660e+02   8.8510100e-01
   8.0693870e+02   8.2712600e-01
   8.0742080e+02   8.1767400e-01
   8.0790300e+02   8.9302400e-01
   8.0838510e+02   1.0118350e+00
   8.0886720e+02   1.0526180e+00
   8.0934930e+02   1.0248950e+00
   8.0983140e+02   9.5845500e-01
   8.1031350e+02   8.2812200e-01
   8.1079570e+02   7.1008600e-01
   8.1127780e+02   6.6959700e-01
   8.1175990e+02   6.9235100e-01
   8.1224200e+02   7.5445000e-01
   8.1272410e+02   9.8252200e-01
   8.1320620e+02   1.1036220e+00
   8.1368840e+02   9.4554100e-01
   8.1417050e+02   6.4054700e-01
   8.1465260e+02   5.7788800e-01
   8.1513470e+02   8.2131100e-01
   8.1561680e+02   1.0043640e+00
   8.1609890e+02   1.0112620e+00
   8.1658110e+02   9.0427800e-01
   8.1706320e+02   7.1402800e-01
   8.1754530e+02   4.8590800e-01
   8.1802740e+02   4.0745200e-01
   8.1850950e+02   7.6221100e-01
   8.1899160e+02   1.0971290e+00
   8.1947380e+02   1.0436090e+00
   8.1995590e+02   7.4494300e-01
   8.2043800e+02   5.6912400e-01
   8.2092010e+02   7.1956900e-01
   8.2140220e+02   8.1206900e-01
   8.2188430e+02   7.5855400e-01
   8.2236650e+02   6.2076600e-01
   8.2284860e+02   5.4142900e-01
   8.2333070e+02   5.2061300e-01
   8.2381280e+02   5.6139300e-01
   8.2429490e+02   7.0715100e-01
   8.2477700e+02   8.7132400e-01
   8.2525920e+02   9.1104100e-01
   8.2574130e+02   8.5198200e-01
   8.2622340e+02   7.6531200e-01
   8.2670550e+02   6.1332800e-01
   8.2718760e+02   5.1544300e-01
   8.2766970e+02   5.4802100e-01
   8.2815190e+02   6.6200700e-01
   8.2863400e+02   7.4175000e-01
   8.2911610e+02   7.7082400e-01
   8.2959820e+02   8.0233100e-01
   8.3008030e+02   8.4870900e-01
   8.3056240e+02   8.9774400e-01
   8.3104460e+02   9.2329500e-01
   8.3152670e+02   9.2977400e-01
   8.3200880e+02   9.4807700e-01
   8.3249090e+02   1.0121520e+00
   8.3297300e+02   1.0360110e+00
   8.3345510e+02   8.7183900e-01
   8.3393730e+02   6.3923500e-01
   8.3441940e+02   5.2642700e-01
   8.3490150e+02   6.7923700e-01
   8.3538360e+02   8.0111100e-01
   8.3586570e+02   8.6037300e-01
   8.3634780e+02   8.6761300e-01
   8.3683000e+02   8.1660900e-01
   8.3731210e+02   6.9525300e-01
   8.3779420e+02   6.3879800e-01
   8.3827630e+02   6.7613700e-01
   8.3875840e+02   7.6682600e-01
   8.3924050e+02   8.9470600e-01
   8.3972270e+02   1.0263060e+00
   8.4020480e+02   1.0894800e+00
   8.4068690e+02   1.0282230e+00
   8.4116900e+02   9.7065800e-01
   8.4165110e+02   9.7439900e-01
   8.4213320e+02   1.0170250e+00
   8.4261540e+02   1.0707130e+00
   8.4309750e+02   1.1225150e+00
   8.4357960e+02   1.2237960e+00
   8.4406170e+02   1.4268850e+00
   8.4454380e+02   1.5837960e+00
   8.4502590e+02   1.4572040e+00
   8.4550810e+02   1.1086440e+00
   8.4599020e+02   8.2616200e-01
   8.4647230e+02   6.4229000e-01
   8.4695440e+02   5.9636700e-01
   8.4743650e+02   8.4981400e-01
   8.4791860e+02   1.1946320e+00
   8.4840080e+02   1.4047000e+00
   8.4888290e+02   1.4146920e+00
   8.4936500e+02   1.3478380e+00
   8.4984710e+02   1.1389840e+00
   8.5032920e+02   9.4450700e-01
   8.5081130e+02   9.0070500e-01
   8.5129350e+02   1.0302930e+00
   8.5177560e+02   1.0858340e+00
   8.5225770e+02   1.0521420e+00
   8.5273980e+02   9.9689100e-01
   8.5322190e+02   9.8284700e-01
   8.5370400e+02   9.8773600e-01
   8.5418620e+02   9.6505500e-01
   8.5466830e+02   9.0778200e-01
   8.5515040e+02   8.8042500e-01
   8.5563250e+02   9.4853000e-01
   8.5611460e+02   1.0256230e+00
   8.5659670e+02   1.0496820e+00
   8.5707890e+02   1.0115640e+00
   8.5756100e+02   1.0107710e+00
   8.5804310e+02   1.0611250e+00
   8.5852520e+02   1.1074330e+00
   8.5900730e+02   1.1029560e+00
   8.5948940e+02   1.0657640e+00
   8.5997160e+02   1.0530480e+00
   8.6045370e+02   1.0636260e+00
   8.6093580e+02   1.0958600e+00
   8.6141790e+02   1.2041750e+00
   8.6190000e+02   1.2878130e+00
   8.6238210e+02   1.2446760e+00
   8.6286430e+02   1.0812890e+00
   8.6334640e+02   1.0036220e+00
   8.6382850e+02   1.0994780e+00
   8.6431060e+02   1.1399380e+00
   8.6479270e+02   1.0068500e+00
   8.6527480e+02   7.6707600e-01
   8.6575700e+02   7.2252000e-01
   8.6623910e+02   8.5216200e-01
   8.6672120e+02   9.8862400e-01
   8.6720330e+02   1.0719670e+00
   8.6768540e+02   1.0945030e+00
   8.6816750e+02   9.8530600e-01
   8.6864970e+02   8.0445200e-01
   8.6913180e+02   7.2819800e-01
   8.6961390e+02   9.7516300e-01
   8.7009600e+02   1.1381000e+00
   8.7057810e+02   1.0791660e+00
   8.7106020e+02   8.8710000e-01
   8.7154240e+02   7.7634500e-01
   8.7202450e+02   7.5274900e-01
   8.7250660e+02   7.5856800e-01
   8.7298870e+02   7.9263100e-01
   8.7347080e+02   5.3774900e-01
   8.7395290e+02   8.9284700e-01
   8.7443510e+02   1.0883470e+00
   8.7491720e+02   1.1357050e+00
   8.7539930e+02   5.9295400e-01
   8.7588140e+02   8.1270300e-01
   8.7636350e+02   7.2741800e-01
   8.7684560e+02   6.2946800e-01
   8.7732780e+02   9.5685100e-01
   8.7780990e+02   5.0049000e-01
   8.7829200e+02   8.2103800e-01
   8.7877410e+02   8.3089100e-01
   8.7925620e+02   9.8253300e-01
   8.7973830e+02   8.2678300e-01
   8.8022050e+02   7.6648000e-01
   8.8070260e+02   1.0138170e+00
   8.8118470e+02   1.0903860e+00
   8.8166680e+02   8.9940600e-01
   8.8214890e+02   1.0603200e+00
   8.8263100e+02   5.9314200e-01
   8.8311320e+02   6.7809200e-01
   8.8359530e+02   1.0011400e+00
   8.8407740e+02   8.2822100e-01
   8.8455950e+02   1.0005770e+00
   8.8504160e+02   1.0440710e+00
   8.8552370e+02   4.9112900e-01
   8.8600590e+02   9.6541800e-01
   8.8648800e+02   9.9418600e-01
   8.8697010e+02   5.6568200e-01
   8.8745220e+02   1.0041440e+00
   8.8793430e+02   6.3841900e-01
   8.8841640e+02   5.5968300e-01
   8.8889860e+02   6.9692400e-01
   8.8938070e+02   6.0900600e-01
   8.8986280e+02   8.7606800e-01
   8.9034490e+02   8.0113100e-01
   8.9082700e+02   6.9564600e-01
   8.9130910e+02   7.2356300e-01
   8.9179130e+02   8.2243100e-01
   8.9227340e+02   8.8393400e-01
   8.9275550e+02   8.5208300e-01
   8.9323760e+02   7.9649200e-01
   8.9371970e+02   7.3757000e-01
   8.9420180e+02   6.8445600e-01
   8.9468400e+02   6.2429900e-01
   8.9516610e+02   5.7479400e-01
   8.9564820e+02   5.8582300e-01
   8.9613030e+02   8.0996600e-01
   8.9661240e+02   9.3066000e-01
   8.9709450e+02   8.2806900e-01
   8.9757670e+02   6.1180700e-01
   8.9805880e+02   4.9934400e-01
   8.9854090e+02   4.9261000e-01
   8.9902300e+02   4.9717800e-01
   8.9950510e+02   4.9776800e-01
   8.9998720e+02   4.8356400e-01
   9.0046940e+02   4.2357000e-01
   9.0095150e+02   3.4389900e-01
   9.0143360e+02   2.8811800e-01
   9.0191570e+02   2.8091900e-01
   9.0239780e+02   2.7430100e-01
   9.0287990e+02   2.4765300e-01
   9.0336210e+02   2.2215500e-01
   9.0384420e+02   2.2096400e-01
   9.0432630e+02   2.5948400e-01
   9.0480840e+02   2.5365000e-01
   9.0529050e+02   1.8388600e-01
   9.0577260e+02   1.4404900e-01
   9.0625480e+02   3.0651700e-01
   9.0673690e+02   5.2227100e-01
   9.0721900e+02   5.0744600e-01
   9.0770110e+02   2.2754400e-01
   9.0818320e+02   1.8162001e-02
   9.0866530e+02   9.0034001e-02
   9.0914750e+02   9.0935998e-02
   9.0962960e+02   7.9506002e-02
   9.1011170e+02   5.6745999e-02
   9.1059380e+02   2.7274000e-02
   9.1107590e+02   1.9436700e-01
   9.1155800e+02   3.0379100e-01
   9.1204020e+02   2.2282900e-01
   9.1252230e+02   6.0982000e-02
   9.1300440e+02   5.9144001e-02
   9.1348650e+02   1.7732800e-01
   9.1396860e+02   2.6965000e-01
   9.1445070e+02   2.5879200e-01
   9.1493290e+02   2.1538900e-01
   9.1541500e+02   1.5061600e-01
   9.1589710e+02   7.6940998e-02
   9.1637920e+02   1.9185999e-02
   9.1686130e+02   2.7253000e-02
   9.1734340e+02   3.0291000e-02
   9.1782560e+02   3.5112001e-02
   9.1830770e+02   1.1817200e-01
   9.1878980e+02   1.6053000e-01
   9.1927190e+02   1.6736400e-01
   9.1975400e+02   1.2997300e-01
   9.2023610e+02   1.0474000e-02
   9.2071830e+02   6.7970000e-02
   9.2120040e+02   1.7659999e-02
   9.2168250e+02   1.3326500e-01
   9.2216460e+02   1.2702900e-01
   9.2264670e+02   9.1729999e-02
   9.2312880e+02   1.2417300e-01
   9.2361100e+02   7.4321002e-02
   9.2409310e+02   2.8633800e-01
   9.2457520e+02   2.9842500e-01
   9.2505730e+02   1.9049900e-01
   9.2553940e+02   1.2201600e-01
   9.2602150e+02   1.0493600e-01
   9.2650370e+02   1.0687200e-01
   9.2698580e+02   7.8337997e-02
   9.2746790e+02   9.0632997e-02
   9.2795000e+02   2.4820600e-01
   9.2843210e+02   5.2899600e-01
   9.2891420e+02   5.9343600e-01
   9.2939640e+02   3.8730900e-01
   9.2987850e+02   1.6181000e-01
   9.3036060e+02   4.2000000e-04
   9.3084270e+02   8.8873997e-02
   9.3132480e+02   3.6653999e-02
   9.3180690e+02   1.1186900e-01
   9.3228910e+02   2.0780800e-01
   9.3277120e+02   1.2924300e-01
   9.3325330e+02   4.4307001e-02
   9.3373540e+02   2.1318000e-02
   9.3421750e+02   3.9071001e-02
   9.3469960e+02   5.0294001e-02
   9.3518180e+02   4.2677000e-02
   9.3566390e+02   8.3809003e-02
   9.3614600e+02   2.0270200e-01
   9.3662810e+02   3.1593700e-01
   9.3711020e+02   2.7028700e-01
   9.3759230e+02   1.4398800e-01
   9.3807450e+02   1.2859700e-01
   9.3855660e+02   2.9090100e-01
   9.3903870e+02   4.0098700e-01
   9.3952080e+02   2.8798900e-01
   9.4000290e+02   1.2141200e-01
   9.4048500e+02   2.7448000e-02
   9.4096720e+02   1.7569000e-02
   9.4144930e+02   8.5899998e-03
   9.4193140e+02   6.0612001e-02
   9.4241350e+02   8.2961001e-02
   9.4289560e+02   1.1911000e-02
   9.4337770e+02   1.0466600e-01
   9.4385990e+02   1.7267000e-01
   9.4434200e+02   1.9834900e-01
   9.4482410e+02   2.2237800e-01
   9.4530620e+02   2.8247200e-01
   9.4578830e+02   3.2455600e-01
   9.4627040e+02   3.0580800e-01
   9.4675260e+02   2.5534000e-01
   9.4723470e+02   2.6614300e-01
   9.4771680e+02   3.5757600e-01
   9.4819890e+02   3.7617100e-01
   9.4868100e+02   2.6271500e-01
   9.4916310e+02   1.0543600e-01
   9.4964530e+02   1.3102000e-02
   9.5012740e+02   2.6102999e-02
   9.5060950e+02   3.0401999e-02
   9.5109160e+02   6.4920001e-03
   9.5157370e+02   5.1346999e-02
   9.5205580e+02   1.4061700e-01
   9.5253800e+02   1.9739500e-01
   9.5302010e+02   1.2707800e-01
   9.5350220e+02   1.0940500e-01
   9.5398430e+02   1.3794600e-01
   9.5446640e+02   6.6416003e-02
   9.5494850e+02   2.8573100e-01
   9.5543070e+02   3.4451200e-01
   9.5591280e+02   3.1016300e-01
   9.5639490e+02   2.3576500e-01
   9.5687700e+02   1.3455000e-01
   9.5735910e+02   9.4981998e-02
   9.5784120e+02   2.4540100e-01
   9.5832340e+02   3.4455400e-01
   9.5880550e+02   2.8489700e-01
   9.5928760e+02   1.2715700e-01
   9.5976970e+02   1.3812600e-01
   9.6025180e+02   3.1249000e-01
   9.6073390e+02   3.7617900e-01
   9.6121610e+02   1.6083600e-01
   9.6169820e+02   8.0045998e-02
   9.6218030e+02   5.0423000e-02
   9.6266240e+02   1.2887400e-01
   9.6314450e+02   2.6844100e-01
   9.6362660e+02   3.0557400e-01
   9.6410880e+02   3.1824500e-01
   9.6459090e+02   3.0379800e-01
   9.6507300e+02   2.7716700e-01
   9.6555510e+02   2.5042400e-01
   9.6603720e+02   2.2296300e-01
   9.6651930e+02   1.9105800e-01
   9.6700150e+02   1.5831600e-01
   9.6748360e+02   1.5719200e-01
   9.6796570e+02   2.5026200e-01
   9.6844780e+02   3.5932700e-01
   9.6892990e+02   4.2568400e-01
   9.6941200e+02   4.4234500e-01
   9.6989420e+02   4.0297100e-01
   9.7037630e+02   2.7349200e-01
   9.7085840e+02   1.6237200e-01
   9.7134050e+02   1.1205900e-01
   9.7182260e+02   1.0247900e-01
   9.7230470e+02   7.2067000e-02
   9.7278690e+02   3.1177999e-02
   9.7326900e+02   2.4643000e-02
   9.7375110e+02   1.1748700e-01
   9.7423320e+02   1.8129900e-01
   9.7471530e+02   6.4129002e-02
   9.7519740e+02   8.9628004e-02
   9.7567960e+02   5.6632999e-02
   9.7616170e+02   2.8845500e-01
   9.7664380e+02   4.6053000e-01
   9.7712590e+02   4.1030700e-01
   9.7760800e+02   2.7660600e-01
   9.7809010e+02   1.7904400e-01
   9.7857230e+02   1.0609600e-01
   9.7905440e+02   5.1568002e-02
   9.7953650e+02   1.0852000e-02
   9.8001860e+02   2.9367000e-02
   9.8050070e+02   1.4852800e-01
   9.8098280e+02   1.9947500e-01
   9.8146500e+02   6.1491001e-02
   9.8194710e+02   2.1753000e-01
   9.8242910e+02   3.7665900e-01
   9.8291130e+02   4.1090900e-01
   9.8339340e+02   3.6945900e-01
   9.8387550e+02   2.2986600e-01
   9.8435760e+02   8.7254003e-02
   9.8483970e+02   7.2907999e-02
   9.8532180e+02   1.4624200e-01
   9.8580400e+02   2.3404300e-01
   9.8628610e+02   3.9555900e-01
   9.8676820e+02   4.3807200e-01
   9.8725030e+02   2.5366400e-01
   9.8773240e+02   4.2555001e-02
   9.8821450e+02   4.1683000e-02
   9.8869670e+02   2.3171500e-01
   9.8917880e+02   3.2003200e-01
   9.8966090e+02   2.8619100e-01
   9.9014300e+02   2.0943400e-01
   9.9062510e+02   1.1235900e-01
   9.9110720e+02   3.2889999e-02
   9.9158940e+02   1.3539000e-02
   9.9207150e+02   5.5054002e-02
   9.9255360e+02   8.8074997e-02
   9.9303570e+02   1.0130200e-01
   9.9351780e+02   1.1607400e-01
   9.9399990e+02   1.2525700e-01
   9.9448210e+02   1.5476400e-01
   9.9496420e+02   3.2886100e-01
   9.9544630e+02   5.8441300e-01
   9.9592840e+02   6.9782000e-01
   9.9641050e+02   4.9853400e-01
   9.9689260e+02   3.1464800e-01
   9.9737480e+02   3.3928700e-01
   9.9785690e+02   4.5906700e-01
   9.9833900e+02   5.5346600e-01
   9.9882110e+02   6.3919700e-01
   9.9930320e+02   6.1513900e-01
   9.9978530e+02   4.5970700e-01
   1.0002670e+03   2.9441700e-01
   1.0007500e+03   2.3466100e-01
   1.0012320e+03   2.3337000e-01
   1.0017140e+03   2.1194300e-01
   1.0021960e+03   1.7361400e-01
   1.0026780e+03   1.7405000e-01
   1.0031600e+03   3.1120300e-01
   1.0036420e+03   3.9827400e-01
   1.0041240e+03   3.6617900e-01
   1.0046070e+03   2.5357300e-01
   1.0050890e+03   1.3810200e-01
   1.0055710e+03   2.4673000e-02
   1.0060530e+03   3.6378998e-02
   1.0065350e+03   2.4726200e-01
   1.0070170e+03   4.6281200e-01
   1.0074990e+03   4.7302900e-01
   1.0079810e+03   3.9508700e-01
   1.0084630e+03   3.7661600e-01
   1.0089460e+03   4.9708800e-01
   1.0094280e+03   5.3761700e-01
   1.0099100e+03   4.6446600e-01
   1.0103920e+03   3.7572100e-01
   1.0108740e+03   3.2653900e-01
   1.0113560e+03   3.0924000e-01
   1.0118380e+03   3.8199200e-01
   1.0123200e+03   5.2903300e-01
   1.0128020e+03   5.8633800e-01
   1.0132850e+03   3.4504400e-01
   1.0137670e+03   1.2139700e-01
   1.0142490e+03   9.6832000e-02
   1.0147310e+03   1.9408900e-01
   1.0152130e+03   2.5383800e-01
   1.0156950e+03   2.7008300e-01
   1.0161770e+03   2.9392700e-01
   1.0166590e+03   3.3840100e-01
   1.0171420e+03   3.7424200e-01
   1.0176240e+03   3.4521400e-01
   1.0181060e+03   2.9585900e-01
   1.0185880e+03   2.9298000e-01
   1.0190700e+03   3.5553600e-01
   1.0195520e+03   4.0176500e-01
   1.0200340e+03   4.3987000e-01
   1.0205160e+03   4.4723800e-01
   1.0209980e+03   3.7859900e-01
   1.0214810e+03   2.6489200e-01
   1.0219630e+03   3.0282400e-01
   1.0224450e+03   4.7067100e-01
   1.0229270e+03   6.1892800e-01
   1.0234090e+03   6.8610100e-01
   1.0238910e+03   6.9477200e-01
   1.0243730e+03   6.0259900e-01
   1.0248550e+03   4.7918700e-01
   1.0253380e+03   4.6238700e-01
   1.0258200e+03   6.4370700e-01
   1.0263020e+03   6.6396600e-01
   1.0267840e+03   4.6129800e-01
   1.0272660e+03   2.3355200e-01
   1.0277480e+03   2.0808100e-01
   1.0282300e+03   2.9612400e-01
   1.0287120e+03   3.3577000e-01
   1.0291940e+03   3.1489500e-01
   1.0296770e+03   2.8457500e-01
   1.0301590e+03   2.4393700e-01
   1.0306410e+03   2.2182800e-01
   1.0311230e+03   2.2480700e-01
   1.0316050e+03   2.5420900e-01
   1.0320870e+03   3.3318000e-01
   1.0325690e+03   4.5757000e-01
   1.0330510e+03   5.2062700e-01
   1.0335340e+03   4.8536000e-01
   1.0340160e+03   4.3476700e-01
   1.0344980e+03   4.2897600e-01
   1.0349800e+03   4.4875700e-01
   1.0354620e+03   4.7113900e-01
   1.0359440e+03   4.8873800e-01
   1.0364260e+03   5.2669500e-01
   1.0369080e+03   5.9716600e-01
   1.0373910e+03   6.5426300e-01
   1.0378730e+03   6.4888800e-01
   1.0383550e+03   6.0229300e-01
   1.0388370e+03   6.0069300e-01
   1.0393190e+03   6.4036800e-01
   1.0398010e+03   6.4654000e-01
   1.0402830e+03   5.3389200e-01
   1.0407650e+03   4.3427600e-01
   1.0412470e+03   3.5844500e-01
   1.0417290e+03   3.3844900e-01
   1.0422120e+03   4.9422400e-01
   1.0426940e+03   8.3088800e-01
   1.0431760e+03   8.7898300e-01
   1.0436580e+03   5.3351100e-01
   1.0441400e+03   1.9311500e-01
   1.0446220e+03   2.7634900e-01
   1.0451040e+03   4.9984600e-01
   1.0455860e+03   5.8974900e-01
   1.0460690e+03   5.0863600e-01
   1.0465510e+03   4.3142600e-01
   1.0470330e+03   3.4564400e-01
   1.0475150e+03   3.1706100e-01
   1.0479970e+03   3.9155000e-01
   1.0484790e+03   5.1532700e-01
   1.0489610e+03   5.8133700e-01
   1.0494430e+03   5.9998900e-01
   1.0499260e+03   5.9399800e-01
   1.0504080e+03   5.3840600e-01
   1.0508900e+03   5.1759700e-01
   1.0513720e+03   6.3737600e-01
   1.0518540e+03   7.4255400e-01
   1.0523360e+03   6.8005800e-01
   1.0528180e+03   4.3459200e-01
   1.0533000e+03   3.3844500e-01
   1.0537820e+03   3.9555400e-01
   1.0542650e+03   4.5611900e-01
   1.0547470e+03   3.7995800e-01
   1.0552290e+03   2.9017800e-01
   1.0557110e+03   2.9754100e-01
   1.0561930e+03   3.8095000e-01
   1.0566750e+03   4.5602200e-01
   1.0571570e+03   5.4284000e-01
   1.0576390e+03   5.5339700e-01
   1.0581210e+03   4.5020700e-01
   1.0586040e+03   3.1224100e-01
   1.0590860e+03   2.3409700e-01
   1.0595680e+03   2.1603400e-01
   1.0600500e+03   2.8283500e-01
   1.0605320e+03   4.4998600e-01
   1.0610140e+03   5.5916000e-01
   1.0614960e+03   5.5137300e-01
   1.0619780e+03   4.5673300e-01
   1.0624610e+03   2.3453300e-01
   1.0629430e+03   5.5697002e-02
   1.0634250e+03   8.7511003e-02
   1.0639070e+03   1.0997000e-01
   1.0643890e+03   2.3852100e-01
   1.0648710e+03   1.1337200e-01
   1.0653530e+03   1.1306000e-02
   1.0658350e+03   2.3584800e-01
   1.0663180e+03   5.6090500e-01
   1.0668000e+03   6.7996400e-01
   1.0672820e+03   4.8720100e-01
   1.0677640e+03   4.1566600e-01
   1.0682460e+03   4.8769600e-01
   1.0687280e+03   5.7791100e-01
   1.0692100e+03   6.1833300e-01
   1.0696920e+03   6.0036000e-01
   1.0701740e+03   4.6354600e-01
   1.0706560e+03   2.4799000e-01
   1.0711390e+03   1.0600000e-01
   1.0716210e+03   1.4180900e-01
   1.0721030e+03   1.8660400e-01
   1.0725850e+03   2.1431700e-01
   1.0730670e+03   2.3608900e-01
   1.0735490e+03   2.7650100e-01
   1.0740310e+03   3.2705400e-01
   1.0745130e+03   3.5013900e-01
   1.0749960e+03   3.3949900e-01
   1.0754780e+03   3.2225500e-01
   1.0759600e+03   2.9269400e-01
   1.0764420e+03   2.8386800e-01
   1.0769240e+03   3.4008000e-01
   1.0774060e+03   4.4165900e-01
   1.0778880e+03   4.4959200e-01
   1.0783700e+03   3.5675400e-01
   1.0788530e+03   3.2062000e-01
   1.0793350e+03   4.3394800e-01
   1.0798170e+03   5.3522400e-01
   1.0802990e+03   3.8069400e-01
   1.0807810e+03   1.3164600e-01
   1.0812630e+03   1.2384000e-02
   1.0817450e+03   1.2834800e-01
   1.0822270e+03   1.9812700e-01
   1.0827090e+03   2.0620500e-01
   1.0831920e+03   2.0465800e-01
   1.0836740e+03   2.4014500e-01
   1.0841560e+03   2.8596300e-01
   1.0846380e+03   2.5765500e-01
   1.0851200e+03   1.8228100e-01
   1.0856020e+03   1.3554800e-01
   1.0860840e+03   1.7989900e-01
   1.0865660e+03   2.0860800e-01
   1.0870480e+03   1.6720800e-01
   1.0875310e+03   1.3045300e-01
   1.0880130e+03   2.3163100e-01
   1.0884950e+03   4.4535900e-01
   1.0889770e+03   4.2541100e-01
   1.0894590e+03   1.4931900e-01
   1.0899410e+03   8.1501998e-02
   1.0904230e+03   4.1609998e-03
   1.0909050e+03   1.4464300e-01
   1.0913870e+03   2.2291900e-01
   1.0918700e+03   2.3935700e-01
   1.0923520e+03   2.4978600e-01
   1.0928340e+03   2.5281600e-01
   1.0933160e+03   2.6131000e-01
   1.0937980e+03   2.8369200e-01
   1.0942800e+03   2.9245300e-01
   1.0947620e+03   2.2551300e-01
   1.0952440e+03   1.4175400e-01
   1.0957270e+03   1.2281400e-01
   1.0962090e+03   1.9578600e-01
   1.0966910e+03   2.3540600e-01
   1.0971730e+03   2.0969200e-01
   1.0976550e+03   2.0772300e-01
   1.0981370e+03   2.9041500e-01
   1.0986190e+03   4.0285200e-01
   1.0991010e+03   4.0378400e-01
   1.0995830e+03   3.2893700e-01
   1.1000660e+03   2.6833700e-01
   1.1005480e+03   2.5456900e-01
   1.1010300e+03   2.5672400e-01
   1.1015120e+03   2.8509200e-01
   1.1019940e+03   3.0756100e-01
   1.1024760e+03   2.9149100e-01
   1.1029580e+03   2.4212400e-01
   1.1034400e+03   2.4587500e-01
   1.1039220e+03   3.0075500e-01
   1.1044050e+03   3.3577100e-01
   1.1048870e+03   2.5572300e-01
   1.1053690e+03   1.9867100e-01
   1.1058510e+03   2.8479500e-01
   1.1063330e+03   4.3194700e-01
   1.1068150e+03   4.7855400e-01
   1.1072970e+03   4.1086000e-01
   1.1077790e+03   3.2441400e-01
   1.1082620e+03   2.1883800e-01
   1.1087440e+03   1.7111900e-01
   1.1092260e+03   3.4040900e-01
   1.1097080e+03   5.3666000e-01
   1.1101900e+03   5.5810700e-01
   1.1106720e+03   4.0583700e-01
   1.1111540e+03   2.5481100e-01
   1.1116360e+03   9.2767000e-02
   1.1121190e+03   1.6620999e-02
   1.1126010e+03   5.8352001e-02
   1.1130830e+03   1.3075000e-01
   1.1135650e+03   1.0624600e-01
   1.1140470e+03   2.6272999e-02
   1.1145290e+03   4.2552002e-02
   1.1150110e+03   9.2490003e-02
   1.1154930e+03   8.8780001e-02
   1.1159750e+03   5.8920002e-03
   1.1164580e+03   1.0501400e-01
   1.1169400e+03   2.4270200e-01
   1.1174220e+03   3.8247800e-01
   1.1179040e+03   4.3744800e-01
   1.1183860e+03   4.2603100e-01
   1.1188680e+03   4.1210500e-01
   1.1193500e+03   4.2178800e-01
   1.1198320e+03   4.0741700e-01
   1.1203140e+03   3.3772200e-01
   1.1207970e+03   2.5045800e-01
   1.1212790e+03   1.6716700e-01
   1.1217610e+03   9.1061004e-02
   1.1222430e+03   5.1002000e-02
   1.1227250e+03   4.6546001e-02
   1.1232070e+03   7.1327999e-02
   1.1236890e+03   1.6281700e-01
   1.1241710e+03   2.3924000e-01
   1.1246540e+03   2.0695700e-01
   1.1251360e+03   1.3955500e-01
   1.1256180e+03   1.8812200e-01
   1.1261000e+03   4.0648600e-01
   1.1265820e+03   4.3338000e-01
   1.1270640e+03   2.2610300e-01
   1.1275460e+03   2.3827000e-02
   1.1280280e+03   6.3776001e-02
   1.1285100e+03   1.9027700e-01
   1.1289930e+03   2.5015900e-01
   1.1294750e+03   2.4828900e-01
   1.1299570e+03   2.6180600e-01
   1.1304390e+03   3.1264600e-01
   1.1309210e+03   3.2425400e-01
   1.1314030e+03   2.6314300e-01
   1.1318850e+03   2.2160500e-01
   1.1323670e+03   4.0499200e-01
   1.1328490e+03   6.4706700e-01
   1.1333320e+03   6.4739200e-01
   1.1338140e+03   3.6609500e-01
   1.1342960e+03   1.9391400e-01
   1.1347780e+03   2.8287500e-01
   1.1352600e+03   3.6931900e-01
   1.1357420e+03   3.7192900e-01
   1.1362240e+03   3.2934900e-01
   1.1367060e+03   3.2343000e-01
   1.1371890e+03   3.3985000e-01
   1.1376710e+03   3.3834400e-01
   1.1381530e+03   3.0363700e-01
   1.1386350e+03   2.7530300e-01
   1.1391170e+03   2.6246500e-01
   1.1395990e+03   2.6974900e-01
   1.1400810e+03   3.2365800e-01
   1.1405630e+03   3.9643500e-01
   1.1410460e+03   3.3051900e-01
   1.1415280e+03   1.5340400e-01
   1.1420100e+03   5.1200000e-04
   1.1424920e+03   7.3610999e-02
   1.1429740e+03   1.0032300e-01
   1.1434560e+03   1.0385100e-01
   1.1439380e+03   5.3266998e-02
   1.1444200e+03   1.0948400e-01
   1.1449020e+03   3.9656200e-01
   1.1453850e+03   4.5919100e-01
   1.1458670e+03   3.0685900e-01
   1.1463490e+03   1.3879500e-01
   1.1468310e+03   5.5208001e-02
   1.1473130e+03   2.2577999e-02
   1.1477950e+03   5.3543001e-02
   1.1482770e+03   1.0925300e-01
   1.1487590e+03   1.0482400e-01
   1.1492410e+03   1.1498000e-02
   1.1497240e+03   2.7594000e-02
   1.1502060e+03   1.7170800e-01
   1.1506880e+03   3.0670400e-01
   1.1511700e+03   2.8671700e-01
   1.1516520e+03   2.2951700e-01
   1.1521340e+03   2.7196600e-01
   1.1526160e+03   3.7342500e-01
   1.1530980e+03   3.5298700e-01
   1.1535810e+03   1.3184000e-01
   1.1540630e+03   5.0395999e-02
   1.1545450e+03   1.8153300e-01
   1.1550270e+03   3.5178200e-01
   1.1555090e+03   3.4833100e-01
   1.1559910e+03   2.5321500e-01
   1.1564730e+03   1.5193800e-01
   1.1569550e+03   6.0291000e-02
   1.1574380e+03   1.0468200e-01
   1.1579200e+03   4.0788300e-01
   1.1584020e+03   5.5116800e-01
   1.1588840e+03   3.9830700e-01
   1.1593660e+03   1.3347400e-01
   1.1598480e+03   2.7276000e-02
   1.1603300e+03   8.3200000e-02
   1.1608120e+03   1.3707000e-02
   1.1612940e+03   2.9634600e-01
   1.1617760e+03   4.3651200e-01
   1.1622590e+03   2.6067500e-01
   1.1627410e+03   1.4271800e-01
   1.1632230e+03   2.3993800e-01
   1.1637050e+03   4.4249900e-01
   1.1641870e+03   5.2789900e-01
   1.1646690e+03   5.1890000e-01
   1.1651510e+03   4.4835400e-01
   1.1656330e+03   2.7327200e-01
   1.1661160e+03   2.2695900e-01
   1.1665980e+03   4.7956600e-01
   1.1670800e+03   7.3283800e-01
   1.1675620e+03   8.7404600e-01
   1.1680440e+03   8.8971500e-01
   1.1685260e+03   6.3629800e-01
   1.1690080e+03   2.0423500e-01
   1.1694900e+03   8.4536001e-02
   1.1699730e+03   5.2097000e-02
   1.1704550e+03   1.5263000e-02
   1.1709370e+03   3.9880001e-03
   1.1714190e+03   4.7499998e-03
   1.1719010e+03   1.5255700e-01
   1.1723830e+03   4.0725900e-01
   1.1728650e+03   5.2989100e-01
   1.1733470e+03   5.3340900e-01
   1.1738290e+03   4.9044200e-01
   1.1743120e+03   4.1316500e-01
   1.1747940e+03   3.1513600e-01
   1.1752760e+03   1.6099700e-01
   1.1757580e+03   1.8741000e-02
   1.1762400e+03   4.7672000e-02
   1.1767220e+03   3.8895998e-02
   1.1772040e+03   2.7938001e-02
   1.1776860e+03   1.4600200e-01
   1.1781680e+03   2.4627000e-01
   1.1786510e+03   2.3994500e-01
   1.1791330e+03   2.5329200e-01
   1.1796150e+03   4.1600700e-01
   1.1800970e+03   6.0434300e-01
   1.1805790e+03   6.1924600e-01
   1.1810610e+03   4.5768500e-01
   1.1815430e+03   3.6276200e-01
   1.1820250e+03   3.5096100e-01
   1.1825080e+03   3.4356500e-01
   1.1829900e+03   2.5046800e-01
   1.1834720e+03   1.7497800e-01
   1.1839540e+03   2.1137000e-01
   1.1844360e+03   3.0940100e-01
   1.1849180e+03   3.5895300e-01
   1.1854000e+03   3.5774500e-01
   1.1858820e+03   3.4192000e-01
   1.1863650e+03   3.1543900e-01
   1.1868470e+03   2.8217200e-01
   1.1873290e+03   2.2442800e-01
   1.1878110e+03   1.7899900e-01
   1.1882930e+03   1.7351200e-01
   1.1887750e+03   2.0633200e-01
   1.1892570e+03   2.9238700e-01
   1.1897390e+03   4.4336100e-01
   1.1902210e+03   4.7167300e-01
   1.1907030e+03   3.2169300e-01
   1.1911860e+03   1.5214700e-01
   1.1916680e+03   9.9288002e-02
   1.1921500e+03   1.0697600e-01
   1.1926320e+03   1.3786500e-01
   1.1931140e+03   1.8674300e-01
   1.1935960e+03   2.3860300e-01
   1.1940780e+03   2.9323100e-01
   1.1945600e+03   3.5493900e-01
   1.1950430e+03   4.2829300e-01
   1.1955250e+03   4.9432900e-01
   1.1960070e+03   5.3936900e-01
   1.1964890e+03   5.6302500e-01
   1.1969710e+03   5.5906000e-01
   1.1974530e+03   5.2793500e-01
   1.1979350e+03   5.1854700e-01
   1.1984170e+03   5.4197500e-01
   1.1989000e+03   4.7312700e-01
   1.1993820e+03   2.1943200e-01
   1.1998640e+03   2.1833999e-02
   1.2003460e+03   1.5167000e-02
   1.2008280e+03   1.0007200e-01
   1.2013100e+03   1.6188000e-01
   1.2017920e+03   1.5232200e-01
   1.2022740e+03   1.6621600e-01
   1.2027560e+03   1.9802700e-01
   1.2032390e+03   2.6668500e-01
   1.2037210e+03   4.1434200e-01
   1.2042030e+03   5.4241400e-01
   1.2046850e+03   5.0795800e-01
   1.2051670e+03   4.0463500e-01
   1.2056490e+03   3.6137300e-01
   1.2061310e+03   4.0892800e-01
   1.2066130e+03   4.1660100e-01
   1.2070950e+03   3.7697200e-01
   1.2075780e+03   3.6072700e-01
   1.2080600e+03   4.4141800e-01
   1.2085420e+03   5.1680900e-01
   1.2090240e+03   4.2293400e-01
   1.2095060e+03   2.6993600e-01
   1.2099880e+03   2.5759100e-01
   1.2104700e+03   4.7788900e-01
   1.2109520e+03   4.8187400e-01
   1.2114350e+03   2.4241400e-01
   1.2119170e+03   7.1769999e-03
   1.2123990e+03   1.0671200e-01
   1.2128810e+03   1.0351100e-01
   1.2133630e+03   1.2471100e-01
   1.2138450e+03   4.3001200e-01
   1.2143270e+03   5.2788200e-01
   1.2148090e+03   3.2776000e-01
   1.2152920e+03   1.8333000e-01
   1.2157740e+03   9.5340997e-02
   1.2162560e+03   8.8917002e-02
   1.2167380e+03   2.9134100e-01
   1.2172200e+03   4.8648000e-01
   1.2177020e+03   4.1745300e-01
   1.2181840e+03   1.9460200e-01
   1.2186660e+03   6.4824998e-02
   1.2191480e+03   4.6914998e-02
   1.2196300e+03   7.3445000e-02
   1.2201130e+03   1.4482400e-01
   1.2205950e+03   2.3210100e-01
   1.2210770e+03   3.7158100e-01
   1.2215590e+03   4.6297500e-01
   1.2220410e+03   3.5074900e-01
   1.2225230e+03   1.3282100e-01
   1.2230050e+03   5.7438001e-02
   1.2234870e+03   1.6717100e-01
   1.2239700e+03   2.3923300e-01
   1.2244520e+03   2.5633800e-01
   1.2249340e+03   2.6588200e-01
   1.2254160e+03   3.3543800e-01
   1.2258980e+03   3.8782700e-01
   1.2263800e+03   3.3009100e-01
   1.2268620e+03   2.0555800e-01
   1.2273440e+03   1.3045400e-01
   1.2278270e+03   1.1933100e-01
   1.2283090e+03   1.6169800e-01
   1.2287910e+03   2.5666700e-01
   1.2292730e+03   3.2649800e-01
   1.2297550e+03   2.6345300e-01
   1.2302370e+03   1.8866600e-01
   1.2307190e+03   2.0036400e-01
   1.2312010e+03   2.8274000e-01
   1.2316830e+03   3.8764500e-01
   1.2321660e+03   5.2091400e-01
   1.2326480e+03   5.0754200e-01
   1.2331300e+03   3.1946900e-01
   1.2336120e+03   1.3820700e-01
   1.2340940e+03   1.0354800e-01
   1.2345760e+03   1.3763900e-01
   1.2350580e+03   2.3084400e-01
   1.2355400e+03   3.3565700e-01
   1.2360220e+03   3.3099300e-01
   1.2365050e+03   2.1378800e-01
   1.2369870e+03   1.6555100e-01
   1.2374690e+03   2.1285800e-01
   1.2379510e+03   2.7416900e-01
   1.2384330e+03   2.8692800e-01
   1.2389150e+03   2.9283100e-01
   1.2393970e+03   3.1837400e-01
   1.2398790e+03   3.5703700e-01
   1.2403620e+03   4.0419100e-01
   1.2408440e+03   4.5695100e-01
   1.2413260e+03   4.6630000e-01
   1.2418080e+03   4.2273200e-01
   1.2422900e+03   3.7640900e-01
   1.2427720e+03   3.4323200e-01
   1.2432540e+03   3.3992100e-01
   1.2437360e+03   3.9650300e-01
   1.2442190e+03   4.7456600e-01
   1.2447010e+03   4.6565700e-01
   1.2451830e+03   3.8844900e-01
   1.2456650e+03   3.9300800e-01
   1.2461470e+03   5.1337300e-01
   1.2466290e+03   5.6294300e-01
   1.2471110e+03   3.0386800e-01
   1.2475930e+03   1.0599000e-01
   1.2480750e+03   1.5707900e-01
   1.2485570e+03   3.4409500e-01
   1.2490400e+03   4.0161400e-01
   1.2495220e+03   3.5936500e-01
   1.2500040e+03   3.1890200e-01
   1.2504860e+03   2.9516800e-01
   1.2509680e+03   3.0530000e-01
   1.2514500e+03   3.9812200e-01
   1.2519320e+03   4.7566000e-01
   1.2524140e+03   4.9749400e-01
   1.2528970e+03   4.8758100e-01
   1.2533790e+03   5.4504200e-01
   1.2538610e+03   6.2456300e-01
   1.2543430e+03   5.5796200e-01
   1.2548250e+03   3.0527500e-01
   1.2553070e+03   1.3868400e-01
   1.2557890e+03   2.1844000e-01
   1.2562710e+03   2.8985000e-01
   1.2567540e+03   2.7712400e-01
   1.2572360e+03   2.2036000e-01
   1.2577180e+03   1.7481100e-01
   1.2582000e+03   1.4733200e-01
   1.2586820e+03   1.5527700e-01
   1.2591640e+03   1.8883300e-01
   1.2596460e+03   2.3944000e-01
   1.2601280e+03   3.5293400e-01
   1.2606100e+03   3.7896200e-01
   1.2610930e+03   2.4919700e-01
   1.2615750e+03   7.3394999e-02
   1.2620570e+03   2.1515001e-02
   1.2625390e+03   4.2008001e-02
   1.2630210e+03   4.6964999e-02
   1.2635030e+03   2.6027400e-01
   1.2639850e+03   3.2224800e-01
   1.2644670e+03   1.6701200e-01
   1.2649490e+03   5.7096001e-02
   1.2654320e+03   7.8766003e-02
   1.2659140e+03   1.4128400e-01
   1.2663960e+03   1.2006200e-01
   1.2668780e+03   7.9645000e-02
   1.2673600e+03   1.1706200e-01
   1.2678420e+03   2.3990800e-01
   1.2683240e+03   2.5519500e-01
   1.2688060e+03   1.4402600e-01
   1.2692890e+03   8.2170002e-02
   1.2697710e+03   1.2704600e-01
   1.2702530e+03   2.0836300e-01
   1.2707350e+03   2.9557800e-01
   1.2712170e+03   3.5882800e-01
   1.2716990e+03   3.6247600e-01
   1.2721810e+03   3.1468400e-01
   1.2726630e+03   2.3173200e-01
   1.2731460e+03   1.1579900e-01
   1.2736280e+03   6.2533997e-02
   1.2741100e+03   1.0478100e-01
   1.2745920e+03   1.7975400e-01
   1.2750740e+03   2.9600100e-01
   1.2755560e+03   3.7118900e-01
   1.2760380e+03   3.3004800e-01
   1.2765200e+03   2.1552300e-01
   1.2770020e+03   1.9036100e-01
   1.2774840e+03   2.4469800e-01
   1.2779670e+03   3.2498900e-01
   1.2784490e+03   4.3259700e-01
   1.2789310e+03   4.7751600e-01
   1.2794130e+03   3.1404700e-01
   1.2798950e+03   1.9294700e-01
   1.2803770e+03   2.4462400e-01
   1.2808590e+03   3.9614000e-01
   1.2813410e+03   4.7059400e-01
   1.2818230e+03   4.8782100e-01
   1.2823060e+03   5.2000000e-01
   1.2827880e+03   5.9328500e-01
   1.2832700e+03   5.8855000e-01
   1.2837520e+03   4.1122200e-01
   1.2842340e+03   2.2412600e-01
   1.2847160e+03   9.6234001e-02
   1.2851980e+03   3.1578999e-02
   1.2856800e+03   9.6220002e-02
   1.2861630e+03   2.3160000e-01
   1.2866450e+03   3.4669300e-01
   1.2871270e+03   4.3324200e-01
   1.2876090e+03   3.8786700e-01
   1.2880910e+03   1.4082100e-01
   1.2885730e+03   3.4804001e-02
   1.2890550e+03   5.6921002e-02
   1.2895370e+03   2.4760000e-02
   1.2900200e+03   2.2720500e-01
   1.2905020e+03   4.4092800e-01
   1.2909840e+03   5.2071300e-01
   1.2914660e+03   4.5014700e-01
   1.2919480e+03   3.7518800e-01
   1.2924300e+03   2.8679700e-01
   1.2929120e+03   2.7649500e-01
   1.2933940e+03   3.8923500e-01
   1.2938760e+03   4.8667700e-01
   1.2943590e+03   3.8747500e-01
   1.2948410e+03   2.5635400e-01
   1.2953230e+03   2.6953300e-01
   1.2958050e+03   3.7484200e-01
   1.2962870e+03   3.5494100e-01
   1.2967690e+03   2.1832500e-01
   1.2972510e+03   1.4540600e-01
   1.2977330e+03   1.9382300e-01
   1.2982150e+03   2.5829200e-01
   1.2986980e+03   1.2877700e-01
   1.2991800e+03   4.4353999e-02
   1.2996620e+03   1.5938800e-01
   1.3001440e+03   3.6583200e-01
   1.3006260e+03   3.9493000e-01
   1.3011080e+03   2.9330300e-01
   1.3015900e+03   2.3801300e-01
   1.3020720e+03   2.6532200e-01
   1.3025550e+03   2.5768900e-01
   1.3030370e+03   1.2155900e-01
   1.3035190e+03   2.1050001e-02
   1.3040010e+03   2.6920000e-03
   1.3044830e+03   3.3555999e-02
   1.3049650e+03   2.6249999e-02
   1.3054470e+03   0.0000000e+00
   1.5000000e+03   0.0000000e+00
