   1.0000000e+02   0.0000000e+00
   1.2767430e+02   0.0000000e+00
   1.2815640e+02   2.1069030e+00
   1.2863860e+02   7.4851070e+00
   1.2912070e+02   1.3048740e+01
   1.2960280e+02   1.3295350e+01
   1.3008490e+02   2.6273320e+01
   1.3056700e+02   7.4398990e+01
   1.3104910e+02   1.4745640e+02
   1.3153130e+02   1.9408760e+02
   1.3201340e+02   2.0309560e+02
   1.3249550e+02   1.9071060e+02
   1.3297760e+02   1.9150590e+02
   1.3345970e+02   2.0604230e+02
   1.3394180e+02   2.2695800e+02
   1.3442400e+02   2.4748070e+02
   1.3490610e+02   2.6714400e+02
   1.3538820e+02   2.9590030e+02
   1.3587030e+02   3.4235460e+02
   1.3635240e+02   4.0169570e+02
   1.3683450e+02   4.3880430e+02
   1.3731670e+02   4.5295530e+02
   1.3779880e+02   4.4688170e+02
   1.3828090e+02   4.0865580e+02
   1.3876300e+02   3.1424190e+02
   1.3924510e+02   2.6687480e+02
   1.3972720e+02   3.1462060e+02
   1.4020940e+02   4.8442870e+02
   1.4069150e+02   6.1389290e+02
   1.4117360e+02   6.9490050e+02
   1.4165570e+02   7.4190060e+02
   1.4213780e+02   7.8421750e+02
   1.4261990e+02   8.0839270e+02
   1.4310210e+02   8.4440560e+02
   1.4358420e+02   9.0179550e+02
   1.4406630e+02   1.0043130e+03
   1.4454840e+02   1.1120460e+03
   1.4503050e+02   1.2352750e+03
   1.4551260e+02   1.3673650e+03
   1.4599480e+02   1.4625710e+03
   1.4647690e+02   1.5180190e+03
   1.4695900e+02   1.5401240e+03
   1.4744110e+02   1.5333130e+03
   1.4792320e+02   1.4989280e+03
   1.4840530e+02   1.4357600e+03
   1.4888750e+02   1.3354790e+03
   1.4936960e+02   1.1883930e+03
   1.4985170e+02   1.0561210e+03
   1.5033380e+02   9.3022800e+02
   1.5081590e+02   8.2766950e+02
   1.5129800e+02   7.4822530e+02
   1.5178020e+02   7.5917770e+02
   1.5226230e+02   7.4908730e+02
   1.5274440e+02   6.7547150e+02
   1.5322650e+02   4.8040950e+02
   1.5370860e+02   3.4358940e+02
   1.5419070e+02   3.2224410e+02
   1.5467290e+02   3.7376660e+02
   1.5515500e+02   4.0356320e+02
   1.5563710e+02   3.8713470e+02
   1.5611920e+02   3.4977400e+02
   1.5660130e+02   3.0407290e+02
   1.5708340e+02   2.3518040e+02
   1.5756560e+02   1.7723150e+02
   1.5804770e+02   1.4028720e+02
   1.5852980e+02   1.2233250e+02
   1.5901190e+02   1.1045460e+02
   1.5949400e+02   9.6750850e+01
   1.5997610e+02   8.9015440e+01
   1.6045830e+02   9.3927490e+01
   1.6094040e+02   1.4349930e+02
   1.6142250e+02   1.8582790e+02
   1.6190460e+02   1.9513840e+02
   1.6238670e+02   1.7314050e+02
   1.6286880e+02   1.3108650e+02
   1.6335100e+02   9.5197450e+01
   1.6383310e+02   7.2029480e+01
   1.6431520e+02   5.1578190e+01
   1.6479730e+02   4.9096560e+01
   1.6527940e+02   5.5764470e+01
   1.6576150e+02   6.8478580e+01
   1.6624370e+02   9.0162900e+01
   1.6672580e+02   1.0690480e+02
   1.6720790e+02   1.0919080e+02
   1.6769000e+02   9.9640990e+01
   1.6817210e+02   8.4755920e+01
   1.6865420e+02   5.9729610e+01
   1.6913630e+02   3.4723690e+01
   1.6961850e+02   2.0108950e+01
   1.7010060e+02   2.0271000e+01
   1.7058270e+02   2.8325130e+01
   1.7106480e+02   4.7960570e+01
   1.7154690e+02   7.5511660e+01
   1.7202900e+02   8.7972170e+01
   1.7251120e+02   4.8084230e+01
   1.7299330e+02   1.3377870e+01
   1.7347540e+02   4.8781190e+01
   1.7395750e+02   2.2641850e+01
   1.7443960e+02   2.5688480e+01
   1.7492170e+02   5.3929380e+01
   1.7540390e+02   6.2073360e+01
   1.7588600e+02   2.7900820e+01
   1.7636810e+02   6.2313350e+01
   1.7685020e+02   8.4150760e+01
   1.7733230e+02   9.0331970e+01
   1.7781440e+02   4.3985530e+01
   1.7829660e+02   6.6889770e+01
   1.7877870e+02   5.7565730e+01
   1.7926080e+02   4.6999820e+01
   1.7974290e+02   7.8571900e+01
   1.8022500e+02   3.2911380e+01
   1.8070710e+02   6.3990840e+01
   1.8118930e+02   6.4144170e+01
   1.8167140e+02   7.8373840e+01
   1.8215350e+02   6.2131230e+01
   1.8263560e+02   5.5303040e+01
   1.8311770e+02   7.8961060e+01
   1.8359980e+02   8.5741820e+01
   1.8408200e+02   6.5998840e+01
   1.8456410e+02   8.1134830e+01
   1.8504620e+02   3.3958740e+01
   1.8552830e+02   4.0795840e+01
   1.8601040e+02   7.1313960e+01
   1.8649250e+02   5.2816040e+01
   1.8697470e+02   6.8370480e+01
   1.8745680e+02   7.1132810e+01
   1.8793890e+02   1.5313660e+01
   1.8842100e+02   6.1622740e+01
   1.8890310e+02   6.3868100e+01
   1.8938520e+02   2.0858220e+01
   1.8986730e+02   6.3849300e+01
   1.9034950e+02   2.7182560e+01
   1.9083160e+02   4.9025390e+01
   1.9131370e+02   6.9519710e+01
   1.9179580e+02   7.6166380e+01
   1.9227790e+02   6.7456970e+01
   1.9276000e+02   5.0069090e+01
   1.9324220e+02   2.8762450e+01
   1.9372430e+02   3.4714970e+00
   1.9420640e+02   1.7053960e+01
   1.9468850e+02   2.5079220e+01
   1.9517060e+02   2.1339170e+01
   1.9565270e+02   3.2175230e+01
   1.9613490e+02   6.5031920e+01
   1.9661700e+02   9.9862790e+01
   1.9709910e+02   9.2211980e+01
   1.9758120e+02   3.5343690e+01
   1.9806330e+02   1.4256770e+01
   1.9854540e+02   1.4815060e+01
   1.9902760e+02   3.8553340e+01
   1.9950970e+02   5.6149110e+01
   1.9999180e+02   2.2230220e+01
   2.0047390e+02   4.3132450e+01
   2.0095600e+02   8.6589720e+01
   2.0143810e+02   1.0440610e+02
   2.0192030e+02   1.1300570e+02
   2.0240240e+02   1.2596810e+02
   2.0288450e+02   1.4640730e+02
   2.0336660e+02   1.4795500e+02
   2.0384870e+02   1.2008100e+02
   2.0433080e+02   7.0776790e+01
   2.0481300e+02   4.0652890e+01
   2.0529510e+02   3.2542300e+01
   2.0577720e+02   3.6883790e+01
   2.0625930e+02   4.9229550e+01
   2.0674140e+02   7.3638730e+01
   2.0722350e+02   8.8330810e+01
   2.0770570e+02   8.5093080e+01
   2.0818780e+02   6.5003970e+01
   2.0866990e+02   5.4396000e+01
   2.0915200e+02   5.1735170e+01
   2.0963410e+02   6.0974550e+01
   2.1011620e+02   9.2820370e+01
   2.1059830e+02   1.5981510e+02
   2.1108050e+02   2.1137020e+02
   2.1156260e+02   2.2937590e+02
   2.1204470e+02   2.0933920e+02
   2.1252680e+02   1.9529420e+02
   2.1300890e+02   1.8762520e+02
   2.1349100e+02   1.8537370e+02
   2.1397320e+02   1.8708200e+02
   2.1445530e+02   1.9260640e+02
   2.1493740e+02   2.0224010e+02
   2.1541950e+02   2.1573430e+02
   2.1590160e+02   2.3211760e+02
   2.1638370e+02   2.5565870e+02
   2.1686590e+02   2.8800750e+02
   2.1734800e+02   3.2676610e+02
   2.1783010e+02   3.6894570e+02
   2.1831220e+02   4.2204600e+02
   2.1879430e+02   4.6548540e+02
   2.1927640e+02   4.9278420e+02
   2.1975860e+02   5.0999650e+02
   2.2024070e+02   4.9245370e+02
   2.2072280e+02   4.2531120e+02
   2.2120490e+02   3.2400980e+02
   2.2168700e+02   2.4336350e+02
   2.2216910e+02   1.8681230e+02
   2.2265130e+02   1.4576700e+02
   2.2313340e+02   1.1855750e+02
   2.2361550e+02   1.1472340e+02
   2.2409760e+02   1.0147520e+02
   2.2457970e+02   6.9557980e+01
   2.2506180e+02   2.3370420e+01
   2.2554400e+02   3.9013670e+00
   2.2602610e+02   1.9248050e+00
   2.2650820e+02   6.7652590e+00
   2.2699030e+02   2.1466670e+00
   2.2747240e+02   3.4765200e+01
   2.2795450e+02   4.5377500e+01
   2.2843670e+02   8.7493290e+00
   2.2891880e+02   7.4890690e+01
   2.2940090e+02   1.2139970e+02
   2.2988300e+02   1.1541490e+02
   2.3036510e+02   8.7414670e+01
   2.3084720e+02   6.5334350e+01
   2.3132930e+02   4.9426090e+01
   2.3181150e+02   3.8137330e+01
   2.3229360e+02   2.7482060e+01
   2.3277570e+02   1.4661130e+01
   2.3325780e+02   2.2035770e+01
   2.3373990e+02   6.6746150e+01
   2.3422200e+02   1.1846930e+02
   2.3470420e+02   1.3801200e+02
   2.3518630e+02   1.0131130e+02
   2.3566840e+02   7.3914000e+01
   2.3615050e+02   8.0033330e+01
   2.3663260e+02   1.3412680e+02
   2.3711470e+02   1.5349100e+02
   2.3759690e+02   1.1260520e+02
   2.3807900e+02   5.2016170e+01
   2.3856110e+02   3.7445190e+01
   2.3904320e+02   9.3996640e+01
   2.3952530e+02   1.5767170e+02
   2.4000740e+02   2.0796620e+02
   2.4048960e+02   2.4050690e+02
   2.4097170e+02   2.7272590e+02
   2.4145380e+02   3.0693410e+02
   2.4193590e+02   3.3979940e+02
   2.4241800e+02   3.6497520e+02
   2.4290010e+02   3.8073870e+02
   2.4338230e+02   3.9126420e+02
   2.4386440e+02   3.9623560e+02
   2.4434650e+02   3.8676800e+02
   2.4482860e+02   3.9302600e+02
   2.4531070e+02   4.2210530e+02
   2.4579280e+02   4.6565720e+02
   2.4627500e+02   4.9912510e+02
   2.4675710e+02   5.2155520e+02
   2.4723920e+02   5.3579690e+02
   2.4772130e+02   5.3976590e+02
   2.4820340e+02   5.1827840e+02
   2.4868550e+02   5.2198720e+02
   2.4916770e+02   5.6231220e+02
   2.4964980e+02   6.2924210e+02
   2.5013190e+02   6.8436220e+02
   2.5061400e+02   7.2756260e+02
   2.5109610e+02   7.6055980e+02
   2.5157820e+02   7.8244180e+02
   2.5206030e+02   7.8443270e+02
   2.5254250e+02   7.9281570e+02
   2.5302460e+02   8.0868880e+02
   2.5350670e+02   8.3195550e+02
   2.5398880e+02   8.6938750e+02
   2.5447090e+02   9.3089270e+02
   2.5495300e+02   9.9521090e+02
   2.5543520e+02   1.0487890e+03
   2.5591730e+02   1.0856050e+03
   2.5639940e+02   1.1195480e+03
   2.5688150e+02   1.1546390e+03
   2.5736360e+02   1.1904300e+03
   2.5784580e+02   1.2024550e+03
   2.5832790e+02   1.1817180e+03
   2.5881000e+02   1.1478880e+03
   2.5929210e+02   1.1165020e+03
   2.5977420e+02   1.0885790e+03
   2.6025630e+02   1.0627770e+03
   2.6073850e+02   1.0431360e+03
   2.6122060e+02   1.0278690e+03
   2.6170270e+02   9.9232380e+02
   2.6218480e+02   9.3056670e+02
   2.6266690e+02   8.5760800e+02
   2.6314900e+02   7.8336710e+02
   2.6363110e+02   7.0320560e+02
   2.6411330e+02   6.3706730e+02
   2.6459540e+02   5.9210820e+02
   2.6507750e+02   5.6797450e+02
   2.6555960e+02   5.4429050e+02
   2.6604170e+02   5.2133760e+02
   2.6652380e+02   4.9870370e+02
   2.6700600e+02   4.7510080e+02
   2.6748810e+02   4.4861910e+02
   2.6797020e+02   4.2670750e+02
   2.6845230e+02   4.1082320e+02
   2.6893440e+02   4.0084000e+02
   2.6941650e+02   4.0096310e+02
   2.6989870e+02   4.1918050e+02
   2.7038080e+02   4.3425240e+02
   2.7086290e+02   4.1328960e+02
   2.7134500e+02   3.4441530e+02
   2.7182710e+02   2.9054080e+02
   2.7230920e+02   2.7698070e+02
   2.7279140e+02   3.0384340e+02
   2.7327350e+02   3.1081290e+02
   2.7375560e+02   2.9129700e+02
   2.7423770e+02   2.6369680e+02
   2.7471980e+02   2.5302940e+02
   2.7520190e+02   2.6141200e+02
   2.7568410e+02   2.7370950e+02
   2.7616620e+02   2.8391490e+02
   2.7664830e+02   2.9210350e+02
   2.7713040e+02   3.1416750e+02
   2.7761250e+02   3.5773500e+02
   2.7809460e+02   3.9961060e+02
   2.7857680e+02   3.9889810e+02
   2.7905890e+02   3.5034580e+02
   2.7954100e+02   3.0989370e+02
   2.8002310e+02   3.0467000e+02
   2.8050520e+02   3.3236070e+02
   2.8098730e+02   3.4312870e+02
   2.8146950e+02   3.3156430e+02
   2.8195160e+02   3.1517830e+02
   2.8243370e+02   3.2055400e+02
   2.8291580e+02   3.4818360e+02
   2.8339790e+02   3.7970210e+02
   2.8388000e+02   4.1666590e+02
   2.8436220e+02   4.5732210e+02
   2.8484430e+02   4.7102580e+02
   2.8532640e+02   4.5090800e+02
   2.8580850e+02   4.1775430e+02
   2.8629060e+02   4.0951930e+02
   2.8677270e+02   4.2475590e+02
   2.8725490e+02   4.2152390e+02
   2.8773700e+02   3.6319820e+02
   2.8821910e+02   2.6397190e+02
   2.8870120e+02   2.0776370e+02
   2.8918330e+02   2.0552030e+02
   2.8966540e+02   2.1922890e+02
   2.9014760e+02   1.8465520e+02
   2.9062970e+02   1.0811160e+02
   2.9111180e+02   5.3489500e+01
   2.9159390e+02   7.5744320e+01
   2.9207600e+02   1.4721640e+02
   2.9255810e+02   1.7218280e+02
   2.9304030e+02   1.3871100e+02
   2.9352240e+02   8.7538210e+01
   2.9400450e+02   7.2066100e+01
   2.9448660e+02   8.7241700e+01
   2.9496870e+02   1.0307580e+02
   2.9545080e+02   1.0502630e+02
   2.9593300e+02   9.6488830e+01
   2.9641510e+02   8.2782840e+01
   2.9689720e+02   6.2832820e+01
   2.9737930e+02   4.4303650e+01
   2.9786140e+02   3.7847470e+01
   2.9834350e+02   4.1233700e+01
   2.9882570e+02   4.6238770e+01
   2.9930780e+02   5.3509090e+01
   2.9978990e+02   5.8375490e+01
   3.0027200e+02   4.9823000e+01
   3.0075410e+02   2.4286680e+01
   3.0123620e+02   1.7549440e+00
   3.0171840e+02   1.3907900e+01
   3.0220050e+02   1.3416990e+01
   3.0268260e+02   4.4662480e+00
   3.0316470e+02   2.2626710e+01
   3.0364680e+02   5.2295100e+01
   3.0412890e+02   6.3539790e+01
   3.0461100e+02   5.2757510e+01
   3.0509310e+02   3.3125060e+01
   3.0557530e+02   8.5007930e+00
   3.0605740e+02   1.6991640e+01
   3.0653950e+02   3.3495180e+01
   3.0702160e+02   3.1328120e+01
   3.0750370e+02   2.0937810e+01
   3.0798580e+02   1.2377630e+01
   3.0846800e+02   7.1289060e+00
   3.0895010e+02   5.6756600e-01
   3.0943220e+02   1.7044620e+01
   3.0991430e+02   3.8232420e+01
   3.1039640e+02   4.8088870e+01
   3.1087850e+02   3.0323970e+01
   3.1136070e+02   5.1816410e+00
   3.1184280e+02   1.3596500e+01
   3.1232490e+02   2.4428410e+01
   3.1280700e+02   2.9713500e+01
   3.1328910e+02   2.7352170e+01
   3.1377120e+02   2.0774230e+01
   3.1425340e+02   1.5614010e+01
   3.1473550e+02   1.6506040e+01
   3.1521760e+02   1.7691590e+01
   3.1569970e+02   1.4593020e+01
   3.1618180e+02   2.1604250e+01
   3.1666390e+02   7.9346001e-02
   3.1714610e+02   1.2713010e+01
   3.1762820e+02   1.7258970e+01
   3.1811030e+02   1.1916500e+01
   3.1859240e+02   3.0519410e+00
   3.1907450e+02   6.8866000e-01
   3.1955660e+02   2.1405030e+00
   3.2003880e+02   1.9770810e+01
   3.2052090e+02   3.1819460e+00
   3.2100300e+02   1.8853390e+01
   3.2148510e+02   2.3295170e+01
   3.2196720e+02   3.6174500e+01
   3.2244930e+02   3.1620000e+01
   3.2293150e+02   3.2789120e+01
   3.2341360e+02   5.1914670e+01
   3.2389570e+02   6.1493410e+01
   3.2437780e+02   5.5924620e+01
   3.2485990e+02   7.0863710e+01
   3.2534200e+02   4.9874390e+01
   3.2582420e+02   6.0895750e+01
   3.2630630e+02   8.5872250e+01
   3.2678840e+02   8.2473270e+01
   3.2727050e+02   9.9016540e+01
   3.2775260e+02   1.0832370e+02
   3.2823470e+02   8.3827820e+01
   3.2871690e+02   1.1885900e+02
   3.2919900e+02   1.2852230e+02
   3.2968110e+02   1.1212800e+02
   3.3016320e+02   1.4589860e+02
   3.3064530e+02   1.3364060e+02
   3.3112740e+02   1.3815700e+02
   3.3160960e+02   1.5536290e+02
   3.3209170e+02   1.5986650e+02
   3.3257380e+02   1.8506920e+02
   3.3305590e+02   1.9085730e+02
   3.3353800e+02   1.9863760e+02
   3.3402010e+02   2.2074370e+02
   3.3450230e+02   2.3535830e+02
   3.3498440e+02   2.3559090e+02
   3.3546650e+02   2.2232410e+02
   3.3594860e+02   2.2451890e+02
   3.3643070e+02   2.4729030e+02
   3.3691280e+02   2.7731260e+02
   3.3739500e+02   3.0264950e+02
   3.3787710e+02   3.2184690e+02
   3.3835920e+02   3.4135420e+02
   3.3884130e+02   3.6027940e+02
   3.3932340e+02   3.8010640e+02
   3.3980550e+02   4.1273240e+02
   3.4028770e+02   4.6093020e+02
   3.4076980e+02   5.1192750e+02
   3.4125190e+02   5.5417380e+02
   3.4173400e+02   5.8779260e+02
   3.4221610e+02   6.1735760e+02
   3.4269820e+02   6.4006200e+02
   3.4318040e+02   6.6125050e+02
   3.4366240e+02   7.0221770e+02
   3.4414460e+02   7.6481070e+02
   3.4462670e+02   8.2576790e+02
   3.4510880e+02   8.5775520e+02
   3.4559090e+02   8.6745660e+02
   3.4607300e+02   9.0196290e+02
   3.4655510e+02   9.7886820e+02
   3.4703730e+02   1.0735420e+03
   3.4751940e+02   1.1417040e+03
   3.4800150e+02   1.1844970e+03
   3.4848360e+02   1.2251610e+03
   3.4896570e+02   1.2838880e+03
   3.4944780e+02   1.3532430e+03
   3.4993000e+02   1.4156580e+03
   3.5041210e+02   1.4666910e+03
   3.5089420e+02   1.5112080e+03
   3.5137630e+02   1.5449600e+03
   3.5185840e+02   1.5728560e+03
   3.5234050e+02   1.6162630e+03
   3.5282270e+02   1.6909650e+03
   3.5330480e+02   1.7886200e+03
   3.5378690e+02   1.9023350e+03
   3.5426900e+02   2.0355910e+03
   3.5475110e+02   2.1683840e+03
   3.5523320e+02   2.2852640e+03
   3.5571540e+02   2.3891990e+03
   3.5619750e+02   2.4845270e+03
   3.5667960e+02   2.5892870e+03
   3.5716170e+02   2.6773570e+03
   3.5764380e+02   2.7308070e+03
   3.5812590e+02   2.7499580e+03
   3.5860810e+02   2.7240660e+03
   3.5909020e+02   2.6269040e+03
   3.5957230e+02   2.4832520e+03
   3.6005440e+02   2.3356890e+03
   3.6053650e+02   2.1916770e+03
   3.6101860e+02   2.0547340e+03
   3.6150080e+02   1.9285080e+03
   3.6198290e+02   1.8148190e+03
   3.6246500e+02   1.7019750e+03
   3.6294710e+02   1.5802110e+03
   3.6342920e+02   1.4577700e+03
   3.6391130e+02   1.3449900e+03
   3.6439350e+02   1.2446100e+03
   3.6487560e+02   1.1543850e+03
   3.6535770e+02   1.0726790e+03
   3.6583980e+02   9.9923210e+02
   3.6632190e+02   9.4118190e+02
   3.6680400e+02   9.1085060e+02
   3.6728620e+02   8.9544640e+02
   3.6776830e+02   8.8273630e+02
   3.6825040e+02   8.6183380e+02
   3.6873250e+02   8.5713930e+02
   3.6921460e+02   8.7733040e+02
   3.6969670e+02   9.2102420e+02
   3.7017890e+02   9.5670310e+02
   3.7066100e+02   9.7747320e+02
   3.7114310e+02   9.9950820e+02
   3.7162520e+02   1.0340920e+03
   3.7210730e+02   1.0810400e+03
   3.7258940e+02   1.1424220e+03
   3.7307160e+02   1.2278370e+03
   3.7355370e+02   1.3306060e+03
   3.7403580e+02   1.4020280e+03
   3.7451790e+02   1.4306020e+03
   3.7500000e+02   1.4559810e+03
   3.7548210e+02   1.5044370e+03
   3.7596430e+02   1.5767980e+03
   3.7644640e+02   1.6567200e+03
   3.7692850e+02   1.7470800e+03
   3.7741060e+02   1.8429240e+03
   3.7789270e+02   1.9288480e+03
   3.7837480e+02   2.0053960e+03
   3.7885700e+02   2.0789000e+03
   3.7933910e+02   2.1430970e+03
   3.7982120e+02   2.1999810e+03
   3.8030330e+02   2.2931780e+03
   3.8078540e+02   2.4290440e+03
   3.8126750e+02   2.5963810e+03
   3.8174970e+02   2.7752530e+03
   3.8223180e+02   2.9686570e+03
   3.8271390e+02   3.1799640e+03
   3.8319600e+02   3.4121750e+03
   3.8367810e+02   3.6655180e+03
   3.8416020e+02   3.9370700e+03
   3.8464230e+02   4.2303550e+03
   3.8512450e+02   4.5379030e+03
   3.8560660e+02   4.8980630e+03
   3.8608870e+02   5.2719540e+03
   3.8657080e+02   5.5501680e+03
   3.8705290e+02   5.6958010e+03
   3.8753500e+02   5.7229160e+03
   3.8801720e+02   5.6341080e+03
   3.8849930e+02   5.4291530e+03
   3.8898140e+02   5.1411210e+03
   3.8946350e+02   4.7464650e+03
   3.8994560e+02   4.2911420e+03
   3.9042770e+02   3.8389180e+03
   3.9090990e+02   3.3746370e+03
   3.9139200e+02   2.9420310e+03
   3.9187410e+02   2.5764000e+03
   3.9235620e+02   2.2754340e+03
   3.9283830e+02   2.0042450e+03
   3.9332040e+02   1.7426960e+03
   3.9380260e+02   1.5059190e+03
   3.9428470e+02   1.3120130e+03
   3.9476680e+02   1.1952570e+03
   3.9524890e+02   1.0864900e+03
   3.9573100e+02   9.6344670e+02
   3.9621310e+02   8.3379860e+02
   3.9669530e+02   7.3230690e+02
   3.9717740e+02   6.8116970e+02
   3.9765950e+02   6.4438210e+02
   3.9814160e+02   6.0607450e+02
   3.9862370e+02   5.6276820e+02
   3.9910580e+02   5.2480830e+02
   3.9958800e+02   4.9771750e+02
   4.0007010e+02   4.7513630e+02
   4.0055220e+02   4.4091350e+02
   4.0103430e+02   3.7694570e+02
   4.0151640e+02   3.2889550e+02
   4.0199850e+02   3.1896200e+02
   4.0248070e+02   3.6038070e+02
   4.0296280e+02   3.6885140e+02
   4.0344490e+02   3.2969530e+02
   4.0392700e+02   2.7435130e+02
   4.0440910e+02   2.5294290e+02
   4.0489120e+02   2.7824010e+02
   4.0537340e+02   2.9436100e+02
   4.0585550e+02   2.7532080e+02
   4.0633760e+02   2.2260160e+02
   4.0681970e+02   1.9268770e+02
   4.0730180e+02   1.9016400e+02
   4.0778390e+02   2.0217760e+02
   4.0826610e+02   2.2640640e+02
   4.0874820e+02   2.6055200e+02
   4.0923030e+02   2.6562440e+02
   4.0971240e+02   2.1381090e+02
   4.1019450e+02   1.3756310e+02
   4.1067660e+02   1.1396800e+02
   4.1115880e+02   1.4076400e+02
   4.1164090e+02   1.8073110e+02
   4.1212300e+02   2.1946550e+02
   4.1260510e+02   2.4952610e+02
   4.1308720e+02   2.5465430e+02
   4.1356930e+02   2.2238260e+02
   4.1405150e+02   1.8294850e+02
   4.1453360e+02   1.6315590e+02
   4.1501570e+02   1.5770060e+02
   4.1549780e+02   1.5437010e+02
   4.1597990e+02   1.4283470e+02
   4.1646200e+02   1.3510130e+02
   4.1694420e+02   1.4414500e+02
   4.1742630e+02   1.7664000e+02
   4.1790840e+02   1.9990810e+02
   4.1839050e+02   1.8839720e+02
   4.1887260e+02   1.5712960e+02
   4.1935470e+02   1.2921090e+02
   4.1983690e+02   9.8799990e+01
   4.2031900e+02   8.4935970e+01
   4.2080110e+02   1.1084110e+02
   4.2128320e+02   1.8614110e+02
   4.2176530e+02   2.2023930e+02
   4.2224740e+02   1.4447540e+02
   4.2272960e+02   4.4946590e+01
   4.2321170e+02   2.4285890e+00
   4.2369380e+02   7.3943480e+01
   4.2417590e+02   1.2982480e+02
   4.2465800e+02   1.4489790e+02
   4.2514010e+02   1.2225870e+02
   4.2562230e+02   9.3489990e+01
   4.2610430e+02   4.2735960e+01
   4.2658650e+02   3.4281620e+00
   4.2706860e+02   1.6798710e+00
   4.2755070e+02   4.2856510e+01
   4.2803280e+02   7.9618160e+01
   4.2851490e+02   1.0656120e+02
   4.2899700e+02   1.2258340e+02
   4.2947920e+02   1.2137710e+02
   4.2996130e+02   9.8223880e+01
   4.3044340e+02   7.5909120e+01
   4.3092550e+02   6.8434630e+01
   4.3140760e+02   7.5259280e+01
   4.3188970e+02   6.7653750e+01
   4.3237190e+02   3.9729740e+01
   4.3285400e+02   1.4424620e+01
   4.3333610e+02   3.5149540e+01
   4.3381820e+02   9.5045350e+01
   4.3430030e+02   1.3660980e+02
   4.3478240e+02   1.2905120e+02
   4.3526460e+02   9.1661130e+01
   4.3574670e+02   5.6453430e+01
   4.3622880e+02   2.3484190e+01
   4.3671090e+02   4.8393550e+00
   4.3719300e+02   2.2597720e+01
   4.3767510e+02   5.9569700e+01
   4.3815730e+02   8.6274110e+01
   4.3863940e+02   9.2487180e+01
   4.3912150e+02   8.8565310e+01
   4.3960360e+02   7.7250790e+01
   4.4008570e+02   6.1121400e+01
   4.4056780e+02   5.0264160e+01
   4.4105000e+02   6.1892150e+01
   4.4153210e+02   7.3279050e+01
   4.4201420e+02   6.3531620e+01
   4.4249630e+02   1.3870540e+01
   4.4297840e+02   2.0580020e+01
   4.4346050e+02   1.2905400e+01
   4.4394270e+02   1.9657100e+01
   4.4442480e+02   4.7320250e+01
   4.4490690e+02   7.1730160e+01
   4.4538900e+02   8.3436650e+01
   4.4587110e+02   7.6122740e+01
   4.4635320e+02   4.4601320e+01
   4.4683540e+02   1.8032470e+01
   4.4731750e+02   9.6123660e+00
   4.4779960e+02   2.8130310e+01
   4.4828170e+02   2.5864560e+01
   4.4876380e+02   1.3975890e+01
   4.4924590e+02   4.1465270e+01
   4.4972810e+02   4.4708740e+01
   4.5021020e+02   2.8678650e+01
   4.5069230e+02   2.6321290e+01
   4.5117440e+02   4.3790040e+01
   4.5165650e+02   5.8071840e+01
   4.5213860e+02   4.9328000e+01
   4.5262080e+02   1.6409360e+01
   4.5310290e+02   7.4338990e+00
   4.5358500e+02   1.8957820e+01
   4.5406710e+02   2.0243900e+01
   4.5454920e+02   1.0674560e+01
   4.5503130e+02   8.8562620e+00
   4.5551350e+02   2.4973880e+01
   4.5599560e+02   2.9866030e+01
   4.5647770e+02   2.6703980e+01
   4.5695980e+02   2.2339230e+01
   4.5744190e+02   1.6956850e+01
   4.5792400e+02   1.0544010e+01
   4.5840620e+02   3.0338750e+00
   4.5888830e+02   1.7036930e+01
   4.5937040e+02   1.8705810e+01
   4.5985250e+02   1.3542050e+01
   4.6033460e+02   4.5794490e+01
   4.6081670e+02   5.1653810e+01
   4.6129890e+02   3.3768800e+01
   4.6178100e+02   8.8283080e+00
   4.6226310e+02   3.3311100e+01
   4.6274520e+02   6.8731990e+01
   4.6322730e+02   7.7202820e+01
   4.6370940e+02   3.1946470e+01
   4.6419160e+02   1.9271850e+00
   4.6467370e+02   4.4184570e+00
   4.6515580e+02   1.5342350e+01
   4.6563790e+02   3.7515620e+01
   4.6612000e+02   7.1708370e+01
   4.6660210e+02   9.6478150e+01
   4.6708420e+02   1.0431410e+02
   4.6756630e+02   9.1825810e+01
   4.6804850e+02   7.7721250e+01
   4.6853060e+02   6.2041630e+01
   4.6901270e+02   4.4722470e+01
   4.6949480e+02   2.2894590e+01
   4.6997690e+02   1.0572200e+01
   4.7045900e+02   2.5859380e+01
   4.7094120e+02   9.7403560e+00
   4.7142330e+02   2.8453550e+01
   4.7190540e+02   4.0849300e+01
   4.7238750e+02   2.2873840e+01
   4.7286960e+02   3.3687740e+00
   4.7335170e+02   1.0581050e+01
   4.7383390e+02   3.8510310e+01
   4.7431600e+02   4.0508420e+01
   4.7479810e+02   5.1035770e+00
   4.7528020e+02   3.9777160e+01
   4.7576230e+02   5.3554200e+01
   4.7624440e+02   4.2211670e+01
   4.7672660e+02   2.9535580e+01
   4.7720870e+02   2.3578610e+01
   4.7769080e+02   2.4525880e+01
   4.7817290e+02   3.7268740e+01
   4.7865500e+02   6.2649900e+01
   4.7913710e+02   8.3353450e+01
   4.7961930e+02   8.3391480e+01
   4.8010140e+02   7.3570500e+01
   4.8058350e+02   6.5189700e+01
   4.8106560e+02   6.5961670e+01
   4.8154770e+02   6.8140260e+01
   4.8202980e+02   5.9527220e+01
   4.8251200e+02   4.3910400e+01
   4.8299410e+02   3.9367550e+01
   4.8347620e+02   6.8649170e+01
   4.8395830e+02   9.4565190e+01
   4.8444040e+02   9.6801030e+01
   4.8492250e+02   5.4990840e+01
   4.8540470e+02   3.4818240e+01
   4.8588680e+02   4.2483640e+01
   4.8636890e+02   6.6702880e+01
   4.8685100e+02   9.5109740e+01
   4.8733310e+02   1.3901380e+02
   4.8781520e+02   1.6287820e+02
   4.8829740e+02   1.4726590e+02
   4.8877950e+02   9.6663090e+01
   4.8926160e+02   9.0066530e+01
   4.8974370e+02   1.3745320e+02
   4.9022580e+02   1.9506130e+02
   4.9070790e+02   2.2835490e+02
   4.9119010e+02   2.3997140e+02
   4.9167220e+02   2.3676170e+02
   4.9215430e+02   2.1083980e+02
   4.9263640e+02   1.8345500e+02
   4.9311850e+02   2.0018870e+02
   4.9360060e+02   2.5314820e+02
   4.9408280e+02   2.9618590e+02
   4.9456490e+02   2.9516910e+02
   4.9504700e+02   2.7466670e+02
   4.9552910e+02   2.6746880e+02
   4.9601120e+02   2.7567210e+02
   4.9649330e+02   2.8676750e+02
   4.9697550e+02   2.9508900e+02
   4.9745760e+02   2.9988790e+02
   4.9793970e+02   3.0059450e+02
   4.9842180e+02   2.9435860e+02
   4.9890390e+02   2.8698550e+02
   4.9938600e+02   2.7528200e+02
   4.9986820e+02   2.6192960e+02
   5.0035030e+02   2.6059090e+02
   5.0083240e+02   2.8356520e+02
   5.0131450e+02   3.1433030e+02
   5.0179660e+02   3.4449290e+02
   5.0227870e+02   3.6383370e+02
   5.0276090e+02   3.9853250e+02
   5.0324300e+02   4.6070640e+02
   5.0372510e+02   5.3200280e+02
   5.0420720e+02   5.8372360e+02
   5.0468930e+02   6.0578420e+02
   5.0517140e+02   6.2860000e+02
   5.0565360e+02   6.5877700e+02
   5.0613570e+02   6.9777360e+02
   5.0661780e+02   7.5034620e+02
   5.0709990e+02   8.1579030e+02
   5.0758200e+02   8.8867290e+02
   5.0806410e+02   9.7165040e+02
   5.0854620e+02   1.0622370e+03
   5.0902840e+02   1.1369870e+03
   5.0951050e+02   1.1846510e+03
   5.0999260e+02   1.2295400e+03
   5.1047470e+02   1.3106300e+03
   5.1095680e+02   1.4195930e+03
   5.1143890e+02   1.5268530e+03
   5.1192110e+02   1.6092160e+03
   5.1240320e+02   1.6877750e+03
   5.1288530e+02   1.7842950e+03
   5.1336740e+02   1.8998390e+03
   5.1384950e+02   2.0236780e+03
   5.1433170e+02   2.1537620e+03
   5.1481380e+02   2.2870650e+03
   5.1529590e+02   2.4205370e+03
   5.1577800e+02   2.5527650e+03
   5.1626010e+02   2.6850240e+03
   5.1674220e+02   2.8200530e+03
   5.1722440e+02   2.9559920e+03
   5.1770650e+02   3.0900000e+03
   5.1818860e+02   3.1961730e+03
   5.1867070e+02   3.3207410e+03
   5.1915280e+02   3.4871270e+03
   5.1963490e+02   3.7120570e+03
   5.2011710e+02   3.9028220e+03
   5.2059920e+02   4.0475350e+03
   5.2108130e+02   4.1739720e+03
   5.2156340e+02   4.3146640e+03
   5.2204550e+02   4.4666260e+03
   5.2252760e+02   4.6358650e+03
   5.2300980e+02   4.8272090e+03
   5.2349190e+02   5.0339130e+03
   5.2397400e+02   5.2382310e+03
   5.2445610e+02   5.4429960e+03
   5.2493820e+02   5.6237410e+03
   5.2542030e+02   5.7467290e+03
   5.2590250e+02   5.8368050e+03
   5.2638460e+02   5.9646280e+03
   5.2686670e+02   6.1450210e+03
   5.2734880e+02   6.3249850e+03
   5.2783090e+02   6.4669850e+03
   5.2831300e+02   6.5717450e+03
   5.2879510e+02   6.6442240e+03
   5.2927720e+02   6.6664340e+03
   5.2975930e+02   6.6732940e+03
   5.3024150e+02   6.6889340e+03
   5.3072360e+02   6.7106960e+03
   5.3120570e+02   6.7169970e+03
   5.3168780e+02   6.7146590e+03
   5.3216990e+02   6.6842200e+03
   5.3265200e+02   6.6125150e+03
   5.3313420e+02   6.4651480e+03
   5.3361630e+02   6.3308740e+03
   5.3409840e+02   6.2303540e+03
   5.3458050e+02   6.1358770e+03
   5.3506260e+02   5.9975640e+03
   5.3554470e+02   5.7854750e+03
   5.3602690e+02   5.5964220e+03
   5.3650900e+02   5.4626670e+03
   5.3699110e+02   5.3782880e+03
   5.3747320e+02   5.2731700e+03
   5.3795530e+02   5.1403740e+03
   5.3843740e+02   5.0213740e+03
   5.3891960e+02   4.9505190e+03
   5.3940170e+02   4.9237360e+03
   5.3988380e+02   4.9122420e+03
   5.4036590e+02   4.9117450e+03
   5.4084800e+02   4.9266670e+03
   5.4133010e+02   4.9569580e+03
   5.4181230e+02   5.0061150e+03
   5.4229440e+02   5.0850270e+03
   5.4277650e+02   5.2178510e+03
   5.4325860e+02   5.3689070e+03
   5.4374070e+02   5.5037830e+03
   5.4422280e+02   5.6237130e+03
   5.4470500e+02   5.7577600e+03
   5.4518710e+02   5.9292790e+03
   5.4566920e+02   6.1144810e+03
   5.4615130e+02   6.2949020e+03
   5.4663340e+02   6.4541630e+03
   5.4711550e+02   6.6286400e+03
   5.4759770e+02   6.8239820e+03
   5.4807980e+02   7.0401040e+03
   5.4856190e+02   7.2753950e+03
   5.4904400e+02   7.5531320e+03
   5.4952610e+02   7.8157680e+03
   5.5000820e+02   8.0419830e+03
   5.5049040e+02   8.2333670e+03
   5.5097250e+02   8.4458600e+03
   5.5145460e+02   8.6814560e+03
   5.5193670e+02   8.9334750e+03
   5.5241880e+02   9.2005400e+03
   5.5290090e+02   9.4820490e+03
   5.5338310e+02   9.7559580e+03
   5.5386520e+02   1.0024550e+04
   5.5434730e+02   1.0273440e+04
   5.5482940e+02   1.0479340e+04
   5.5531150e+02   1.0645940e+04
   5.5579360e+02   1.0782540e+04
   5.5627580e+02   1.0897840e+04
   5.5675790e+02   1.0981370e+04
   5.5724000e+02   1.1025160e+04
   5.5772210e+02   1.1028730e+04
   5.5820420e+02   1.0986620e+04
   5.5868630e+02   1.0909860e+04
   5.5916850e+02   1.0778370e+04
   5.5965060e+02   1.0573130e+04
   5.6013270e+02   1.0271340e+04
   5.6061480e+02   9.9320840e+03
   5.6109690e+02   9.5430790e+03
   5.6157900e+02   9.1257640e+03
   5.6206120e+02   8.7172830e+03
   5.6254330e+02   8.3389070e+03
   5.6302540e+02   7.9442440e+03
   5.6350750e+02   7.5055360e+03
   5.6398960e+02   7.0360090e+03
   5.6447170e+02   6.6295300e+03
   5.6495390e+02   6.3059100e+03
   5.6543600e+02   5.9867670e+03
   5.6591810e+02   5.5887050e+03
   5.6640020e+02   5.1235810e+03
   5.6688230e+02   4.7317930e+03
   5.6736440e+02   4.4346960e+03
   5.6784660e+02   4.1846110e+03
   5.6832870e+02   3.9188210e+03
   5.6881080e+02   3.6463910e+03
   5.6929290e+02   3.3898680e+03
   5.6977500e+02   3.1579400e+03
   5.7025710e+02   2.9497290e+03
   5.7073930e+02   2.7803580e+03
   5.7122140e+02   2.6416450e+03
   5.7170350e+02   2.4968210e+03
   5.7218560e+02   2.2997560e+03
   5.7266770e+02   2.1060020e+03
   5.7314980e+02   1.9551400e+03
   5.7363200e+02   1.8770530e+03
   5.7411410e+02   1.7867840e+03
   5.7459620e+02   1.6502740e+03
   5.7507830e+02   1.5013890e+03
   5.7556040e+02   1.3842880e+03
   5.7604250e+02   1.3106490e+03
   5.7652470e+02   1.2451560e+03
   5.7700680e+02   1.1842490e+03
   5.7748890e+02   1.1264550e+03
   5.7797100e+02   1.0700400e+03
   5.7845310e+02   1.0178580e+03
   5.7893520e+02   9.5532640e+02
   5.7941740e+02   8.5762380e+02
   5.7989950e+02   7.3662760e+02
   5.8038160e+02   6.6909030e+02
   5.8086370e+02   6.6403040e+02
   5.8134580e+02   6.7088060e+02
   5.8182790e+02   6.3678690e+02
   5.8231010e+02   5.7478860e+02
   5.8279220e+02   5.1125240e+02
   5.8327430e+02   4.5112110e+02
   5.8375640e+02   3.9791910e+02
   5.8423850e+02   3.5461580e+02
   5.8472060e+02   3.2026380e+02
   5.8520280e+02   2.9124460e+02
   5.8568490e+02   2.7096800e+02
   5.8616700e+02   2.5345140e+02
   5.8664910e+02   2.3385450e+02
   5.8713120e+02   2.1388890e+02
   5.8761330e+02   1.8329680e+02
   5.8809550e+02   1.2650150e+02
   5.8857760e+02   7.3044430e+01
   5.8905970e+02   4.7505980e+01
   5.8954180e+02   6.3090330e+01
   5.9002390e+02   6.6683840e+01
   5.9050600e+02   4.7911130e+01
   5.9098820e+02   2.0894170e+01
   5.9147030e+02   2.1878910e+01
   5.9195240e+02   5.1958860e+01
   5.9243450e+02   7.1952030e+01
   5.9291660e+02   5.8496700e+01
   5.9339870e+02   2.4238400e+01
   5.9388090e+02   4.4860840e+00
   5.9436300e+02   2.7257690e+01
   5.9484510e+02   4.3134520e+01
   5.9532720e+02   6.6241210e+01
   5.9580930e+02   3.5775390e+01
   5.9629140e+02   1.3178340e+01
   5.9677360e+02   2.0749510e+00
   5.9725570e+02   1.6378540e+01
   5.9773780e+02   8.2595210e+00
   5.9821990e+02   1.4817380e+01
   5.9870200e+02   2.0768310e+01
   5.9918410e+02   5.1384890e+01
   5.9966630e+02   3.6731570e+01
   6.0014840e+02   6.6153560e+01
   6.0063050e+02   7.7548100e+01
   6.0111260e+02   9.7626950e+01
   6.0159470e+02   1.0060900e+02
   6.0207680e+02   1.0851620e+02
   6.0255900e+02   1.3292350e+02
   6.0304110e+02   1.4738460e+02
   6.0352320e+02   1.4756130e+02
   6.0400530e+02   1.7030310e+02
   6.0448740e+02   1.5864660e+02
   6.0496950e+02   1.7984080e+02
   6.0545170e+02   2.1485970e+02
   6.0593380e+02   2.1943130e+02
   6.0641590e+02   2.1091960e+02
   6.0689800e+02   1.9703050e+02
   6.0738010e+02   1.8719640e+02
   6.0786220e+02   1.8540490e+02
   6.0834440e+02   2.0191300e+02
   6.0882650e+02   2.6044010e+02
   6.0930860e+02   3.2339880e+02
   6.0979070e+02   3.6586190e+02
   6.1027280e+02   3.8382400e+02
   6.1075490e+02   4.1148080e+02
   6.1123700e+02   4.7902190e+02
   6.1171910e+02   5.4367940e+02
   6.1220120e+02   5.7976780e+02
   6.1268330e+02   5.6315410e+02
   6.1316550e+02   5.6509200e+02
   6.1364760e+02   5.9379360e+02
   6.1412970e+02   6.3234940e+02
   6.1461180e+02   6.4572550e+02
   6.1509390e+02   6.3001070e+02
   6.1557600e+02   6.4014670e+02
   6.1605820e+02   7.0576620e+02
   6.1654030e+02   7.9657420e+02
   6.1702240e+02   8.4018430e+02
   6.1750450e+02   8.4069950e+02
   6.1798660e+02   8.3835110e+02
   6.1846880e+02   8.6041460e+02
   6.1895090e+02   8.9394170e+02
   6.1943300e+02   9.2749580e+02
   6.1991510e+02   9.6125350e+02
   6.2039720e+02   9.8260400e+02
   6.2087930e+02   9.7551540e+02
   6.2136150e+02   9.5719700e+02
   6.2184360e+02   9.4412400e+02
   6.2232570e+02   9.4792330e+02
   6.2280780e+02   9.4779760e+02
   6.2328990e+02   9.3985940e+02
   6.2377200e+02   9.2633200e+02
   6.2425420e+02   9.1504690e+02
   6.2473630e+02   9.1359840e+02
   6.2521840e+02   8.9912870e+02
   6.2570050e+02   8.5960790e+02
   6.2618260e+02   7.9986410e+02
   6.2666470e+02   7.5958540e+02
   6.2714690e+02   7.3956920e+02
   6.2762900e+02   7.2111600e+02
   6.2811110e+02   6.9429380e+02
   6.2859320e+02   6.6032300e+02
   6.2907530e+02   6.1892850e+02
   6.2955740e+02   5.6724670e+02
   6.3003960e+02   5.1959840e+02
   6.3052170e+02   4.9293820e+02
   6.3100380e+02   4.7704110e+02
   6.3148590e+02   4.5715720e+02
   6.3196800e+02   4.3082090e+02
   6.3245010e+02   3.9680990e+02
   6.3293230e+02   3.4187220e+02
   6.3341440e+02   2.7661790e+02
   6.3389650e+02   2.3861080e+02
   6.3437860e+02   2.6381180e+02
   6.3486070e+02   2.7944680e+02
   6.3534280e+02   2.5851310e+02
   6.3582500e+02   1.9930380e+02
   6.3630710e+02   1.7212080e+02
   6.3678920e+02   1.8843620e+02
   6.3727130e+02   2.0710080e+02
   6.3775340e+02   1.9072240e+02
   6.3823550e+02   1.4405570e+02
   6.3871770e+02   1.0824520e+02
   6.3919980e+02   8.6802370e+01
   6.3968190e+02   7.8355710e+01
   6.4016400e+02   8.9423830e+01
   6.4064610e+02   1.1243190e+02
   6.4112820e+02   1.3051640e+02
   6.4161040e+02   1.4887080e+02
   6.4209250e+02   1.4837000e+02
   6.4257460e+02   9.6074710e+01
   6.4305670e+02   1.1461300e+01
   6.4353880e+02   4.3553280e+01
   6.4402090e+02   1.8481690e+01
   6.4450310e+02   1.1849490e+01
   6.4498520e+02   1.2902470e+01
   6.4546730e+02   2.0128850e+01
   6.4594940e+02   3.4195980e+01
   6.4643150e+02   2.3272640e+01
   6.4691360e+02   2.9036870e+00
   6.4739580e+02   2.0995540e+01
   6.4787790e+02   5.0452450e+01
   6.4836000e+02   5.6771610e+01
   6.4884210e+02   3.2054990e+01
   6.4932420e+02   7.7978500e-01
   6.4980630e+02   7.2322390e+00
   6.5028850e+02   5.5853880e+00
   6.5077060e+02   1.2596680e+01
   6.5125270e+02   4.6612500e-01
   6.5173480e+02   1.5124020e+01
   6.5221690e+02   1.5957760e+01
   6.5269900e+02   7.0755620e+00
   6.5318120e+02   4.6428830e+00
   6.5366330e+02   2.4913150e+01
   6.5414540e+02   4.3522160e+01
   6.5462750e+02   4.6887510e+01
   6.5510960e+02   3.2020390e+01
   6.5559170e+02   2.2178770e+01
   6.5607390e+02   2.2721620e+01
   6.5655600e+02   2.4433900e+01
   6.5703810e+02   2.0435670e+01
   6.5752020e+02   7.9463500e+00
   6.5800230e+02   3.6055300e+00
   6.5848440e+02   1.1093990e+01
   6.5896660e+02   2.0010930e+01
   6.5944870e+02   9.5252690e+00
   6.5993080e+02   1.5667540e+01
   6.6041290e+02   2.3693050e+01
   6.6089500e+02   1.8520510e+00
   6.6137710e+02   3.8394780e+01
   6.6185930e+02   6.5547360e+01
   6.6234140e+02   8.1781310e+01
   6.6282350e+02   8.2446780e+01
   6.6330560e+02   5.2310850e+01
   6.6378770e+02   1.7850340e+01
   6.6426980e+02   9.2766720e+00
   6.6475200e+02   2.8448000e+01
   6.6523410e+02   3.7332820e+01
   6.6571620e+02   2.6104130e+01
   6.6619830e+02   1.2521300e+01
   6.6668040e+02   3.9003300e+00
   6.6716250e+02   1.3444210e+00
   6.6764470e+02   7.2051390e+00
   6.6812680e+02   3.8622560e+01
   6.6860890e+02   6.6914860e+01
   6.6909100e+02   5.0616390e+01
   6.6957310e+02   4.8494260e+00
   6.7005520e+02   3.7465030e+01
   6.7053740e+02   2.9061650e+01
   6.7101950e+02   2.2744750e+00
   6.7150160e+02   1.9164920e+01
   6.7198370e+02   3.4872250e+01
   6.7246580e+02   4.3564270e+01
   6.7294790e+02   3.0299800e+01
   6.7343010e+02   2.2441470e+01
   6.7391220e+02   4.7310850e+01
   6.7439430e+02   9.9488040e+01
   6.7487640e+02   1.2825050e+02
   6.7535850e+02   9.6231020e+01
   6.7584060e+02   6.1337710e+01
   6.7632280e+02   4.9683040e+01
   6.7680490e+02   6.5712400e+01
   6.7728700e+02   8.1865420e+01
   6.7776910e+02   1.0075790e+02
   6.7825120e+02   1.1479660e+02
   6.7873330e+02   1.1588260e+02
   6.7921550e+02   1.0446770e+02
   6.7969760e+02   8.6282900e+01
   6.8017970e+02   5.8031130e+01
   6.8066180e+02   3.5360530e+01
   6.8114390e+02   4.6911740e+01
   6.8162600e+02   7.8283750e+01
   6.8210820e+02   9.7007510e+01
   6.8259030e+02   8.2179380e+01
   6.8307240e+02   5.8352360e+01
   6.8355450e+02   3.1932980e+01
   6.8403660e+02   7.1171260e+00
   6.8451870e+02   2.4148560e+00
   6.8500090e+02   2.6168210e+01
   6.8548300e+02   5.0876590e+01
   6.8596510e+02   5.4946840e+01
   6.8644720e+02   3.7758180e+01
   6.8692930e+02   3.3060360e+01
   6.8741140e+02   4.5334470e+01
   6.8789360e+02   5.9798770e+01
   6.8837570e+02   6.6268860e+01
   6.8885780e+02   6.5331120e+01
   6.8933990e+02   6.2683530e+01
   6.8982200e+02   5.7905940e+01
   6.9030410e+02   5.5606570e+01
   6.9078630e+02   6.2834660e+01
   6.9126840e+02   7.5560180e+01
   6.9175050e+02   8.6225460e+01
   6.9223260e+02   9.1333980e+01
   6.9271470e+02   9.6769590e+01
   6.9319680e+02   1.0657230e+02
   6.9367890e+02   1.1883940e+02
   6.9416100e+02   1.3038320e+02
   6.9464310e+02   1.5089970e+02
   6.9512520e+02   1.5772140e+02
   6.9560740e+02   1.3697030e+02
   6.9608950e+02   9.8039180e+01
   6.9657160e+02   8.5434570e+01
   6.9705370e+02   1.0590910e+02
   6.9753580e+02   1.3167100e+02
   6.9801790e+02   1.5361840e+02
   6.9850010e+02   1.7061990e+02
   6.9898220e+02   1.7322910e+02
   6.9946430e+02   1.6116990e+02
   6.9994640e+02   1.4842280e+02
   7.0042850e+02   1.4463110e+02
   7.0091060e+02   1.4742280e+02
   7.0139280e+02   1.5449920e+02
   7.0187490e+02   1.7137120e+02
   7.0235700e+02   1.8142930e+02
   7.0283910e+02   1.6884120e+02
   7.0332120e+02   1.4692610e+02
   7.0380330e+02   1.3021200e+02
   7.0428550e+02   1.3313130e+02
   7.0476760e+02   1.2754610e+02
   7.0524970e+02   1.0484450e+02
   7.0573180e+02   7.6446590e+01
   7.0621390e+02   6.2543270e+01
   7.0669600e+02   6.3593140e+01
   7.0717820e+02   7.7240230e+01
   7.0766030e+02   1.0632200e+02
   7.0814240e+02   1.4524090e+02
   7.0862450e+02   1.8860080e+02
   7.0910660e+02   2.3219950e+02
   7.0958870e+02   2.5170000e+02
   7.1007090e+02   2.0596040e+02
   7.1055300e+02   1.4886590e+02
   7.1103510e+02   1.3829140e+02
   7.1151720e+02   1.7228820e+02
   7.1199930e+02   1.9881270e+02
   7.1248140e+02   1.9965980e+02
   7.1296360e+02   1.8818460e+02
   7.1344570e+02   1.6680890e+02
   7.1392780e+02   1.2432430e+02
   7.1440990e+02   1.1032070e+02
   7.1489200e+02   1.4059930e+02
   7.1537410e+02   1.7830600e+02
   7.1585630e+02   1.8376100e+02
   7.1633840e+02   1.5545180e+02
   7.1682050e+02   1.4497910e+02
   7.1730260e+02   1.6472060e+02
   7.1778470e+02   1.9113250e+02
   7.1826680e+02   1.9116980e+02
   7.1874900e+02   1.6999020e+02
   7.1923110e+02   1.4089390e+02
   7.1971320e+02   9.6319760e+01
   7.2019530e+02   6.2267880e+01
   7.2067740e+02   6.1333860e+01
   7.2115950e+02   8.5741700e+01
   7.2164170e+02   1.1113450e+02
   7.2212380e+02   1.3883350e+02
   7.2260590e+02   1.5586130e+02
   7.2308800e+02   1.5336630e+02
   7.2357010e+02   1.3452720e+02
   7.2405220e+02   1.3247230e+02
   7.2453440e+02   1.5386100e+02
   7.2501650e+02   1.7088350e+02
   7.2549860e+02   1.6179980e+02
   7.2598070e+02   1.3453000e+02
   7.2646280e+02   1.3439620e+02
   7.2694490e+02   1.6203000e+02
   7.2742710e+02   1.8561020e+02
   7.2790920e+02   1.7804080e+02
   7.2839130e+02   1.5688600e+02
   7.2887340e+02   1.4145860e+02
   7.2935550e+02   1.3512760e+02
   7.2983760e+02   1.2944800e+02
   7.3031980e+02   1.1714690e+02
   7.3080190e+02   1.0496690e+02
   7.3128400e+02   1.0136780e+02
   7.3176610e+02   1.1738670e+02
   7.3224820e+02   1.2407700e+02
   7.3273030e+02   1.1429090e+02
   7.3321250e+02   1.0011000e+02
   7.3369460e+02   1.0514040e+02
   7.3417670e+02   1.2992970e+02
   7.3465880e+02   1.4788260e+02
   7.3514090e+02   1.5114880e+02
   7.3562300e+02   1.4421810e+02
   7.3610520e+02   1.2721780e+02
   7.3658730e+02   1.0491130e+02
   7.3706940e+02   9.2652950e+01
   7.3755150e+02   1.0442430e+02
   7.3803360e+02   1.2273100e+02
   7.3851570e+02   1.4138400e+02
   7.3899790e+02   1.5996380e+02
   7.3948000e+02   1.6983330e+02
   7.3996210e+02   1.6185210e+02
   7.4044420e+02   1.5101280e+02
   7.4092630e+02   1.3938340e+02
   7.4140840e+02   1.2593420e+02
   7.4189060e+02   1.3041000e+02
   7.4237270e+02   1.5966350e+02
   7.4285480e+02   1.8391380e+02
   7.4333690e+02   1.6664690e+02
   7.4381900e+02   1.2244500e+02
   7.4430110e+02   1.0875220e+02
   7.4478330e+02   1.3290220e+02
   7.4526540e+02   1.6059510e+02
   7.4574750e+02   1.6284750e+02
   7.4622960e+02   1.5190810e+02
   7.4671170e+02   1.4071350e+02
   7.4719380e+02   1.2867350e+02
   7.4767600e+02   1.2334660e+02
   7.4815810e+02   1.3128130e+02
   7.4864020e+02   1.4530670e+02
   7.4912230e+02   1.5795690e+02
   7.4960440e+02   1.7329790e+02
   7.5008650e+02   1.7385740e+02
   7.5056870e+02   1.5195150e+02
   7.5105080e+02   1.2077390e+02
   7.5153290e+02   1.0736740e+02
   7.5201500e+02   1.1023580e+02
   7.5249710e+02   1.1628780e+02
   7.5297920e+02   1.2362330e+02
   7.5346140e+02   1.2831540e+02
   7.5394350e+02   1.2117610e+02
   7.5442560e+02   1.0675430e+02
   7.5490770e+02   1.0014180e+02
   7.5538980e+02   1.0757820e+02
   7.5587190e+02   1.2101370e+02
   7.5635410e+02   1.4757980e+02
   7.5683620e+02   1.8570120e+02
   7.5731830e+02   1.9009750e+02
   7.5780040e+02   1.3956450e+02
   7.5828250e+02   9.3471680e+01
   7.5876460e+02   8.2999510e+01
   7.5924680e+02   1.0596440e+02
   7.5972890e+02   1.2033820e+02
   7.6021100e+02   1.2609190e+02
   7.6069310e+02   1.2565450e+02
   7.6117520e+02   1.1445740e+02
   7.6165730e+02   1.0088900e+02
   7.6213950e+02   9.8647090e+01
   7.6262160e+02   1.1004950e+02
   7.6310370e+02   1.2631700e+02
   7.6358580e+02   1.5507280e+02
   7.6406790e+02   1.7954990e+02
   7.6455000e+02   1.8448090e+02
   7.6503220e+02   1.5157790e+02
   7.6551430e+02   1.2763780e+02
   7.6599640e+02   1.1454600e+02
   7.6647850e+02   1.0799410e+02
   7.6696060e+02   1.0497820e+02
   7.6744270e+02   1.0584460e+02
   7.6792490e+02   1.0143730e+02
   7.6840700e+02   8.8866090e+01
   7.6888910e+02   7.3803890e+01
   7.6937120e+02   6.1987920e+01
   7.6985330e+02   5.4004520e+01
   7.7033540e+02   5.1184880e+01
   7.7081760e+02   5.2157710e+01
   7.7129970e+02   6.0518070e+01
   7.7178180e+02   8.9183960e+01
   7.7226390e+02   1.2687630e+02
   7.7274600e+02   1.4329570e+02
   7.7322810e+02   1.1313540e+02
   7.7371030e+02   9.0843510e+01
   7.7419240e+02   9.1545170e+01
   7.7467450e+02   1.0822480e+02
   7.7515660e+02   1.0948660e+02
   7.7563870e+02   9.3779790e+01
   7.7612080e+02   7.8415160e+01
   7.7660290e+02   7.1460080e+01
   7.7708500e+02   7.1204470e+01
   7.7756710e+02   7.5869020e+01
   7.7804930e+02   8.4764950e+01
   7.7853140e+02   9.4841250e+01
   7.7901350e+02   1.1148610e+02
   7.7949560e+02   1.2286390e+02
   7.7997770e+02   1.1965770e+02
   7.8045980e+02   1.0024840e+02
   7.8094200e+02   7.9073430e+01
   7.8142410e+02   4.6574400e+01
   7.8190620e+02   2.4619930e+01
   7.8238830e+02   2.8951780e+01
   7.8287040e+02   6.3733890e+01
   7.8335250e+02   8.2618770e+01
   7.8383470e+02   8.4192930e+01
   7.8431680e+02   7.9776610e+01
   7.8479890e+02   7.4714600e+01
   7.8528100e+02   6.9319640e+01
   7.8576310e+02   7.4457890e+01
   7.8624520e+02   9.5706790e+01
   7.8672740e+02   1.0662510e+02
   7.8720950e+02   7.7338070e+01
   7.8769160e+02   3.6276980e+01
   7.8817370e+02   1.0850340e+01
   7.8865580e+02   1.9810850e+01
   7.8913790e+02   2.2598450e+01
   7.8962010e+02   1.1084720e+01
   7.9010220e+02   1.0900900e-01
   7.9058430e+02   1.3390560e+01
   7.9106640e+02   5.4918640e+01
   7.9154850e+02   7.3041630e+01
   7.9203060e+02   5.2797060e+01
   7.9251280e+02   2.2864440e+01
   7.9299490e+02   2.2911870e+01
   7.9347700e+02   4.3481320e+01
   7.9395910e+02   6.3732060e+01
   7.9444120e+02   7.7970030e+01
   7.9492330e+02   8.7087040e+01
   7.9540550e+02   8.9000670e+01
   7.9588760e+02   8.6359620e+01
   7.9636970e+02   8.5216250e+01
   7.9685180e+02   9.2014890e+01
   7.9733390e+02   9.1282900e+01
   7.9781600e+02   7.8878780e+01
   7.9829820e+02   5.8147580e+01
   7.9878030e+02   3.2173830e+01
   7.9926240e+02   7.4389600e-01
   7.9974450e+02   1.1186220e+01
   8.0022660e+02   2.1701350e+01
   8.0070870e+02   6.8392700e+01
   8.0119090e+02   7.7671880e+01
   8.0167300e+02   5.7456600e+01
   8.0215510e+02   3.8876160e+01
   8.0263720e+02   3.4081970e+01
   8.0311930e+02   3.7397580e+01
   8.0360140e+02   4.8168460e+01
   8.0408360e+02   6.6062870e+01
   8.0456570e+02   8.4264710e+01
   8.0504780e+02   1.1045560e+02
   8.0552990e+02   1.2196590e+02
   8.0601200e+02   9.8902220e+01
   8.0649410e+02   4.9292240e+01
   8.0697630e+02   4.6317320e+01
   8.0745840e+02   8.9338750e+01
   8.0794050e+02   1.2490940e+02
   8.0842260e+02   1.0332480e+02
   8.0890470e+02   5.8293700e+01
   8.0938680e+02   2.9050350e+01
   8.0986900e+02   1.8783140e+01
   8.1035110e+02   1.2265080e+01
   8.1083320e+02   5.6993410e+00
   8.1131530e+02   1.1232300e+00
   8.1179740e+02   1.0146480e+01
   8.1227950e+02   2.4190430e+01
   8.1276170e+02   2.4349120e+01
   8.1324380e+02   6.3399660e+00
   8.1372590e+02   1.5460570e+01
   8.1420800e+02   2.8603030e+01
   8.1469010e+02   3.4908810e+01
   8.1517220e+02   4.7086000e+01
   8.1565440e+02   6.6934270e+01
   8.1613650e+02   8.1029170e+01
   8.1661860e+02   7.4023190e+01
   8.1710070e+02   5.7044250e+01
   8.1758280e+02   4.0849300e+01
   8.1806490e+02   2.5473510e+01
   8.1854710e+02   1.7112550e+01
   8.1902920e+02   2.2867190e+01
   8.1951130e+02   3.2225460e+01
   8.1999340e+02   3.6341670e+01
   8.2047550e+02   3.2880550e+01
   8.2095760e+02   3.5809880e+01
   8.2143980e+02   4.7856140e+01
   8.2192190e+02   6.0736760e+01
   8.2240400e+02   6.4468200e+01
   8.2288610e+02   6.0981450e+01
   8.2336820e+02   5.3150450e+01
   8.2385030e+02   3.7522090e+01
   8.2433250e+02   2.9965030e+01
   8.2481460e+02   5.0433960e+01
   8.2529670e+02   8.1388370e+01
   8.2577880e+02   1.0119600e+02
   8.2626090e+02   9.8604430e+01
   8.2674300e+02   9.3405640e+01
   8.2722520e+02   8.2534730e+01
   8.2770730e+02   7.2846560e+01
   8.2818940e+02   8.1533330e+01
   8.2867150e+02   1.0948550e+02
   8.2915360e+02   1.1101040e+02
   8.2963570e+02   6.9294010e+01
   8.3011790e+02   2.0480900e+01
   8.3060000e+02   1.0145870e+01
   8.3108210e+02   2.6545470e+01
   8.3156420e+02   4.1678710e+01
   8.3204630e+02   4.3259090e+01
   8.3252840e+02   4.4096680e+01
   8.3301060e+02   5.2083920e+01
   8.3349270e+02   6.1407780e+01
   8.3397480e+02   6.0556820e+01
   8.3445690e+02   4.4854250e+01
   8.3493900e+02   2.9740600e+01
   8.3542110e+02   1.7102540e+01
   8.3590330e+02   7.5095830e+00
   8.3638540e+02   4.0588990e+00
   8.3686750e+02   5.6874390e+00
   8.3734960e+02   5.7634890e+00
   8.3783170e+02   3.4114990e+00
   8.3831380e+02   8.6596680e+00
   8.3879600e+02   7.2228390e+00
   8.3927810e+02   3.5749270e+01
   8.3976020e+02   5.7513980e+01
   8.4024230e+02   7.6167050e+01
   8.4072440e+02   7.4531980e+01
   8.4120650e+02   3.7286190e+01
   8.4168870e+02   1.8645810e+01
   8.4217080e+02   3.7731140e+01
   8.4265290e+02   1.5046390e+01
   8.4313500e+02   8.7629390e+00
   8.4361710e+02   2.0914490e+01
   8.4409920e+02   2.5304570e+01
   8.4458140e+02   2.2133420e+01
   8.4506350e+02   1.3920960e+01
   8.4554560e+02   9.8704220e+00
   8.4602770e+02   2.1184810e+01
   8.4650980e+02   3.0992550e+01
   8.4699190e+02   2.8249390e+01
   8.4747410e+02   1.6107540e+01
   8.4795620e+02   1.0252990e+01
   8.4843830e+02   1.5992190e+01
   8.4892040e+02   1.7868160e+01
   8.4940250e+02   8.6633300e+00
   8.4988460e+02   6.1151730e+00
   8.5036680e+02   5.9252320e+00
   8.5084890e+02   8.1087650e+00
   8.5133100e+02   2.1157410e+01
   8.5181310e+02   2.1804690e+01
   8.5229520e+02   2.1521610e+01
   8.5277730e+02   3.6953670e+01
   8.5325950e+02   6.2209170e+01
   8.5374160e+02   7.5260440e+01
   8.5422370e+02   6.1371150e+01
   8.5470580e+02   4.2119080e+01
   8.5518790e+02   1.8202700e+01
   8.5567000e+02   6.2012330e+00
   8.5615220e+02   3.9916380e+00
   8.5663430e+02   2.8497740e+01
   8.5711640e+02   5.8803960e+01
   8.5759850e+02   7.1714290e+01
   8.5808060e+02   7.3165590e+01
   8.5856270e+02   7.0978880e+01
   8.5904480e+02   6.5924440e+01
   8.5952690e+02   6.1270200e+01
   8.6000900e+02   6.1434020e+01
   8.6049110e+02   5.9938780e+01
   8.6097330e+02   5.1245730e+01
   8.6145540e+02   3.7277770e+01
   8.6193750e+02   2.9201600e+01
   8.6241960e+02   2.9874390e+01
   8.6290170e+02   3.1086240e+01
   8.6338390e+02   2.9545410e+01
   8.6386600e+02   2.6213750e+01
   8.6434810e+02   2.6073180e+01
   8.6483020e+02   2.8361210e+01
   8.6531230e+02   2.6917720e+01
   8.6579440e+02   5.9463500e+00
   8.6627660e+02   1.0667910e+01
   8.6675870e+02   3.6337890e+00
   8.6724080e+02   4.4033510e+01
   8.6772290e+02   7.7870610e+01
   8.6820500e+02   1.0007510e+02
   8.6868710e+02   1.1099870e+02
   8.6916930e+02   1.0601870e+02
   8.6965140e+02   8.9035520e+01
   8.7013350e+02   8.6411070e+01
   8.7061560e+02   1.0016480e+02
   8.7109770e+02   1.0771680e+02
   8.7157980e+02   9.1130980e+01
   8.7206200e+02   6.3226260e+01
   8.7254410e+02   3.9433900e+01
   8.7302620e+02   2.0265750e+01
   8.7350830e+02   7.3554080e+00
   8.7399040e+02   3.4930420e+00
   8.7447250e+02   4.0116580e+00
   8.7495470e+02   8.2654420e+00
   8.7543680e+02   1.5510620e+01
   8.7591890e+02   2.2188480e+01
   8.7640100e+02   2.7195430e+01
   8.7688310e+02   3.5952760e+01
   8.7736520e+02   5.3349550e+01
   8.7784740e+02   7.4289550e+01
   8.7832950e+02   8.6922060e+01
   8.7881160e+02   9.1573240e+01
   8.7929370e+02   9.0295100e+01
   8.7977580e+02   7.1291500e+01
   8.8025790e+02   5.8643010e+01
   8.8074010e+02   7.8375240e+01
   8.8122220e+02   1.2107850e+02
   8.8170430e+02   1.3379480e+02
   8.8218640e+02   9.7378910e+01
   8.8266850e+02   6.0663640e+01
   8.8315060e+02   3.2265810e+01
   8.8363280e+02   1.5603270e+01
   8.8411490e+02   3.2654910e+01
   8.8459700e+02   7.8399480e+01
   8.8507910e+02   1.0947200e+02
   8.8556120e+02   9.7830380e+01
   8.8604330e+02   6.7225770e+01
   8.8652550e+02   2.3781860e+01
   8.8700760e+02   2.2942140e+01
   8.8748970e+02   4.2654790e+01
   8.8797180e+02   6.2304690e+00
   8.8845390e+02   4.2020570e+01
   8.8893600e+02   4.3203800e+01
   8.8941820e+02   2.0939330e+01
   8.8990030e+02   8.2311400e+00
   8.9038240e+02   5.3627930e+00
   8.9086450e+02   6.8331300e+00
   8.9134660e+02   1.0022090e+01
   8.9182870e+02   1.4675960e+01
   8.9231090e+02   1.7787900e+01
   8.9279300e+02   2.1731930e+01
   8.9327510e+02   3.2399050e+01
   8.9375720e+02   7.0441650e+01
   8.9423930e+02   9.4335210e+01
   8.9472140e+02   8.0927000e+01
   8.9520360e+02   4.8219060e+01
   8.9568570e+02   3.3411620e+01
   8.9616780e+02   4.0431400e+01
   8.9664990e+02   4.5435790e+01
   8.9713200e+02   4.2076290e+01
   8.9761410e+02   3.3294370e+01
   8.9809630e+02   1.4606930e+01
   8.9857840e+02   5.2933350e+00
   8.9906050e+02   3.1457520e+00
   8.9954260e+02   6.3506590e+01
   9.0002470e+02   1.0959160e+02
   9.0050680e+02   8.3440920e+01
   9.0098900e+02   1.9957400e+01
   9.0147110e+02   1.4292180e+01
   9.0195320e+02   9.4320070e+00
   9.0243530e+02   2.0196500e-01
   9.0291740e+02   9.2662960e+00
   9.0339950e+02   2.0448790e+01
   9.0388170e+02   4.2602720e+01
   9.0436380e+02   6.9359800e+01
   9.0484590e+02   7.5901060e+01
   9.0532800e+02   4.5681880e+01
   9.0581010e+02   1.7187870e+01
   9.0629220e+02   2.4087220e+01
   9.0677440e+02   4.4291560e+01
   9.0725650e+02   4.7442320e+01
   9.0773860e+02   1.2037290e+01
   9.0822070e+02   6.1707150e+00
   9.0870280e+02   8.9526400e-01
   9.0918490e+02   1.6381960e+01
   9.0966710e+02   1.3769100e+01
   9.1014920e+02   6.7504900e-01
   9.1063130e+02   1.1694760e+01
   9.1111340e+02   6.4763180e+01
   9.1159550e+02   1.0795710e+02
   9.1207760e+02   8.1126710e+01
   9.1255980e+02   3.1177800e+01
   9.1304190e+02   8.2926640e+00
   9.1352400e+02   3.5410710e+01
   9.1400610e+02   6.0647030e+01
   9.1448820e+02   8.5324280e+01
   9.1497030e+02   1.0309040e+02
   9.1545250e+02   1.0527450e+02
   9.1593460e+02   9.3303220e+01
   9.1641670e+02   9.0015320e+01
   9.1689880e+02   9.8192320e+01
   9.1738090e+02   9.8208250e+01
   9.1786300e+02   5.8393620e+01
   9.1834520e+02   1.0567870e+01
   9.1882730e+02   1.3127080e+01
   9.1930940e+02   6.2789920e+00
   9.1979150e+02   1.4436400e+01
   9.2027360e+02   6.3225650e+01
   9.2075570e+02   1.0403420e+02
   9.2123790e+02   1.1314960e+02
   9.2172000e+02   9.0914790e+01
   9.2220210e+02   8.0472230e+01
   9.2268420e+02   8.2371090e+01
   9.2316630e+02   7.8858950e+01
   9.2364840e+02   4.5366640e+01
   9.2413060e+02   6.0693360e+00
   9.2461270e+02   1.0625850e+01
   9.2509480e+02   4.1030880e+00
   9.2557690e+02   8.7447510e+00
   9.2605900e+02   3.5724850e+01
   9.2654110e+02   5.4227420e+01
   9.2702330e+02   4.8056030e+01
   9.2750540e+02   2.3299560e+01
   9.2798750e+02   4.5112550e+01
   9.2846960e+02   1.1460110e+02
   9.2895170e+02   1.6405730e+02
   9.2943380e+02   1.3444140e+02
   9.2991600e+02   7.7018620e+01
   9.3039810e+02   5.0519470e+01
   9.3088020e+02   5.0227970e+01
   9.3136230e+02   5.6018740e+01
   9.3184440e+02   7.1763240e+01
   9.3232650e+02   7.9743960e+01
   9.3280870e+02   7.2997310e+01
   9.3329080e+02   5.6080320e+01
   9.3377290e+02   4.2272340e+01
   9.3425500e+02   3.1397340e+01
   9.3473710e+02   2.4730590e+01
   9.3521920e+02   2.0791630e+01
   9.3570140e+02   2.4113650e+01
   9.3618350e+02   5.4112490e+01
   9.3666560e+02   9.4411440e+01
   9.3714770e+02   1.1069920e+02
   9.3762980e+02   6.4656800e+01
   9.3811190e+02   2.6514470e+01
   9.3859410e+02   1.3276000e+01
   9.3907620e+02   1.3874820e+01
   9.3955830e+02   9.6505740e+00
   9.4004040e+02   9.3573000e-01
   9.4052250e+02   1.0057620e+01
   9.4100460e+02   5.4056760e+01
   9.4148670e+02   9.8883730e+01
   9.4196880e+02   1.0173830e+02
   9.4245090e+02   8.0923580e+01
   9.4293300e+02   6.4134640e+01
   9.4341520e+02   5.9251770e+01
   9.4389730e+02   5.6202450e+01
   9.4437940e+02   5.1918520e+01
   9.4486150e+02   4.7606450e+01
   9.4534360e+02   4.7819340e+01
   9.4582570e+02   5.8124940e+01
   9.4630790e+02   5.6693360e+01
   9.4679000e+02   4.1653630e+01
   9.4727210e+02   2.3084960e+01
   9.4775420e+02   1.1080930e+00
   9.4823630e+02   1.4012270e+01
   9.4871840e+02   3.5413820e+00
   9.4920060e+02   3.7566650e+01
   9.4968270e+02   7.0130250e+01
   9.5016480e+02   7.4272460e+01
   9.5064690e+02   7.4154540e+01
   9.5112900e+02   8.2192140e+01
   9.5161110e+02   9.8391720e+01
   9.5209330e+02   9.3640080e+01
   9.5257540e+02   6.6583680e+01
   9.5305750e+02   4.3922790e+01
   9.5353960e+02   4.9682860e+01
   9.5402170e+02   6.5059810e+01
   9.5450380e+02   6.8252200e+01
   9.5498600e+02   6.0624630e+01
   9.5546810e+02   5.2433720e+01
   9.5595020e+02   4.0639400e+01
   9.5643230e+02   3.6418460e+01
   9.5691440e+02   4.5405880e+01
   9.5739650e+02   6.4448850e+01
   9.5787870e+02   8.5360960e+01
   9.5836080e+02   1.0812410e+02
   9.5884290e+02   1.1513260e+02
   9.5932500e+02   9.1968810e+01
   9.5980710e+02   5.9879820e+01
   9.6028920e+02   3.1105710e+01
   9.6077140e+02   1.1601560e+01
   9.6125350e+02   1.2680300e+01
   9.6173560e+02   7.6751280e+01
   9.6221770e+02   1.0834670e+02
   9.6269980e+02   7.8944640e+01
   9.6318190e+02   2.9595830e+01
   9.6366410e+02   2.9605650e+01
   9.6414620e+02   7.4747190e+01
   9.6462830e+02   9.1432190e+01
   9.6511040e+02   6.1288330e+01
   9.6559250e+02   2.3408140e+01
   9.6607460e+02   1.0325810e+01
   9.6655680e+02   1.2563170e+01
   9.6703890e+02   1.8081480e+01
   9.6752100e+02   2.3487980e+01
   9.6800310e+02   3.6580510e+01
   9.6848520e+02   6.4823730e+01
   9.6896730e+02   9.0295170e+01
   9.6944950e+02   9.5948240e+01
   9.6993160e+02   8.4600160e+01
   9.7041370e+02   8.2415530e+01
   9.7089580e+02   9.0062620e+01
   9.7137790e+02   9.5693600e+01
   9.7186000e+02   8.9073060e+01
   9.7234220e+02   7.7721920e+01
   9.7282430e+02   6.8513370e+01
   9.7330640e+02   6.2217220e+01
   9.7378850e+02   5.8451480e+01
   9.7427060e+02   5.8178830e+01
   9.7475270e+02   5.9684140e+01
   9.7523490e+02   6.3324280e+01
   9.7571700e+02   6.7725460e+01
   9.7619910e+02   6.8173580e+01
   9.7668120e+02   6.3917970e+01
   9.7716330e+02   5.5969600e+01
   9.7764540e+02   3.5858280e+01
   9.7812760e+02   2.0414120e+01
   9.7860970e+02   1.9621830e+01
   9.7909180e+02   3.0025700e+01
   9.7957390e+02   4.4611570e+01
   9.8005600e+02   6.6485050e+01
   9.8053810e+02   8.3596440e+01
   9.8102030e+02   9.5448240e+01
   9.8150240e+02   9.8677000e+01
   9.8198450e+02   8.2575440e+01
   9.8246660e+02   5.3476620e+01
   9.8294870e+02   2.8100160e+01
   9.8343080e+02   7.0547490e+00
   9.8391300e+02   6.0430900e-01
   9.8439510e+02   1.5978940e+01
   9.8487720e+02   4.4105470e+01
   9.8535930e+02   7.4192930e+01
   9.8584140e+02   1.1308090e+02
   9.8632350e+02   1.2356870e+02
   9.8680570e+02   1.0124480e+02
   9.8728780e+02   7.2066770e+01
   9.8776990e+02   5.5074520e+01
   9.8825200e+02   4.8467900e+01
   9.8873410e+02   5.1868770e+01
   9.8921620e+02   6.4866270e+01
   9.8969840e+02   7.8313290e+01
   9.9018050e+02   9.6368530e+01
   9.9066260e+02   1.0569110e+02
   9.9114470e+02   9.9268070e+01
   9.9162680e+02   7.9325070e+01
   9.9210890e+02   5.8890080e+01
   9.9259110e+02   3.7464540e+01
   9.9307320e+02   2.3245480e+01
   9.9355530e+02   2.3691470e+01
   9.9403740e+02   3.0243960e+01
   9.9451950e+02   3.1140440e+01
   9.9500160e+02   3.0512020e+01
   9.9548380e+02   3.8289920e+01
   9.9596590e+02   7.3747860e+01
   9.9644800e+02   9.4479190e+01
   9.9693010e+02   8.9533810e+01
   9.9741220e+02   7.4177670e+01
   9.9789430e+02   7.4016110e+01
   9.9837650e+02   8.7172060e+01
   9.9885860e+02   1.0076820e+02
   9.9934070e+02   1.1465360e+02
   9.9982280e+02   1.1775290e+02
   1.0003050e+03   9.0499940e+01
   1.0007870e+03   5.2820800e+01
   1.0012690e+03   2.5893860e+01
   1.0017510e+03   1.4677250e+01
   1.0022330e+03   1.2533750e+01
   1.0027160e+03   1.8151120e+01
   1.0031980e+03   2.2555790e+01
   1.0036800e+03   2.7644840e+01
   1.0041620e+03   3.2857970e+01
   1.0046440e+03   3.4225770e+01
   1.0051260e+03   3.2517460e+01
   1.0056080e+03   3.5608220e+01
   1.0060900e+03   6.3371950e+01
   1.0065720e+03   8.2323790e+01
   1.0070550e+03   5.9779660e+01
   1.0075370e+03   9.9081420e+00
   1.0080190e+03   3.0894170e+00
   1.0085010e+03   2.7971680e+01
   1.0089830e+03   5.2616520e+01
   1.0094650e+03   5.1305360e+01
   1.0099470e+03   4.0392400e+01
   1.0104290e+03   4.8145940e+01
   1.0109110e+03   6.4111150e+01
   1.0113940e+03   6.6967220e+01
   1.0118760e+03   2.8946960e+01
   1.0123580e+03   7.4315190e+00
   1.0128400e+03   2.2399780e+01
   1.0133220e+03   4.9254150e+01
   1.0138040e+03   6.4455140e+01
   1.0142860e+03   6.8191890e+01
   1.0147680e+03   5.7252750e+01
   1.0152510e+03   2.9724120e+01
   1.0157330e+03   6.9069820e+00
   1.0162150e+03   1.6717350e+01
   1.0166970e+03   3.4079160e+01
   1.0171790e+03   3.0756770e+01
   1.0176610e+03   9.1192600e-01
   1.0181430e+03   9.0963130e+00
   1.0186250e+03   1.1629580e+01
   1.0191070e+03   3.3982180e+01
   1.0195900e+03   4.5655030e+01
   1.0200720e+03   5.1651550e+01
   1.0205540e+03   6.1035280e+01
   1.0210360e+03   7.0534670e+01
   1.0215180e+03   7.5515380e+01
   1.0220000e+03   6.5478210e+01
   1.0224820e+03   5.7506900e+01
   1.0229640e+03   6.2509030e+01
   1.0234460e+03   7.4731320e+01
   1.0239290e+03   8.2761780e+01
   1.0244110e+03   8.6095640e+01
   1.0248930e+03   8.6563050e+01
   1.0253750e+03   8.3173160e+01
   1.0258570e+03   8.1340030e+01
   1.0263390e+03   9.2972720e+01
   1.0268210e+03   1.0872830e+02
   1.0273030e+03   1.1508660e+02
   1.0277860e+03   1.0996550e+02
   1.0282680e+03   9.2424010e+01
   1.0287500e+03   3.6370850e+01
   1.0292320e+03   3.4930420e+00
   1.0297140e+03   1.6799930e+01
   1.0301960e+03   9.1132020e+01
   1.0306780e+03   1.0241650e+02
   1.0311600e+03   5.2334290e+01
   1.0316420e+03   4.2457280e+00
   1.0321250e+03   4.2221070e+00
   1.0326070e+03   2.0362730e+01
   1.0330890e+03   3.5379520e+01
   1.0335710e+03   4.6524600e+01
   1.0340530e+03   4.5493160e+01
   1.0345350e+03   2.4739440e+01
   1.0350170e+03   8.9473270e+00
   1.0354990e+03   1.0240480e+00
   1.0359820e+03   3.5579830e+00
   1.0364640e+03   2.6246150e+01
   1.0369460e+03   6.2255680e+01
   1.0374280e+03   9.7249820e+01
   1.0379100e+03   1.3552360e+02
   1.0383920e+03   1.5002650e+02
   1.0388740e+03   9.9511960e+01
   1.0393560e+03   4.3751280e+01
   1.0398390e+03   3.2769900e+01
   1.0403210e+03   7.3935490e+01
   1.0408030e+03   8.8221370e+01
   1.0412850e+03   7.4061770e+01
   1.0417670e+03   5.7783450e+01
   1.0422490e+03   6.1301150e+01
   1.0427310e+03   7.1479130e+01
   1.0432130e+03   7.5915410e+01
   1.0436950e+03   7.4432980e+01
   1.0441770e+03   6.9054630e+01
   1.0446600e+03   5.6785640e+01
   1.0451420e+03   4.6452880e+01
   1.0456240e+03   3.9517880e+01
   1.0461060e+03   3.6145140e+01
   1.0465880e+03   3.8432920e+01
   1.0470700e+03   4.4691890e+01
   1.0475520e+03   4.9680300e+01
   1.0480340e+03   5.3272640e+01
   1.0485170e+03   5.1692200e+01
   1.0489990e+03   3.0426510e+01
   1.0494810e+03   1.1415530e+01
   1.0499630e+03   1.8464780e+01
   1.0504450e+03   6.1825620e+01
   1.0509270e+03   8.5656980e+01
   1.0514090e+03   8.8410460e+01
   1.0518910e+03   8.4192570e+01
   1.0523740e+03   7.8606320e+01
   1.0528560e+03   7.6274660e+01
   1.0533380e+03   8.7364380e+01
   1.0538200e+03   1.0984720e+02
   1.0543020e+03   1.2387950e+02
   1.0547840e+03   1.2190990e+02
   1.0552660e+03   1.1487250e+02
   1.0557480e+03   1.0584870e+02
   1.0562300e+03   9.3231080e+01
   1.0567130e+03   6.1180480e+01
   1.0571950e+03   1.7218260e+01
   1.0576770e+03   4.9464110e+00
   1.0581590e+03   5.7608580e+01
   1.0586410e+03   9.5640690e+01
   1.0591230e+03   3.8588930e+01
   1.0596050e+03   3.8062620e+01
   1.0600870e+03   4.8587460e+01
   1.0605690e+03   3.4545350e+01
   1.0610520e+03   7.3265560e+01
   1.0615340e+03   6.2441280e+01
   1.0620160e+03   4.1654360e+01
   1.0624980e+03   4.5762630e+01
   1.0629800e+03   5.8117250e+01
   1.0634620e+03   4.9645080e+01
   1.0639440e+03   2.3922180e+01
   1.0644260e+03   1.6218750e+01
   1.0649080e+03   6.1362060e+01
   1.0653910e+03   9.2054750e+01
   1.0658730e+03   8.8819890e+01
   1.0663550e+03   6.6911620e+01
   1.0668370e+03   5.9104190e+01
   1.0673190e+03   6.2430910e+01
   1.0678010e+03   6.3659610e+01
   1.0682830e+03   5.7901490e+01
   1.0687650e+03   5.2094420e+01
   1.0692480e+03   5.3113770e+01
   1.0697300e+03   5.4495480e+01
   1.0702120e+03   4.8015080e+01
   1.0706940e+03   2.9297240e+01
   1.0711760e+03   2.8812010e+01
   1.0716580e+03   4.9280090e+01
   1.0721400e+03   6.7825620e+01
   1.0726220e+03   5.8590580e+01
   1.0731040e+03   4.2618650e+01
   1.0735870e+03   5.4455320e+01
   1.0740690e+03   8.7204590e+01
   1.0745510e+03   9.7221440e+01
   1.0750330e+03   5.0415470e+01
   1.0755150e+03   1.6133180e+01
   1.0759970e+03   1.2330020e+01
   1.0764790e+03   2.3098820e+01
   1.0769610e+03   1.6987300e+00
   1.0774430e+03   3.5710270e+01
   1.0779260e+03   2.4636660e+01
   1.0784080e+03   6.9289610e+01
   1.0788900e+03   1.4460950e+02
   1.0793720e+03   1.2987860e+02
   1.0798540e+03   8.6784910e+01
   1.0803360e+03   6.4988830e+01
   1.0808180e+03   6.5849180e+01
   1.0813000e+03   7.1027710e+01
   1.0817830e+03   8.0866760e+01
   1.0822650e+03   8.9004090e+01
   1.0827470e+03   9.3972230e+01
   1.0832290e+03   9.3021790e+01
   1.0837110e+03   7.5175900e+01
   1.0841930e+03   4.8264340e+01
   1.0846750e+03   4.0706240e+01
   1.0851570e+03   7.6166200e+01
   1.0856400e+03   8.9317990e+01
   1.0861220e+03   6.5827640e+01
   1.0866040e+03   2.7050050e+01
   1.0870860e+03   4.8934940e+00
   1.0875680e+03   2.5724060e+01
   1.0880500e+03   2.8518920e+01
   1.0885320e+03   1.0202210e+01
   1.0890140e+03   1.3162110e+01
   1.0894960e+03   4.4691470e+01
   1.0899790e+03   6.8427250e+01
   1.0904610e+03   7.2307860e+01
   1.0909430e+03   5.9146970e+01
   1.0914250e+03   6.7499820e+01
   1.0919070e+03   9.4933110e+01
   1.0923890e+03   1.0772970e+02
   1.0928710e+03   6.8796140e+01
   1.0933530e+03   2.8132750e+01
   1.0938350e+03   2.7824160e+01
   1.0943180e+03   5.1301820e+01
   1.0948000e+03   6.4848210e+01
   1.0952820e+03   6.4862490e+01
   1.0957640e+03   5.9440310e+01
   1.0962460e+03   4.6985290e+01
   1.0967280e+03   2.1519530e+01
   1.0972100e+03   4.2306760e+01
   1.0976920e+03   5.4056090e+01
   1.0981750e+03   5.7350770e+01
   1.0986570e+03   2.6654480e+01
   1.0991390e+03   3.9841860e+01
   1.0996210e+03   3.5439450e+01
   1.1001030e+03   3.0313480e+01
   1.1005850e+03   4.9670170e+01
   1.1010670e+03   2.3905700e+01
   1.1015490e+03   4.2869450e+01
   1.1020310e+03   4.3975520e+01
   1.1025140e+03   5.3253600e+01
   1.1029960e+03   4.4830870e+01
   1.1034780e+03   4.1851260e+01
   1.1039600e+03   5.6557250e+01
   1.1044420e+03   6.1469670e+01
   1.1049240e+03   5.1001460e+01
   1.1054060e+03   6.0784240e+01
   1.1058880e+03   3.4379880e+01
   1.1063700e+03   3.9726560e+01
   1.1068530e+03   5.8717590e+01
   1.1073350e+03   4.8737730e+01
   1.1078170e+03   5.8624330e+01
   1.1082990e+03   6.1221620e+01
   1.1087810e+03   2.9743840e+01
   1.1092630e+03   5.7521850e+01
   1.1097450e+03   5.9671630e+01
   1.1102270e+03   3.5506590e+01
   1.1107100e+03   6.1251950e+01
   1.1111920e+03   4.0711550e+01
   1.1116740e+03   3.6689580e+01
   1.1121560e+03   4.5098820e+01
   1.1126380e+03   4.0546140e+01
   1.1131200e+03   1.3779720e+01
   1.1136020e+03   6.3351440e+00
   1.1140840e+03   8.4335940e+00
   1.1145670e+03   1.7793580e+00
   1.1150490e+03   2.8788640e+01
   1.1155310e+03   6.4893130e+01
   1.1160130e+03   7.0672850e+01
   1.1164950e+03   5.0489440e+01
   1.1169770e+03   3.1475160e+01
   1.1174590e+03   2.8086300e+01
   1.1179410e+03   2.3560610e+01
   1.1184230e+03   5.9386600e+00
   1.1189060e+03   1.2591610e+01
   1.1193880e+03   7.4217530e+00
   1.1198700e+03   2.3245850e+01
   1.1203520e+03   4.5052920e+01
   1.1208340e+03   5.4629150e+01
   1.1213160e+03   5.8178650e+01
   1.1217980e+03   5.5088380e+01
   1.1222800e+03   5.2670960e+01
   1.1227620e+03   6.2614500e+01
   1.1232450e+03   5.6716610e+01
   1.1237270e+03   8.4231380e+01
   1.1242090e+03   5.5988220e+01
   1.1246910e+03   3.6684140e+01
   1.1251730e+03   4.0419620e+01
   1.1256550e+03   5.3015200e+01
   1.1261370e+03   5.5127810e+01
   1.1266190e+03   5.0664550e+01
   1.1271020e+03   4.6313050e+01
   1.1275840e+03   4.4479860e+01
   1.1280660e+03   4.0055790e+01
   1.1285480e+03   2.7865840e+01
   1.1290300e+03   2.1218200e+01
   1.1295120e+03   3.4864140e+01
   1.1299940e+03   6.1507020e+01
   1.1304760e+03   7.5201420e+01
   1.1309580e+03   7.6245360e+01
   1.1314410e+03   6.6599060e+01
   1.1319230e+03   2.6079100e+01
   1.1324050e+03   1.0638430e+00
   1.1328870e+03   1.1729310e+01
   1.1333690e+03   4.2433650e+01
   1.1338510e+03   7.7997860e+01
   1.1343330e+03   1.1720700e+02
   1.1348150e+03   1.3008160e+02
   1.1352970e+03   1.0953390e+02
   1.1357800e+03   8.3689700e+01
   1.1362620e+03   6.2150940e+01
   1.1367440e+03   5.1234990e+01
   1.1372260e+03   6.7222350e+01
   1.1377080e+03   1.0467610e+02
   1.1381900e+03   1.1138010e+02
   1.1386720e+03   8.2909610e+01
   1.1391540e+03   6.9983890e+01
   1.1396370e+03   9.7789550e+01
   1.1401190e+03   1.3334960e+02
   1.1406010e+03   1.3897380e+02
   1.1410830e+03   1.2746030e+02
   1.1415650e+03   1.1588660e+02
   1.1420470e+03   1.0147600e+02
   1.1425290e+03   1.0299620e+02
   1.1430110e+03   1.2416190e+02
   1.1434940e+03   1.4875230e+02
   1.1439760e+03   1.6715940e+02
   1.1444580e+03   1.7976400e+02
   1.1449400e+03   1.8673220e+02
   1.1454220e+03   1.8746230e+02
   1.1459040e+03   1.8143120e+02
   1.1463860e+03   1.5801610e+02
   1.1468680e+03   1.4589320e+02
   1.1473500e+03   1.5102830e+02
   1.1478330e+03   1.6282910e+02
   1.1483150e+03   1.6825040e+02
   1.1487970e+03   1.6768120e+02
   1.1492790e+03   1.6313300e+02
   1.1497610e+03   1.5513710e+02
   1.1502430e+03   1.3917870e+02
   1.1507250e+03   1.0198990e+02
   1.1512070e+03   6.8066040e+01
   1.1516890e+03   4.4249630e+01
   1.1521720e+03   3.2966980e+01
   1.1526540e+03   5.8160710e+01
   1.1531360e+03   1.1126010e+02
   1.1536180e+03   1.2906100e+02
   1.1541000e+03   7.0212280e+01
   1.1545820e+03   1.4185300e+01
   1.1550640e+03   1.5946170e+01
   1.1555460e+03   3.9021060e+01
   1.1560280e+03   4.5995480e+01
   1.1565110e+03   3.4693120e+01
   1.1569930e+03   2.6707460e+01
   1.1574750e+03   2.2014470e+01
   1.1579570e+03   2.7880250e+01
   1.1584390e+03   6.1452880e+01
   1.1589210e+03   9.6012700e+01
   1.1594030e+03   1.1106760e+02
   1.1598850e+03   1.1024470e+02
   1.1603680e+03   1.0540320e+02
   1.1608500e+03   9.7548220e+01
   1.1613320e+03   8.1933470e+01
   1.1618140e+03   5.5779360e+01
   1.1622960e+03   3.3284850e+01
   1.1627780e+03   3.0027530e+01
   1.1632600e+03   3.8237490e+01
   1.1637420e+03   5.5784670e+01
   1.1642240e+03   8.1419620e+01
   1.1647070e+03   8.0677310e+01
   1.1651890e+03   3.8333070e+01
   1.1656710e+03   7.3900150e+00
   1.1661530e+03   2.6429440e+00
   1.1666350e+03   1.8024720e+01
   1.1671170e+03   6.2315310e+01
   1.1675990e+03   1.1383840e+02
   1.1680810e+03   1.3052820e+02
   1.1685630e+03   8.7148190e+01
   1.1690460e+03   5.9281680e+01
   1.1695280e+03   6.3111630e+01
   1.1700100e+03   6.6811460e+01
   1.1704920e+03   4.4177670e+01
   1.1709740e+03   1.0016910e+01
   1.1714560e+03   1.3180050e+01
   1.1719380e+03   4.3660160e+01
   1.1724200e+03   6.7310060e+01
   1.1729030e+03   6.4444340e+01
   1.1733850e+03   5.8648440e+01
   1.1738670e+03   5.4484740e+01
   1.1743490e+03   4.9671020e+01
   1.1748310e+03   4.2066710e+01
   1.1753130e+03   3.1678040e+01
   1.1757950e+03   1.3936460e+01
   1.1762770e+03   1.0050420e+01
   1.1767600e+03   1.9724120e+01
   1.1772420e+03   1.6827580e+01
   1.1777240e+03   4.8628910e+01
   1.1782060e+03   5.0497740e+01
   1.1786880e+03   3.6198120e+01
   1.1791700e+03   3.7333680e+01
   1.1796520e+03   5.1597350e+01
   1.1801340e+03   6.2220580e+01
   1.1806160e+03   6.6934940e+01
   1.1810990e+03   6.1147640e+01
   1.1815810e+03   2.5049070e+01
   1.1820630e+03   7.6170040e+00
   1.1825450e+03   1.2512510e+01
   1.1830270e+03   7.3693240e+00
   1.1835090e+03   3.4001590e+01
   1.1839910e+03   6.6402280e+01
   1.1844730e+03   7.7955870e+01
   1.1849550e+03   4.3982120e+01
   1.1854380e+03   1.1728760e+01
   1.1859200e+03   2.5886720e+01
   1.1864020e+03   5.7739010e+01
   1.1868840e+03   7.3323550e+01
   1.1873660e+03   6.9628050e+01
   1.1878480e+03   6.3583800e+01
   1.1883300e+03   5.5195250e+01
   1.1888120e+03   4.4614870e+01
   1.1892950e+03   1.8315800e+01
   1.1897770e+03   2.1810300e+00
   1.1902590e+03   3.5866640e+01
   1.1907410e+03   9.4356260e+01
   1.1912230e+03   1.1549210e+02
   1.1917050e+03   8.8773380e+01
   1.1921870e+03   5.7346680e+01
   1.1926690e+03   2.2171080e+01
   1.1931510e+03   2.9089400e-01
   1.1936340e+03   1.5742070e+01
   1.1941160e+03   4.5646420e+01
   1.1945980e+03   7.2083680e+01
   1.1950800e+03   9.0480830e+01
   1.1955620e+03   7.4838750e+01
   1.1960440e+03   6.5615230e+00
   1.1965260e+03   2.7696720e+01
   1.1970080e+03   1.6642460e+00
   1.1974900e+03   4.8798890e+01
   1.1979730e+03   9.3214600e+01
   1.1984550e+03   1.2574030e+02
   1.1989370e+03   1.3762470e+02
   1.1994190e+03   1.2579520e+02
   1.1999010e+03   9.5174320e+01
   1.2003830e+03   3.0551090e+01
   1.2008650e+03   3.4696040e+00
   1.2013470e+03   3.3753780e+01
   1.2018300e+03   9.9690920e+01
   1.2023120e+03   1.3053090e+02
   1.2027940e+03   1.3581160e+02
   1.2032760e+03   1.3116840e+02
   1.2037580e+03   1.1164420e+02
   1.2042400e+03   1.0216320e+02
   1.2047220e+03   1.0769730e+02
   1.2052040e+03   1.1233870e+02
   1.2056870e+03   9.4467960e+01
   1.2061690e+03   7.2872800e+01
   1.2066510e+03   9.9737850e+01
   1.2071330e+03   1.5609030e+02
   1.2076150e+03   1.8113060e+02
   1.2080970e+03   1.1900230e+02
   1.2085790e+03   7.9799680e+01
   1.2090610e+03   7.9360780e+01
   1.2095430e+03   8.9205380e+01
   1.2100260e+03   7.2893190e+01
   1.2105080e+03   4.5840210e+01
   1.2109900e+03   4.4773620e+01
   1.2114720e+03   6.8660160e+01
   1.2119540e+03   8.4079100e+01
   1.2124360e+03   7.5131770e+01
   1.2129180e+03   6.2838010e+01
   1.2134000e+03   4.7249330e+01
   1.2138820e+03   3.6549740e+01
   1.2143650e+03   4.8742190e+01
   1.2148470e+03   7.5187440e+01
   1.2153290e+03   1.0072700e+02
   1.2158110e+03   1.2431150e+02
   1.2162930e+03   1.2855710e+02
   1.2167750e+03   8.7126770e+01
   1.2172570e+03   5.9499150e+01
   1.2177390e+03   7.4626890e+01
   1.2182220e+03   1.0871600e+02
   1.2187040e+03   1.0026030e+02
   1.2191860e+03   6.5285710e+01
   1.2196680e+03   4.3659240e+01
   1.2201500e+03   5.1759460e+01
   1.2206320e+03   5.7877200e+01
   1.2211140e+03   5.2410770e+01
   1.2215960e+03   4.7075380e+01
   1.2220780e+03   4.7167910e+01
   1.2225610e+03   5.2992610e+01
   1.2230430e+03   7.3188600e+01
   1.2235250e+03   1.0020920e+02
   1.2240070e+03   1.1114470e+02
   1.2244890e+03   7.9927670e+01
   1.2249710e+03   5.6034550e+01
   1.2254530e+03   4.9108890e+01
   1.2259350e+03   4.8443480e+01
   1.2264170e+03   4.5823000e+01
   1.2269000e+03   4.1640620e+01
   1.2273820e+03   3.6283450e+01
   1.2278640e+03   3.0204590e+01
   1.2283460e+03   2.5636230e+01
   1.2288280e+03   1.9408750e+01
   1.2293100e+03   2.1682010e+01
   1.2297920e+03   3.7099430e+01
   1.2302740e+03   5.6079650e+01
   1.2307560e+03   6.6811580e+01
   1.2312390e+03   7.1795350e+01
   1.2317210e+03   8.0626770e+01
   1.2322030e+03   9.3061220e+01
   1.2326850e+03   9.3953550e+01
   1.2331670e+03   5.6234500e+01
   1.2336490e+03   3.6393370e+01
   1.2341310e+03   5.8707400e+01
   1.2346130e+03   9.3447450e+01
   1.2350960e+03   7.5356380e+01
   1.2355780e+03   2.5317500e+01
   1.2360600e+03   2.3287960e+00
   1.2365420e+03   1.9173340e+01
   1.2370240e+03   3.4138980e+01
   1.2375060e+03   2.7033200e+01
   1.2379880e+03   2.2115970e+01
   1.2384700e+03   2.6465090e+01
   1.2389530e+03   3.9581300e+01
   1.2394350e+03   7.1270390e+01
   1.2399170e+03   1.0954110e+02
   1.2403990e+03   1.1906910e+02
   1.2408810e+03   7.9054930e+01
   1.2413630e+03   4.7377380e+01
   1.2418450e+03   3.7689760e+01
   1.2423270e+03   3.6557560e+01
   1.2428090e+03   4.1709900e+01
   1.2432920e+03   5.0035280e+01
   1.2437740e+03   5.1921450e+01
   1.2442560e+03   5.1448550e+01
   1.2447380e+03   6.1103150e+01
   1.2452200e+03   1.0550290e+02
   1.2457020e+03   1.2231390e+02
   1.2461840e+03   9.6330570e+01
   1.2466660e+03   5.9296690e+01
   1.2471480e+03   2.9655700e+01
   1.2476310e+03   8.9881590e+00
   1.2481130e+03   1.9540410e+00
   1.2485950e+03   7.6140750e+00
   1.2490770e+03   2.3251770e+01
   1.2495590e+03   6.6085080e+01
   1.2500410e+03   9.0597110e+01
   1.2505230e+03   8.8781130e+01
   1.2510050e+03   7.5740360e+01
   1.2514880e+03   5.9097900e+01
   1.2519700e+03   4.6129760e+01
   1.2524520e+03   5.8785890e+01
   1.2529340e+03   9.2298890e+01
   1.2534160e+03   1.1109480e+02
   1.2538980e+03   8.7733640e+01
   1.2543800e+03   8.0923710e+01
   1.2548620e+03   1.0796150e+02
   1.2553440e+03   1.3245490e+02
   1.2558270e+03   8.6642150e+01
   1.2563090e+03   1.5725650e+01
   1.2567910e+03   3.0413820e+00
   1.2572730e+03   5.3333620e+01
   1.2577550e+03   8.6676450e+01
   1.2582370e+03   8.9505430e+01
   1.2587190e+03   7.7016970e+01
   1.2592010e+03   4.6883610e+01
   1.2596830e+03   1.7622990e+01
   1.2601660e+03   2.1560000e+01
   1.2606480e+03   4.0902220e+01
   1.2611300e+03   4.8221800e+01
   1.2616120e+03   3.8257630e+01
   1.2620940e+03   3.8810730e+01
   1.2625760e+03   5.6357180e+01
   1.2630580e+03   6.6526180e+01
   1.2635400e+03   6.0139830e+01
   1.2640230e+03   4.4203370e+01
   1.2645050e+03   1.9695860e+01
   1.2649870e+03   3.8215940e+00
   1.2654690e+03   1.3208860e+01
   1.2659510e+03   4.3618770e+00
   1.2664330e+03   1.3327700e+01
   1.2669150e+03   4.3589660e+01
   1.2673970e+03   6.1390810e+01
   1.2678800e+03   4.3704470e+01
   1.2683620e+03   2.5518070e+01
   1.2688440e+03   6.2947880e+01
   1.2693260e+03   1.1997120e+02
   1.2698080e+03   1.3938740e+02
   1.2702900e+03   1.1058440e+02
   1.2707720e+03   8.6635190e+01
   1.2712540e+03   6.7723390e+01
   1.2717360e+03   5.0510070e+01
   1.2722190e+03   2.7636050e+01
   1.2727010e+03   1.0848080e+01
   1.2731830e+03   1.3430360e+01
   1.2736650e+03   2.7471740e+01
   1.2741470e+03   4.1778750e+01
   1.2746290e+03   5.8662720e+01
   1.2751110e+03   5.4320370e+01
   1.2755930e+03   2.7994200e+01
   1.2760750e+03   6.9129640e+00
   1.2765580e+03   8.9702150e+00
   1.2770400e+03   2.1325320e+01
   1.2775220e+03   5.3155400e+01
   1.2780040e+03   8.4615050e+01
   1.2784860e+03   8.2496520e+01
   1.2789680e+03   4.6437070e+01
   1.2794500e+03   2.9074650e+01
   1.2799320e+03   3.3497130e+01
   1.2804150e+03   4.3349000e+01
   1.2808970e+03   5.3236940e+01
   1.2813790e+03   5.9604860e+01
   1.2818610e+03   6.2192500e+01
   1.2823430e+03   5.9145200e+01
   1.2828250e+03   3.7522520e+01
   1.2833070e+03   3.6748050e+00
   1.2837890e+03   1.1789920e+01
   1.2842710e+03   6.7213870e+01
   1.2847540e+03   1.1330900e+02
   1.2852360e+03   1.2613570e+02
   1.2857180e+03   1.1182240e+02
   1.2862000e+03   5.8458070e+01
   1.2866820e+03   4.0948500e-01
   1.2871640e+03   7.8162840e+00
   1.2876460e+03   0.0000000e+00
   1.5000000e+03   0.0000000e+00
