   1.0000000e+02   0.0000000e+00
   1.2459170e+02   0.0000000e+00
   1.2507390e+02   3.7422200e-01
   1.2555600e+02   1.3879240e+00
   1.2603810e+02   4.9431150e+00
   1.2652020e+02   1.0551970e+01
   1.2700230e+02   1.1623600e+01
   1.2748440e+02   1.0683110e+01
   1.2796660e+02   1.2704380e+01
   1.2844870e+02   1.7311550e+01
   1.2893080e+02   2.1473450e+01
   1.2941290e+02   2.1623930e+01
   1.2989500e+02   1.8407810e+01
   1.3037720e+02   1.5230680e+01
   1.3085930e+02   1.2219390e+01
   1.3134140e+02   9.9664310e+00
   1.3182350e+02   1.0509920e+01
   1.3230560e+02   1.3639160e+01
   1.3278770e+02   1.9880830e+01
   1.3326990e+02   2.9291140e+01
   1.3375200e+02   4.1840520e+01
   1.3423410e+02   5.9409700e+01
   1.3471620e+02   8.1804050e+01
   1.3519830e+02   1.0906910e+02
   1.3568040e+02   1.4487880e+02
   1.3616260e+02   1.8936610e+02
   1.3664470e+02   2.4154230e+02
   1.3712680e+02   3.0131640e+02
   1.3760890e+02   3.7018850e+02
   1.3809100e+02   4.3969720e+02
   1.3857310e+02   5.0798480e+02
   1.3905530e+02   5.8034860e+02
   1.3953740e+02   6.3028580e+02
   1.4001950e+02   6.5341140e+02
   1.4050160e+02   6.5321640e+02
   1.4098370e+02   6.4077880e+02
   1.4146580e+02   6.1149340e+02
   1.4194800e+02   5.7700820e+02
   1.4243010e+02   5.4378850e+02
   1.4291220e+02   5.0729840e+02
   1.4339430e+02   4.8183790e+02
   1.4387640e+02   4.6987330e+02
   1.4435850e+02   4.7132920e+02
   1.4484070e+02   4.7904320e+02
   1.4532280e+02   4.9093850e+02
   1.4580490e+02   5.1066260e+02
   1.4628700e+02   5.4188980e+02
   1.4676910e+02   5.8911410e+02
   1.4725120e+02   6.4145420e+02
   1.4773340e+02   6.9638300e+02
   1.4821550e+02   7.5383270e+02
   1.4869760e+02   8.1646250e+02
   1.4917970e+02   8.8557830e+02
   1.4966180e+02   9.5963820e+02
   1.5014390e+02   1.0359490e+03
   1.5062610e+02   1.1106880e+03
   1.5110820e+02   1.1902470e+03
   1.5159030e+02   1.2744450e+03
   1.5207240e+02   1.3588040e+03
   1.5255450e+02   1.4573040e+03
   1.5303660e+02   1.5802680e+03
   1.5351880e+02   1.7173060e+03
   1.5400090e+02   1.8474330e+03
   1.5448300e+02   1.9861800e+03
   1.5496510e+02   2.1050250e+03
   1.5544720e+02   2.1937360e+03
   1.5592930e+02   2.2547480e+03
   1.5641150e+02   2.2796920e+03
   1.5689360e+02   2.2629790e+03
   1.5737570e+02   2.2078980e+03
   1.5785780e+02   2.1264910e+03
   1.5833990e+02   2.0108150e+03
   1.5882210e+02   1.8765700e+03
   1.5930420e+02   1.7328080e+03
   1.5978630e+02   1.5662960e+03
   1.6026840e+02   1.4057470e+03
   1.6075050e+02   1.2594300e+03
   1.6123260e+02   1.1259090e+03
   1.6171480e+02   1.0047720e+03
   1.6219690e+02   8.9546530e+02
   1.6267900e+02   7.9796390e+02
   1.6316110e+02   7.1349770e+02
   1.6364320e+02   6.4533830e+02
   1.6412530e+02   5.8694000e+02
   1.6460750e+02   5.3465110e+02
   1.6508960e+02   4.8833520e+02
   1.6557170e+02   4.5085460e+02
   1.6605380e+02   4.2918210e+02
   1.6653590e+02   4.1644450e+02
   1.6701800e+02   4.0270790e+02
   1.6750020e+02   3.7945890e+02
   1.6798230e+02   3.5626150e+02
   1.6846440e+02   3.4062270e+02
   1.6894650e+02   3.3313120e+02
   1.6942860e+02   3.3205410e+02
   1.6991070e+02   3.4008950e+02
   1.7039290e+02   3.5483220e+02
   1.7087500e+02   3.6980230e+02
   1.7135710e+02   3.7995480e+02
   1.7183920e+02   3.8994620e+02
   1.7232130e+02   4.0436330e+02
   1.7280340e+02   4.2461620e+02
   1.7328560e+02   4.4706560e+02
   1.7376770e+02   4.6662340e+02
   1.7424980e+02   4.8711270e+02
   1.7473190e+02   5.1283390e+02
   1.7521400e+02   5.4845000e+02
   1.7569610e+02   5.8886610e+02
   1.7617830e+02   6.2885350e+02
   1.7666040e+02   6.7008110e+02
   1.7714250e+02   7.0618630e+02
   1.7762460e+02   7.3129450e+02
   1.7810670e+02   7.4413450e+02
   1.7858880e+02   7.4137030e+02
   1.7907100e+02   7.1546480e+02
   1.7955310e+02   6.7271300e+02
   1.8003520e+02   6.2535800e+02
   1.8051730e+02   5.7441370e+02
   1.8099940e+02   5.2256580e+02
   1.8148150e+02   4.7425540e+02
   1.8196370e+02   4.2910840e+02
   1.8244580e+02   3.8785120e+02
   1.8292790e+02   3.5232030e+02
   1.8341000e+02   3.2256450e+02
   1.8389210e+02   2.9765310e+02
   1.8437420e+02   2.7801460e+02
   1.8485640e+02   2.6263290e+02
   1.8533850e+02   2.5006090e+02
   1.8582060e+02   2.4023990e+02
   1.8630270e+02   2.3252660e+02
   1.8678480e+02   2.2613820e+02
   1.8726690e+02   2.2115590e+02
   1.8774910e+02   2.1790910e+02
   1.8823120e+02   2.1600120e+02
   1.8871330e+02   2.1588150e+02
   1.8919540e+02   2.1966050e+02
   1.8967750e+02   2.2766670e+02
   1.9015960e+02   2.3803720e+02
   1.9064180e+02   2.4810820e+02
   1.9112390e+02   2.5792760e+02
   1.9160600e+02   2.7068520e+02
   1.9208810e+02   2.8775000e+02
   1.9257020e+02   3.0895950e+02
   1.9305240e+02   3.3293320e+02
   1.9353450e+02   3.5955010e+02
   1.9401660e+02   3.8903850e+02
   1.9449870e+02   4.2181560e+02
   1.9498080e+02   4.5801760e+02
   1.9546290e+02   4.9561820e+02
   1.9594510e+02   5.3443750e+02
   1.9642720e+02   5.7487790e+02
   1.9690930e+02   6.1339920e+02
   1.9739140e+02   6.5287370e+02
   1.9787350e+02   6.8574330e+02
   1.9835560e+02   6.9876840e+02
   1.9883780e+02   6.9180160e+02
   1.9931990e+02   6.6641450e+02
   1.9980200e+02   6.1812890e+02
   2.0028410e+02   5.4568620e+02
   2.0076620e+02   4.7454530e+02
   2.0124830e+02   4.0395160e+02
   2.0173050e+02   3.3747180e+02
   2.0221260e+02   2.8547730e+02
   2.0269470e+02   2.5044320e+02
   2.0317680e+02   2.2066110e+02
   2.0365890e+02   1.8785770e+02
   2.0414100e+02   1.5078960e+02
   2.0462320e+02   1.2211750e+02
   2.0510530e+02   1.0467190e+02
   2.0558740e+02   9.5602110e+01
   2.0606950e+02   8.5484010e+01
   2.0655160e+02   7.3666140e+01
   2.0703370e+02   6.2508180e+01
   2.0751590e+02   5.3837800e+01
   2.0799800e+02   4.8373780e+01
   2.0848010e+02   4.2756680e+01
   2.0896220e+02   3.6450380e+01
   2.0944430e+02   2.9687770e+01
   2.0992640e+02   2.3800690e+01
   2.1040860e+02   1.9288150e+01
   2.1089070e+02   1.4622220e+01
   2.1137280e+02   8.1009520e+00
   2.1185490e+02   1.6368410e+00
   2.1233700e+02   8.6434630e+00
   2.1281910e+02   1.1406520e+01
   2.1330130e+02   1.0460910e+01
   2.1378340e+02   1.0535920e+01
   2.1426550e+02   1.1907650e+01
   2.1474760e+02   1.3867250e+01
   2.1522970e+02   1.6102600e+01
   2.1571180e+02   1.9327150e+01
   2.1619400e+02   2.0816280e+01
   2.1667610e+02   1.9525510e+01
   2.1715820e+02   1.5625610e+01
   2.1764030e+02   1.3020570e+01
   2.1812240e+02   1.2103210e+01
   2.1860450e+02   1.1983030e+01
   2.1908670e+02   1.1819550e+01
   2.1956880e+02   1.1456880e+01
   2.2005090e+02   1.1531130e+01
   2.2053300e+02   1.2904510e+01
   2.2101510e+02   1.5704470e+01
   2.2149720e+02   1.4389740e+01
   2.2197940e+02   6.1697080e+00
   2.2246150e+02   3.0595700e+00
   2.2294360e+02   6.6190190e+00
   2.2342570e+02   1.4697270e+00
   2.2390780e+02   3.1653440e+00
   2.2438990e+02   5.3177490e+00
   2.2487210e+02   4.9362180e+00
   2.2535420e+02   2.9321900e+00
   2.2583630e+02   2.1611630e+00
   2.2631840e+02   7.5008850e+00
   2.2680050e+02   9.6294860e+00
   2.2728270e+02   7.2484130e+00
   2.2776480e+02   4.0466920e+00
   2.2824690e+02   6.1303700e-01
   2.2872900e+02   3.2072750e+00
   2.2921110e+02   5.9968570e+00
   2.2969320e+02   7.7373660e+00
   2.3017540e+02   8.4279790e+00
   2.3065750e+02   8.0111690e+00
   2.3113960e+02   6.1808470e+00
   2.3162170e+02   3.7798460e+00
   2.3210380e+02   1.2111510e+00
   2.3258590e+02   1.2567140e+00
   2.3306810e+02   5.5777280e+00
   2.3355020e+02   1.3209780e+01
   2.3403230e+02   2.1635100e+01
   2.3451440e+02   2.7114810e+01
   2.3499650e+02   2.8034850e+01
   2.3547860e+02   2.8603730e+01
   2.3596080e+02   2.9570950e+01
   2.3644290e+02   3.0330320e+01
   2.3692500e+02   3.4466890e+01
   2.3740710e+02   4.3835210e+01
   2.3788920e+02   5.5411070e+01
   2.3837130e+02   6.4233640e+01
   2.3885350e+02   6.8500060e+01
   2.3933560e+02   7.3034180e+01
   2.3981770e+02   7.9530730e+01
   2.4029980e+02   8.8717500e+01
   2.4078190e+02   9.6970830e+01
   2.4126400e+02   1.0320160e+02
   2.4174620e+02   1.0925820e+02
   2.4222830e+02   1.1838460e+02
   2.4271040e+02   1.3129460e+02
   2.4319250e+02   1.4614320e+02
   2.4367460e+02   1.6296730e+02
   2.4415670e+02   1.8325240e+02
   2.4463890e+02   2.0019560e+02
   2.4512100e+02   2.1098520e+02
   2.4560310e+02   2.2006100e+02
   2.4608520e+02   2.3512140e+02
   2.4656730e+02   2.5725840e+02
   2.4704940e+02   2.8356980e+02
   2.4753160e+02   3.1381430e+02
   2.4801370e+02   3.4965210e+02
   2.4849580e+02   3.8350760e+02
   2.4897790e+02   4.1247400e+02
   2.4946000e+02   4.4094390e+02
   2.4994210e+02   4.7663330e+02
   2.5042430e+02   5.2230130e+02
   2.5090640e+02   5.7059750e+02
   2.5138850e+02   6.1814610e+02
   2.5187060e+02   6.6280990e+02
   2.5235270e+02   7.1525440e+02
   2.5283480e+02   7.7688610e+02
   2.5331700e+02   8.4469060e+02
   2.5379910e+02   9.1309140e+02
   2.5428120e+02   9.8068720e+02
   2.5476330e+02   1.0503550e+03
   2.5524540e+02   1.1269560e+03
   2.5572750e+02   1.2173800e+03
   2.5620970e+02   1.2863250e+03
   2.5669180e+02   1.3321750e+03
   2.5717390e+02   1.3573100e+03
   2.5765600e+02   1.3637800e+03
   2.5813810e+02   1.3442790e+03
   2.5862020e+02   1.3195040e+03
   2.5910240e+02   1.2941040e+03
   2.5958450e+02   1.2641810e+03
   2.6006660e+02   1.2511690e+03
   2.6054870e+02   1.2579910e+03
   2.6103080e+02   1.2795900e+03
   2.6151290e+02   1.3083790e+03
   2.6199510e+02   1.3459790e+03
   2.6247720e+02   1.3863950e+03
   2.6295930e+02   1.4283100e+03
   2.6344140e+02   1.4738390e+03
   2.6392350e+02   1.5136490e+03
   2.6440560e+02   1.5515670e+03
   2.6488780e+02   1.5805580e+03
   2.6536990e+02   1.5893100e+03
   2.6585200e+02   1.5765080e+03
   2.6633410e+02   1.5473540e+03
   2.6681620e+02   1.5013540e+03
   2.6729830e+02   1.4369760e+03
   2.6778050e+02   1.3656970e+03
   2.6826260e+02   1.2818850e+03
   2.6874470e+02   1.1981410e+03
   2.6922680e+02   1.1376300e+03
   2.6970890e+02   1.1045640e+03
   2.7019100e+02   1.0789960e+03
   2.7067320e+02   1.0538290e+03
   2.7115530e+02   1.0290730e+03
   2.7163740e+02   1.0069930e+03
   2.7211950e+02   9.8558900e+02
   2.7260160e+02   9.6957040e+02
   2.7308370e+02   9.6779360e+02
   2.7356590e+02   9.8148210e+02
   2.7404800e+02   1.0024060e+03
   2.7453010e+02   1.0268100e+03
   2.7501220e+02   1.0545090e+03
   2.7549430e+02   1.0941820e+03
   2.7597640e+02   1.1466850e+03
   2.7645860e+02   1.2092220e+03
   2.7694070e+02   1.2783620e+03
   2.7742280e+02   1.3531300e+03
   2.7790490e+02   1.4348930e+03
   2.7838700e+02   1.5242200e+03
   2.7886910e+02   1.6208470e+03
   2.7935130e+02   1.7210220e+03
   2.7983340e+02   1.8251700e+03
   2.8031550e+02   1.9332170e+03
   2.8079760e+02   2.0489770e+03
   2.8127980e+02   2.1718610e+03
   2.8176190e+02   2.2863220e+03
   2.8224400e+02   2.3920380e+03
   2.8272610e+02   2.4866630e+03
   2.8320820e+02   2.5521470e+03
   2.8369030e+02   2.5888290e+03
   2.8417250e+02   2.5958650e+03
   2.8465460e+02   2.5732930e+03
   2.8513670e+02   2.5211180e+03
   2.8561880e+02   2.4342260e+03
   2.8610090e+02   2.3027500e+03
   2.8658300e+02   2.1341750e+03
   2.8706520e+02   1.9552260e+03
   2.8754730e+02   1.7658000e+03
   2.8802940e+02   1.5779960e+03
   2.8851150e+02   1.4015310e+03
   2.8899360e+02   1.2366440e+03
   2.8947570e+02   1.0908040e+03
   2.8995790e+02   9.6833640e+02
   2.9044000e+02   8.6540080e+02
   2.9092210e+02   7.6745490e+02
   2.9140420e+02   6.7409500e+02
   2.9188630e+02   5.9071700e+02
   2.9236840e+02   5.2451630e+02
   2.9285060e+02   4.7380790e+02
   2.9333270e+02   4.3021480e+02
   2.9381480e+02   3.9181050e+02
   2.9429690e+02   3.5816280e+02
   2.9477900e+02   3.2813100e+02
   2.9526110e+02   3.0160730e+02
   2.9574330e+02   2.7762390e+02
   2.9622540e+02   2.5483200e+02
   2.9670750e+02   2.3345050e+02
   2.9718960e+02   2.1501260e+02
   2.9767170e+02   2.0041980e+02
   2.9815380e+02   1.8806180e+02
   2.9863600e+02   1.7603700e+02
   2.9911810e+02   1.6424250e+02
   2.9960020e+02   1.5276710e+02
   3.0008230e+02   1.4226320e+02
   3.0056440e+02   1.3194040e+02
   3.0104650e+02   1.1973470e+02
   3.0152870e+02   1.0278680e+02
   3.0201080e+02   8.6663020e+01
   3.0249290e+02   8.0016600e+01
   3.0297500e+02   8.1203550e+01
   3.0345710e+02   8.1178220e+01
   3.0393920e+02   7.1976230e+01
   3.0442140e+02   5.8431790e+01
   3.0490350e+02   4.6853910e+01
   3.0538560e+02   3.9450960e+01
   3.0586770e+02   3.3671110e+01
   3.0634980e+02   2.7412380e+01
   3.0683190e+02   2.1036010e+01
   3.0731410e+02   1.5689060e+01
   3.0779620e+02   1.3274380e+01
   3.0827830e+02   1.1725070e+01
   3.0876040e+02   8.4732670e+00
   3.0924250e+02   1.5929570e+00
   3.0972460e+02   3.7666930e+00
   3.1020680e+02   2.4609070e+00
   3.1068890e+02   3.1651310e+00
   3.1117100e+02   7.0283200e+00
   3.1165310e+02   4.5647580e+00
   3.1213520e+02   2.1069300e-01
   3.1261730e+02   2.6691890e+00
   3.1309950e+02   2.9740300e+00
   3.1358160e+02   3.3568120e+00
   3.1406370e+02   6.7682500e+00
   3.1454580e+02   1.1022490e+01
   3.1502790e+02   1.2053100e+01
   3.1551000e+02   4.3362430e+00
   3.1599220e+02   4.0262760e+00
   3.1647430e+02   8.4473880e+00
   3.1695640e+02   7.5451050e+00
   3.1743850e+02   6.2395320e+00
   3.1792060e+02   5.6209110e+00
   3.1840270e+02   5.6892090e+00
   3.1888490e+02   6.4446720e+00
   3.1936700e+02   6.4338990e+00
   3.1984910e+02   8.3883670e+00
   3.2033120e+02   1.4691770e+01
   3.2081330e+02   2.6833620e+01
   3.2129540e+02   3.5935640e+01
   3.2177760e+02   3.7310390e+01
   3.2225970e+02   3.5916290e+01
   3.2274180e+02   3.7013150e+01
   3.2322390e+02   4.0732820e+01
   3.2370600e+02   4.7300810e+01
   3.2418810e+02   5.8022980e+01
   3.2467030e+02   7.3531280e+01
   3.2515240e+02   8.7786470e+01
   3.2563450e+02   9.9633360e+01
   3.2611660e+02   1.1038910e+02
   3.2659870e+02   1.2108190e+02
   3.2708080e+02   1.3031480e+02
   3.2756300e+02   1.4131850e+02
   3.2804510e+02   1.5483740e+02
   3.2852720e+02   1.7081750e+02
   3.2900930e+02   1.8789270e+02
   3.2949140e+02   2.0940670e+02
   3.2997350e+02   2.2830520e+02
   3.3045570e+02   2.4036980e+02
   3.3093780e+02   2.4664950e+02
   3.3141990e+02   2.4424440e+02
   3.3190200e+02   2.3014870e+02
   3.3238410e+02   2.0674680e+02
   3.3286620e+02   1.8549730e+02
   3.3334840e+02   1.6712980e+02
   3.3383050e+02   1.5002380e+02
   3.3431260e+02   1.3332540e+02
   3.3479470e+02   1.1737200e+02
   3.3527680e+02   1.0113270e+02
   3.3575890e+02   8.3842680e+01
   3.3624110e+02   6.6669280e+01
   3.3672320e+02   5.1663480e+01
   3.3720530e+02   3.8417600e+01
   3.3768740e+02   2.8869780e+01
   3.3816950e+02   2.5445500e+01
   3.3865160e+02   2.9309630e+01
   3.3913380e+02   2.8943540e+01
   3.3961590e+02   2.3087710e+01
   3.4009800e+02   1.4661870e+01
   3.4058010e+02   8.4956970e+00
   3.4106220e+02   4.6550900e+00
   3.4154430e+02   1.8468320e+00
   3.4202650e+02   6.1566200e-01
   3.4250860e+02   2.6255190e+00
   3.4299070e+02   2.9292600e+00
   3.4347280e+02   1.1331480e+00
   3.4395490e+02   8.3822600e-01
   3.4443700e+02   4.5178200e-01
   3.4491920e+02   4.4868160e+00
   3.4540130e+02   6.1830750e+00
   3.4588340e+02   2.1541750e+00
   3.4636550e+02   5.0703130e+00
   3.4684760e+02   7.9677430e+00
   3.4732970e+02   6.3828430e+00
   3.4781190e+02   4.7019040e+00
   3.4829400e+02   7.2545780e+00
   3.4877610e+02   1.3058720e+01
   3.4925820e+02   1.9320280e+01
   3.4974030e+02   2.6497680e+01
   3.5022250e+02   3.2639130e+01
   3.5070460e+02   3.3729860e+01
   3.5118670e+02   3.0420620e+01
   3.5166880e+02   2.7655490e+01
   3.5215090e+02   2.9329650e+01
   3.5263310e+02   3.3733490e+01
   3.5311520e+02   3.8467290e+01
   3.5359730e+02   4.3341490e+01
   3.5407940e+02   4.7773160e+01
   3.5456150e+02   5.1916200e+01
   3.5504360e+02   5.5333560e+01
   3.5552580e+02   5.6695650e+01
   3.5600790e+02   5.2885930e+01
   3.5649000e+02   4.8023960e+01
   3.5697210e+02   4.6132630e+01
   3.5745420e+02   4.8797940e+01
   3.5793630e+02   5.1148680e+01
   3.5841850e+02   5.0396700e+01
   3.5890060e+02   4.7488160e+01
   3.5938270e+02   4.4060420e+01
   3.5986480e+02   3.9896180e+01
   3.6034690e+02   3.6055150e+01
   3.6082900e+02   3.2647740e+01
   3.6131120e+02   2.9867310e+01
   3.6179330e+02   3.0111760e+01
   3.6227540e+02   3.6417970e+01
   3.6275750e+02   4.4634030e+01
   3.6323960e+02   5.0585140e+01
   3.6372170e+02   5.0255250e+01
   3.6420390e+02   5.0930450e+01
   3.6468600e+02   5.4913850e+01
   3.6516810e+02   6.1961880e+01
   3.6565020e+02   6.7716370e+01
   3.6613230e+02   6.9822940e+01
   3.6661440e+02   7.2706360e+01
   3.6709660e+02   7.8906100e+01
   3.6757870e+02   9.0752990e+01
   3.6806080e+02   1.0200090e+02
   3.6854290e+02   1.1222760e+02
   3.6902500e+02   1.2148600e+02
   3.6950710e+02   1.3061870e+02
   3.6998930e+02   1.4055280e+02
   3.7047140e+02   1.4892900e+02
   3.7095350e+02   1.5543700e+02
   3.7143560e+02   1.6153770e+02
   3.7191770e+02   1.6293290e+02
   3.7239980e+02   1.5892200e+02
   3.7288200e+02   1.4958110e+02
   3.7336410e+02   1.3551630e+02
   3.7384620e+02   1.1488700e+02
   3.7432830e+02   9.4197360e+01
   3.7481040e+02   7.5658810e+01
   3.7529250e+02   5.8962250e+01
   3.7577470e+02   4.6964020e+01
   3.7625680e+02   4.0826570e+01
   3.7673890e+02   3.6882080e+01
   3.7722100e+02   2.9801570e+01
   3.7770310e+02   1.9269810e+01
   3.7818520e+02   1.0151490e+01
   3.7866740e+02   3.7875980e+00
   3.7914950e+02   9.8879999e-03
   3.7963160e+02   2.0094300e+00
   3.8011370e+02   2.2272340e+00
   3.8059580e+02   9.5068400e-01
   3.8107790e+02   3.1963200e+00
   3.8156010e+02   9.2244870e+00
   3.8204220e+02   1.1506740e+01
   3.8252430e+02   7.2711180e+00
   3.8300640e+02   7.4011200e-01
   3.8348850e+02   6.8563800e-01
   3.8397060e+02   2.4145200e+00
   3.8445280e+02   5.8460080e+00
   3.8493490e+02   6.9957890e+00
   3.8541700e+02   6.5689700e+00
   3.8589910e+02   5.3001710e+00
   3.8638120e+02   2.6948850e+00
   3.8686330e+02   1.2116390e+00
   3.8734550e+02   4.5900880e+00
   3.8782760e+02   1.0903110e+01
   3.8830970e+02   1.5800900e+01
   3.8879180e+02   1.5824490e+01
   3.8927390e+02   1.4302060e+01
   3.8975600e+02   1.3254430e+01
   3.9023820e+02   1.2703700e+01
   3.9072030e+02   1.4270480e+01
   3.9120240e+02   2.0893770e+01
   3.9168450e+02   2.9395660e+01
   3.9216660e+02   3.6203370e+01
   3.9264870e+02   3.5654850e+01
   3.9313090e+02   3.7353420e+01
   3.9361300e+02   4.7244480e+01
   3.9409510e+02   6.4468440e+01
   3.9457720e+02   7.8289220e+01
   3.9505930e+02   8.1843690e+01
   3.9554140e+02   8.3767430e+01
   3.9602360e+02   8.9421390e+01
   3.9650570e+02   1.0290640e+02
   3.9698780e+02   1.1620560e+02
   3.9746990e+02   1.2799990e+02
   3.9795200e+02   1.3896760e+02
   3.9843410e+02   1.5111570e+02
   3.9891630e+02   1.6536680e+02
   3.9939840e+02   1.7976210e+02
   3.9988050e+02   1.9317740e+02
   4.0036260e+02   2.0408790e+02
   4.0084470e+02   2.1930840e+02
   4.0132680e+02   2.4488620e+02
   4.0180900e+02   2.7043130e+02
   4.0229110e+02   2.8087600e+02
   4.0277320e+02   2.7190380e+02
   4.0325530e+02   2.5811610e+02
   4.0373740e+02   2.4249130e+02
   4.0421950e+02   2.2510560e+02
   4.0470170e+02   2.0913200e+02
   4.0518380e+02   1.9465950e+02
   4.0566590e+02   1.8110600e+02
   4.0614800e+02   1.6680610e+02
   4.0663010e+02   1.5158400e+02
   4.0711220e+02   1.4143930e+02
   4.0759440e+02   1.3771870e+02
   4.0807650e+02   1.3942860e+02
   4.0855860e+02   1.4561490e+02
   4.0904070e+02   1.5621830e+02
   4.0952280e+02   1.6701720e+02
   4.1000490e+02   1.7584940e+02
   4.1048710e+02   1.8263860e+02
   4.1096920e+02   1.8819960e+02
   4.1145130e+02   1.9344680e+02
   4.1193340e+02   1.9404480e+02
   4.1241550e+02   1.8399690e+02
   4.1289760e+02   1.6500640e+02
   4.1337980e+02   1.4263000e+02
   4.1386190e+02   1.1472540e+02
   4.1434400e+02   8.7089110e+01
   4.1482610e+02   6.5417940e+01
   4.1530820e+02   4.9780000e+01
   4.1579030e+02   3.7773160e+01
   4.1627250e+02   2.9556490e+01
   4.1675460e+02   2.3307340e+01
   4.1723670e+02   1.6815610e+01
   4.1771880e+02   9.3658750e+00
   4.1820090e+02   1.7364500e+00
   4.1868300e+02   6.8406070e+00
   4.1916520e+02   1.5615230e+01
   4.1964730e+02   2.1505890e+01
   4.2012940e+02   2.1343230e+01
   4.2061150e+02   1.9672670e+01
   4.2109370e+02   1.9150880e+01
   4.2157580e+02   2.1538240e+01
   4.2205790e+02   2.2043850e+01
   4.2254000e+02   1.7196990e+01
   4.2302210e+02   1.0682310e+01
   4.2350420e+02   8.5153200e+00
   4.2398640e+02   1.6272000e+01
   4.2446850e+02   2.2354060e+01
   4.2495060e+02   2.3870180e+01
   4.2543270e+02   2.0447690e+01
   4.2591480e+02   1.7043430e+01
   4.2639690e+02   1.3726720e+01
   4.2687910e+02   1.0347720e+01
   4.2736120e+02   6.3016970e+00
   4.2784330e+02   3.3401500e-01
   4.2832540e+02   1.9192810e+00
   4.2880750e+02   2.0834350e+00
   4.2928960e+02   9.6761470e+00
   4.2977180e+02   1.1123540e+01
   4.3025390e+02   5.4558410e+00
   4.3073600e+02   1.1067810e+00
   4.3121810e+02   3.6691280e+00
   4.3170020e+02   2.7779240e+00
   4.3218230e+02   7.5697940e+00
   4.3266450e+02   1.9780520e+01
   4.3314660e+02   3.3430850e+01
   4.3362870e+02   3.9008970e+01
   4.3411080e+02   3.8101320e+01
   4.3459290e+02   3.8630190e+01
   4.3507500e+02   4.4367860e+01
   4.3555720e+02   5.3294130e+01
   4.3603930e+02   6.0756560e+01
   4.3652140e+02   6.6911320e+01
   4.3700350e+02   7.6731170e+01
   4.3748560e+02   9.7534820e+01
   4.3796770e+02   1.2351450e+02
   4.3844990e+02   1.4615280e+02
   4.3893200e+02   1.6164270e+02
   4.3941410e+02   1.7646080e+02
   4.3989620e+02   1.9364890e+02
   4.4037830e+02   2.1324110e+02
   4.4086040e+02   2.3605400e+02
   4.4134260e+02   2.6274070e+02
   4.4182470e+02   2.9292850e+02
   4.4230680e+02   3.2589760e+02
   4.4278890e+02   3.6111330e+02
   4.4327100e+02   4.0064020e+02
   4.4375310e+02   4.4769040e+02
   4.4423530e+02   4.9809030e+02
   4.4471740e+02   5.4817800e+02
   4.4519950e+02   5.9591630e+02
   4.4568160e+02   6.4473800e+02
   4.4616370e+02   6.9287320e+02
   4.4664580e+02   7.4063260e+02
   4.4712800e+02   7.9786130e+02
   4.4761010e+02   8.6836860e+02
   4.4809220e+02   9.4448960e+02
   4.4857430e+02   1.0209960e+03
   4.4905640e+02   1.0965610e+03
   4.4953850e+02   1.1790690e+03
   4.5002070e+02   1.2716450e+03
   4.5050280e+02   1.3682450e+03
   4.5098490e+02   1.4596460e+03
   4.5146700e+02   1.5467520e+03
   4.5194910e+02   1.6204660e+03
   4.5243120e+02   1.6827070e+03
   4.5291340e+02   1.7301550e+03
   4.5339550e+02   1.7390030e+03
   4.5387760e+02   1.7083810e+03
   4.5435970e+02   1.6464820e+03
   4.5484180e+02   1.5520780e+03
   4.5532390e+02   1.4304820e+03
   4.5580610e+02   1.3061240e+03
   4.5628820e+02   1.1791550e+03
   4.5677030e+02   1.0577900e+03
   4.5725240e+02   9.4967240e+02
   4.5773450e+02   8.5599540e+02
   4.5821660e+02   7.7944070e+02
   4.5869880e+02   7.2948610e+02
   4.5918090e+02   6.9444560e+02
   4.5966300e+02   6.6272830e+02
   4.6014510e+02   6.3244640e+02
   4.6062720e+02   6.0821490e+02
   4.6110930e+02   5.8875590e+02
   4.6159150e+02   5.7835220e+02
   4.6207360e+02   5.8287030e+02
   4.6255570e+02   6.1799730e+02
   4.6303780e+02   6.5483750e+02
   4.6351990e+02   6.8054790e+02
   4.6400200e+02   6.9685730e+02
   4.6448420e+02   7.1898000e+02
   4.6496630e+02   7.5142670e+02
   4.6544840e+02   7.8927960e+02
   4.6593050e+02   8.2978080e+02
   4.6641260e+02   8.6944120e+02
   4.6689470e+02   9.1856000e+02
   4.6737690e+02   9.7896510e+02
   4.6785900e+02   1.0477330e+03
   4.6834110e+02   1.1211770e+03
   4.6882320e+02   1.1987280e+03
   4.6930530e+02   1.2817210e+03
   4.6978740e+02   1.3717760e+03
   4.7026960e+02   1.4686160e+03
   4.7075170e+02   1.5677420e+03
   4.7123380e+02   1.6694430e+03
   4.7171590e+02   1.7716850e+03
   4.7219800e+02   1.8760710e+03
   4.7268010e+02   1.9825250e+03
   4.7316230e+02   2.0733090e+03
   4.7364440e+02   2.1495410e+03
   4.7412650e+02   2.2036060e+03
   4.7460860e+02   2.2244510e+03
   4.7509070e+02   2.2120930e+03
   4.7557280e+02   2.1666890e+03
   4.7605500e+02   2.0753170e+03
   4.7653710e+02   1.9544500e+03
   4.7701920e+02   1.8270960e+03
   4.7750130e+02   1.6934740e+03
   4.7798340e+02   1.5670720e+03
   4.7846550e+02   1.4572860e+03
   4.7894770e+02   1.3606730e+03
   4.7942980e+02   1.2735420e+03
   4.7991190e+02   1.1885760e+03
   4.8039400e+02   1.1197990e+03
   4.8087610e+02   1.0814290e+03
   4.8135820e+02   1.0659570e+03
   4.8184040e+02   1.0526100e+03
   4.8232250e+02   1.0426020e+03
   4.8280460e+02   1.0273160e+03
   4.8328670e+02   1.0040090e+03
   4.8376880e+02   9.7381850e+02
   4.8425090e+02   9.3070840e+02
   4.8473310e+02   8.6578560e+02
   4.8521520e+02   7.9217030e+02
   4.8569730e+02   7.1957580e+02
   4.8617940e+02   6.4175840e+02
   4.8666150e+02   5.7465100e+02
   4.8714360e+02   5.2089310e+02
   4.8762580e+02   4.7927320e+02
   4.8810790e+02   4.4263180e+02
   4.8859000e+02   4.1048720e+02
   4.8907210e+02   3.8467600e+02
   4.8955420e+02   3.6755470e+02
   4.9003630e+02   3.5908860e+02
   4.9051850e+02   3.5222710e+02
   4.9100060e+02   3.4673970e+02
   4.9148270e+02   3.4323140e+02
   4.9196480e+02   3.4156400e+02
   4.9244700e+02   3.4220870e+02
   4.9292910e+02   3.4785760e+02
   4.9341120e+02   3.5869500e+02
   4.9389330e+02   3.7550980e+02
   4.9437540e+02   3.9996930e+02
   4.9485750e+02   4.3192720e+02
   4.9533970e+02   4.6863390e+02
   4.9582180e+02   5.0862430e+02
   4.9630390e+02   5.5253720e+02
   4.9678600e+02   5.9923910e+02
   4.9726810e+02   6.4751650e+02
   4.9775020e+02   7.0575180e+02
   4.9823240e+02   7.8059950e+02
   4.9871450e+02   8.6768650e+02
   4.9919660e+02   9.6258890e+02
   4.9967870e+02   1.0674300e+03
   5.0016080e+02   1.1756910e+03
   5.0064290e+02   1.2807540e+03
   5.0112510e+02   1.3837080e+03
   5.0160720e+02   1.5040590e+03
   5.0208930e+02   1.6496420e+03
   5.0257140e+02   1.8087150e+03
   5.0305350e+02   1.9772600e+03
   5.0353560e+02   2.1555840e+03
   5.0401780e+02   2.3384250e+03
   5.0449990e+02   2.5218880e+03
   5.0498200e+02   2.7127580e+03
   5.0546410e+02   2.9234050e+03
   5.0594620e+02   3.1531570e+03
   5.0642830e+02   3.4005070e+03
   5.0691050e+02   3.6665310e+03
   5.0739260e+02   3.9481620e+03
   5.0787470e+02   4.2326770e+03
   5.0835680e+02   4.5211640e+03
   5.0883890e+02   4.8138790e+03
   5.0932100e+02   5.1312580e+03
   5.0980320e+02   5.4572130e+03
   5.1028530e+02   5.7620420e+03
   5.1076740e+02   6.0510290e+03
   5.1124950e+02   6.2799920e+03
   5.1173160e+02   6.4169450e+03
   5.1221370e+02   6.4597740e+03
   5.1269590e+02   6.4037310e+03
   5.1317800e+02   6.2353440e+03
   5.1366010e+02   5.9778380e+03
   5.1414220e+02   5.6192340e+03
   5.1462430e+02   5.1714090e+03
   5.1510640e+02   4.7118420e+03
   5.1558860e+02   4.2438850e+03
   5.1607070e+02   3.7906310e+03
   5.1655280e+02   3.3688770e+03
   5.1703490e+02   2.9709210e+03
   5.1751700e+02   2.6167780e+03
   5.1799910e+02   2.3190830e+03
   5.1848130e+02   2.0646510e+03
   5.1896340e+02   1.8410120e+03
   5.1944550e+02   1.6542270e+03
   5.1992760e+02   1.4881750e+03
   5.2040970e+02   1.3404400e+03
   5.2089180e+02   1.2124600e+03
   5.2137400e+02   1.0974430e+03
   5.2185610e+02   9.9575810e+02
   5.2233820e+02   9.0581320e+02
   5.2282030e+02   8.2859840e+02
   5.2330240e+02   7.6417610e+02
   5.2378450e+02   7.0190720e+02
   5.2426670e+02   6.4010170e+02
   5.2474880e+02   5.8351650e+02
   5.2523090e+02   5.3690550e+02
   5.2571300e+02   4.9887810e+02
   5.2619510e+02   4.6567250e+02
   5.2667720e+02   4.3725230e+02
   5.2715940e+02   4.1120780e+02
   5.2764150e+02   3.8517800e+02
   5.2812360e+02   3.5944120e+02
   5.2860570e+02   3.3455200e+02
   5.2908780e+02   3.1155920e+02
   5.2956990e+02   2.8932240e+02
   5.3005210e+02   2.6693890e+02
   5.3053420e+02   2.4354010e+02
   5.3101630e+02   2.2246650e+02
   5.3149840e+02   2.0524680e+02
   5.3198050e+02   1.9047710e+02
   5.3246260e+02   1.7657430e+02
   5.3294480e+02   1.6282010e+02
   5.3342690e+02   1.5095170e+02
   5.3390900e+02   1.4139090e+02
   5.3439110e+02   1.3340050e+02
   5.3487320e+02   1.2569040e+02
   5.3535530e+02   1.1776960e+02
   5.3583750e+02   1.1105890e+02
   5.3631960e+02   1.0738860e+02
   5.3680170e+02   1.0712240e+02
   5.3728380e+02   1.0149510e+02
   5.3776590e+02   8.9383640e+01
   5.3824800e+02   7.5865540e+01
   5.3873020e+02   6.5642520e+01
   5.3921230e+02   5.8198240e+01
   5.3969440e+02   5.2439180e+01
   5.4017650e+02   4.8779110e+01
   5.4065860e+02   4.5885130e+01
   5.4114070e+02   4.1305760e+01
   5.4162290e+02   3.5633760e+01
   5.4210500e+02   3.0954250e+01
   5.4258710e+02   2.9836300e+01
   5.4306920e+02   2.9486940e+01
   5.4355130e+02   2.5890410e+01
   5.4403340e+02   1.8740750e+01
   5.4451560e+02   1.4872220e+01
   5.4499770e+02   2.3671780e+01
   5.4547980e+02   3.3693120e+01
   5.4596190e+02   3.5325500e+01
   5.4644400e+02   1.8497860e+01
   5.4692610e+02   5.3759770e+00
   5.4740830e+02   7.8585800e-01
   5.4789040e+02   1.4752810e+00
   5.4837250e+02   1.7422490e+00
   5.4885460e+02   1.7228390e+00
   5.4933670e+02   1.2083440e+00
   5.4981880e+02   3.7475999e-02
   5.5030100e+02   1.9425050e+00
   5.5078310e+02   3.0422060e+00
   5.5126520e+02   3.0830990e+00
   5.5174730e+02   3.3971560e+00
   5.5222940e+02   5.8349910e+00
   5.5271150e+02   9.9573060e+00
   5.5319370e+02   1.1021180e+01
   5.5367580e+02   8.3302000e+00
   5.5415790e+02   3.9325260e+00
   5.5464000e+02   1.2091670e+00
   5.5512210e+02   6.1678470e+00
   5.5560420e+02   8.0916140e+00
   5.5608640e+02   4.0395510e+00
   5.5656850e+02   1.4931340e+00
   5.5705060e+02   5.5777890e+00
   5.5753270e+02   7.8398130e+00
   5.5801480e+02   6.7406010e+00
   5.5849690e+02   5.6669920e+00
   5.5897910e+02   1.6251860e+01
   5.5946120e+02   1.4708920e+01
   5.5994330e+02   3.2921750e+00
   5.6042540e+02   1.6102810e+01
   5.6090750e+02   1.5601040e+01
   5.6138960e+02   1.0532500e+01
   5.6187180e+02   8.8554080e+00
   5.6235390e+02   1.4451840e+01
   5.6283600e+02   1.6648800e+01
   5.6331810e+02   1.3178250e+01
   5.6380020e+02   6.5330810e+00
   5.6428230e+02   2.5691830e+00
   5.6476450e+02   1.5979610e+00
   5.6524660e+02   2.1181340e+00
   5.6572870e+02   4.3569640e+00
   5.6621080e+02   7.6681820e+00
   5.6669290e+02   8.6425780e+00
   5.6717500e+02   7.2111820e+00
   5.6765720e+02   4.7387700e+00
   5.6813930e+02   1.4407960e+00
   5.6862140e+02   1.9082030e+00
   5.6910350e+02   3.2007140e+00
   5.6958560e+02   1.5322570e+00
   5.7006770e+02   2.0929000e-01
   5.7054990e+02   2.2292180e+00
   5.7103200e+02   6.3476870e+00
   5.7151410e+02   1.0593410e+01
   5.7199620e+02   1.4239110e+01
   5.7247830e+02   1.7879670e+01
   5.7296040e+02   2.2277470e+01
   5.7344260e+02   2.7049470e+01
   5.7392470e+02   3.0318880e+01
   5.7440680e+02   2.7642940e+01
   5.7488890e+02   2.7246000e+01
   5.7537100e+02   3.3125850e+01
   5.7585310e+02   4.6982820e+01
   5.7633530e+02   5.7777830e+01
   5.7681740e+02   6.4764500e+01
   5.7729950e+02   6.9644680e+01
   5.7778160e+02   7.3347630e+01
   5.7826370e+02   7.5567140e+01
   5.7874580e+02   8.0009430e+01
   5.7922800e+02   8.7662410e+01
   5.7971010e+02   9.6934110e+01
   5.8019220e+02   1.0588860e+02
   5.8067430e+02   1.1427470e+02
   5.8115640e+02   1.2066430e+02
   5.8163850e+02   1.2362180e+02
   5.8212070e+02   1.2463090e+02
   5.8260280e+02   1.2634280e+02
   5.8308490e+02   1.2833060e+02
   5.8356700e+02   1.2735730e+02
   5.8404910e+02   1.1999860e+02
   5.8453130e+02   1.0987630e+02
   5.8501340e+02   9.9486150e+01
   5.8549550e+02   8.8940190e+01
   5.8597760e+02   7.9120420e+01
   5.8645970e+02   7.1767240e+01
   5.8694180e+02   6.4661010e+01
   5.8742400e+02   5.5170140e+01
   5.8790610e+02   3.8899480e+01
   5.8838820e+02   2.7091670e+01
   5.8887030e+02   2.2966950e+01
   5.8935240e+02   2.3525090e+01
   5.8983450e+02   1.9132260e+01
   5.9031670e+02   8.0047000e+00
   5.9079880e+02   1.2302550e+00
   5.9128090e+02   4.1115110e+00
   5.9176300e+02   1.8494260e+00
   5.9224510e+02   3.3020001e-02
   5.9272720e+02   1.5502930e+00
   5.9320940e+02   2.3534550e+00
   5.9369150e+02   2.1033630e+00
   5.9417360e+02   9.4149800e-01
   5.9465570e+02   1.5637210e+00
   5.9513780e+02   6.1736450e+00
   5.9561990e+02   8.8989560e+00
   5.9610210e+02   4.6523740e+00
   5.9658420e+02   2.8403930e+00
   5.9706630e+02   8.2860720e+00
   5.9754850e+02   8.5869750e+00
   5.9803060e+02   7.8978580e+00
   5.9851270e+02   7.5080870e+00
   5.9899480e+02   7.2024840e+00
   5.9947690e+02   5.8987430e+00
   5.9995900e+02   1.4085690e+00
   6.0044120e+02   1.5148930e+00
   6.0092330e+02   6.1593600e-01
   6.0140540e+02   4.5048830e+00
   6.0188750e+02   6.8486020e+00
   6.0236960e+02   5.5273740e+00
   6.0285170e+02   3.5710750e+00
   6.0333390e+02   3.6608280e+00
   6.0381600e+02   5.6295780e+00
   6.0429810e+02   7.6283260e+00
   6.0478020e+02   9.6497190e+00
   6.0526230e+02   1.0912410e+01
   6.0574440e+02   9.9952090e+00
   6.0622660e+02   7.4552920e+00
   6.0670870e+02   4.7666630e+00
   6.0719080e+02   7.9956100e-01
   6.0767290e+02   1.4446110e+00
   6.0815500e+02   2.0705870e+00
   6.0863710e+02   9.5502010e+00
   6.0911930e+02   1.5278470e+01
   6.0960140e+02   1.5331880e+01
   6.1008350e+02   1.4373170e+01
   6.1056560e+02   1.4630280e+01
   6.1104770e+02   1.6626890e+01
   6.1152980e+02   1.7850340e+01
   6.1201200e+02   1.6001620e+01
   6.1249410e+02   1.5556700e+01
   6.1297620e+02   2.0341710e+01
   6.1345830e+02   3.3040920e+01
   6.1394040e+02   4.1107150e+01
   6.1442250e+02   4.3428920e+01
   6.1490470e+02   4.1808840e+01
   6.1538680e+02   3.7265780e+01
   6.1586890e+02   3.0327000e+01
   6.1635100e+02   2.7047760e+01
   6.1683310e+02   2.9848110e+01
   6.1731520e+02   3.5763060e+01
   6.1779740e+02   4.1047940e+01
   6.1827950e+02   4.5100830e+01
   6.1876160e+02   4.8428250e+01
   6.1924370e+02   4.8945500e+01
   6.1972580e+02   5.0451690e+01
   6.2020790e+02   5.7100310e+01
   6.2069010e+02   6.9099240e+01
   6.2117220e+02   7.8452850e+01
   6.2165430e+02   8.0656280e+01
   6.2213640e+02   8.0493410e+01
   6.2261850e+02   8.0741520e+01
   6.2310060e+02   8.0781280e+01
   6.2358280e+02   8.2971680e+01
   6.2406490e+02   8.8661010e+01
   6.2454700e+02   9.5309510e+01
   6.2502910e+02   1.0004900e+02
   6.2551120e+02   1.0178530e+02
   6.2599330e+02   1.0365750e+02
   6.2647550e+02   1.0653070e+02
   6.2695760e+02   1.0999530e+02
   6.2743970e+02   1.1309640e+02
   6.2792180e+02   1.1592610e+02
   6.2840390e+02   1.1941710e+02
   6.2888600e+02   1.2458740e+02
   6.2936820e+02   1.3003710e+02
   6.2985030e+02   1.3464010e+02
   6.3033240e+02   1.3848140e+02
   6.3081450e+02   1.4089850e+02
   6.3129660e+02   1.3845360e+02
   6.3177870e+02   1.3520250e+02
   6.3226090e+02   1.3524920e+02
   6.3274300e+02   1.3986960e+02
   6.3322510e+02   1.4520440e+02
   6.3370720e+02   1.5012910e+02
   6.3418930e+02   1.5493510e+02
   6.3467140e+02   1.6032570e+02
   6.3515360e+02   1.6747170e+02
   6.3563570e+02   1.7319270e+02
   6.3611780e+02   1.7642010e+02
   6.3659990e+02   1.7870150e+02
   6.3708200e+02   1.8348440e+02
   6.3756410e+02   1.9109460e+02
   6.3804630e+02   1.9701650e+02
   6.3852840e+02   1.9776480e+02
   6.3901050e+02   1.9630470e+02
   6.3949260e+02   2.0092250e+02
   6.3997470e+02   2.1069860e+02
   6.4045680e+02   2.2001500e+02
   6.4093900e+02   2.2308760e+02
   6.4142110e+02   2.2579090e+02
   6.4190320e+02   2.3464720e+02
   6.4238530e+02   2.5005820e+02
   6.4286740e+02   2.6447440e+02
   6.4334950e+02   2.7627030e+02
   6.4383170e+02   2.8505770e+02
   6.4431380e+02   2.9066570e+02
   6.4479590e+02   2.9041060e+02
   6.4527800e+02   2.9056820e+02
   6.4576010e+02   2.8945240e+02
   6.4624220e+02   2.9026460e+02
   6.4672440e+02   2.9854710e+02
   6.4720650e+02   3.1663690e+02
   6.4768860e+02   3.2848950e+02
   6.4817070e+02   3.2922200e+02
   6.4865280e+02   3.2475640e+02
   6.4913490e+02   3.2926200e+02
   6.4961710e+02   3.4157970e+02
   6.5009920e+02   3.5137140e+02
   6.5058130e+02   3.5174930e+02
   6.5106340e+02   3.4817800e+02
   6.5154550e+02   3.4802620e+02
   6.5202760e+02   3.5029200e+02
   6.5250980e+02   3.4974600e+02
   6.5299190e+02   3.4049010e+02
   6.5347400e+02   3.2990130e+02
   6.5395610e+02   3.2466160e+02
   6.5443820e+02   3.2762450e+02
   6.5492030e+02   3.2291220e+02
   6.5540250e+02   3.0285430e+02
   6.5588460e+02   2.7890650e+02
   6.5636670e+02   2.5819120e+02
   6.5684880e+02   2.4030780e+02
   6.5733090e+02   2.2757790e+02
   6.5781300e+02   2.2159070e+02
   6.5829520e+02   2.1723140e+02
   6.5877730e+02   2.0635320e+02
   6.5925940e+02   1.8980710e+02
   6.5974150e+02   1.7628090e+02
   6.6022360e+02   1.6898600e+02
   6.6070570e+02   1.6379580e+02
   6.6118790e+02   1.5529990e+02
   6.6167000e+02   1.4437210e+02
   6.6215210e+02   1.3328510e+02
   6.6263420e+02   1.2202900e+02
   6.6311630e+02   1.1187740e+02
   6.6359840e+02   1.0348000e+02
   6.6408060e+02   9.6783230e+01
   6.6456270e+02   9.1575200e+01
   6.6504480e+02   8.9368590e+01
   6.6552690e+02   8.7196720e+01
   6.6600900e+02   8.4456570e+01
   6.6649110e+02   8.1450810e+01
   6.6697330e+02   7.5920010e+01
   6.6745540e+02   6.6216830e+01
   6.6793750e+02   5.6926790e+01
   6.6841960e+02   5.3135130e+01
   6.6890170e+02   5.4548030e+01
   6.6938390e+02   5.1406160e+01
   6.6986600e+02   4.2012020e+01
   6.7034810e+02   3.2001770e+01
   6.7083020e+02   2.8492740e+01
   6.7131230e+02   2.9301390e+01
   6.7179440e+02   2.9705020e+01
   6.7227660e+02   2.7880310e+01
   6.7275870e+02   2.5871340e+01
   6.7324080e+02   2.4228150e+01
   6.7372290e+02   2.3443120e+01
   6.7420500e+02   2.4437350e+01
   6.7468710e+02   3.2634060e+01
   6.7516930e+02   3.7003660e+01
   6.7565140e+02   3.2438960e+01
   6.7613350e+02   2.0986760e+01
   6.7661560e+02   1.2849820e+01
   6.7709770e+02   7.7735600e+00
   6.7757980e+02   6.7475280e+00
   6.7806200e+02   1.2218320e+01
   6.7854410e+02   2.3075200e+01
   6.7902620e+02   2.7286410e+01
   6.7950830e+02   2.4570340e+01
   6.7999040e+02   2.0353270e+01
   6.8047250e+02   2.0310670e+01
   6.8095470e+02   2.1354860e+01
   6.8143680e+02   1.6370240e+01
   6.8191890e+02   3.7037350e+00
   6.8240100e+02   6.4818120e+00
   6.8288310e+02   5.4273070e+00
   6.8336520e+02   7.1585100e-01
   6.8384740e+02   5.9918520e+00
   6.8432950e+02   1.0693210e+01
   6.8481160e+02   1.1893770e+01
   6.8529370e+02   6.3764950e+00
   6.8577580e+02   1.6234440e+00
   6.8625790e+02   6.4942020e+00
   6.8674010e+02   6.9944150e+00
   6.8722220e+02   8.0930180e+00
   6.8770430e+02   1.1786440e+01
   6.8818640e+02   1.5504670e+01
   6.8866850e+02   1.0577390e+01
   6.8915060e+02   2.2464290e+00
   6.8963280e+02   1.0746580e+01
   6.9011490e+02   5.9738460e+00
   6.9059700e+02   3.9808650e+00
   6.9107910e+02   6.8146970e+00
   6.9156120e+02   3.6773990e+00
   6.9204330e+02   3.9538600e-01
   6.9252550e+02   5.4782100e-01
   6.9300760e+02   1.1595150e+00
   6.9348970e+02   4.5236200e-01
   6.9397180e+02   4.8928530e+00
   6.9445390e+02   6.1090390e+00
   6.9493600e+02   1.5297550e+00
   6.9541820e+02   8.1037290e+00
   6.9590030e+02   7.5033870e+00
   6.9638240e+02   2.9289860e+00
   6.9686450e+02   8.9151310e+00
   6.9734660e+02   9.5328980e+00
   6.9782870e+02   8.1243290e+00
   6.9831090e+02   7.7824400e+00
   6.9879300e+02   8.4463500e+00
   6.9927510e+02   1.0453670e+01
   6.9975720e+02   1.4646060e+01
   7.0023930e+02   1.7224550e+01
   7.0072140e+02   1.1552460e+01
   7.0120360e+02   2.0850220e+00
   7.0168570e+02   3.6948550e+00
   7.0216780e+02   5.4336500e-01
   7.0264990e+02   4.6356510e+00
   7.0313200e+02   3.6687320e+00
   7.0361410e+02   2.0037800e-01
   7.0409630e+02   1.4460450e+00
   7.0457840e+02   2.2274170e+00
   7.0506050e+02   5.3462520e+00
   7.0554260e+02   6.1491700e+00
   7.0602470e+02   5.5615840e+00
   7.0650680e+02   8.6237790e+00
   7.0698900e+02   1.6033450e+01
   7.0747110e+02   2.1379000e+01
   7.0795320e+02   1.8890380e+01
   7.0843530e+02   1.2424290e+01
   7.0891740e+02   1.3429600e+01
   7.0939950e+02   2.1088350e+01
   7.0988170e+02   2.7360380e+01
   7.1036380e+02   2.4618960e+01
   7.1084590e+02   1.9366730e+01
   7.1132800e+02   1.8056490e+01
   7.1181010e+02   2.2043490e+01
   7.1229220e+02   2.3581730e+01
   7.1277440e+02   1.8644350e+01
   7.1325650e+02   1.1846680e+01
   7.1373860e+02   5.9249880e+00
   7.1422070e+02   3.8580300e-01
   7.1470280e+02   2.1791080e+00
   7.1518490e+02   1.7337650e+00
   7.1566710e+02   8.0845340e+00
   7.1614920e+02   1.4332580e+01
   7.1663130e+02   2.0241610e+01
   7.1711340e+02   2.3535370e+01
   7.1759550e+02   2.3656130e+01
   7.1807760e+02   2.1486690e+01
   7.1855980e+02   1.6017300e+01
   7.1904190e+02   9.3073430e+00
   7.1952400e+02   5.3854060e+00
   7.2000610e+02   6.8659360e+00
   7.2048820e+02   9.9602360e+00
   7.2097030e+02   1.2511600e+01
   7.2145250e+02   1.5448150e+01
   7.2193460e+02   2.0950590e+01
   7.2241670e+02   3.4029970e+01
   7.2289880e+02   4.3579590e+01
   7.2338090e+02   4.6905700e+01
   7.2386300e+02   4.5233310e+01
   7.2434520e+02   4.2633060e+01
   7.2482730e+02   3.8687500e+01
   7.2530940e+02   3.6905360e+01
   7.2579150e+02   4.0641660e+01
   7.2627360e+02   4.7132170e+01
   7.2675570e+02   4.7509340e+01
   7.2723790e+02   4.2810820e+01
   7.2772000e+02   4.1205110e+01
   7.2820210e+02   5.0478880e+01
   7.2868420e+02   6.3282960e+01
   7.2916630e+02   7.3972990e+01
   7.2964840e+02   8.1968930e+01
   7.3013060e+02   8.9571690e+01
   7.3061270e+02   9.7286560e+01
   7.3109480e+02   1.0488350e+02
   7.3157690e+02   1.1199270e+02
   7.3205900e+02   1.1806450e+02
   7.3254110e+02   1.2640170e+02
   7.3302330e+02   1.3747470e+02
   7.3350540e+02   1.4975820e+02
   7.3398750e+02   1.6090040e+02
   7.3446960e+02   1.7158570e+02
   7.3495170e+02   1.8750770e+02
   7.3543380e+02   2.1025600e+02
   7.3591600e+02   2.3310510e+02
   7.3639810e+02   2.4728000e+02
   7.3688020e+02   2.5765710e+02
   7.3736230e+02   2.7163300e+02
   7.3784440e+02   2.9298460e+02
   7.3832660e+02   3.1472900e+02
   7.3880870e+02   3.3307380e+02
   7.3929080e+02   3.5084260e+02
   7.3977290e+02   3.7195770e+02
   7.4025510e+02   3.9798440e+02
   7.4073720e+02   4.2403750e+02
   7.4121930e+02   4.4924650e+02
   7.4170140e+02   4.7467430e+02
   7.4218350e+02   5.0256090e+02
   7.4266560e+02   5.3276510e+02
   7.4314780e+02   5.6733260e+02
   7.4362990e+02   6.0946080e+02
   7.4411200e+02   6.5293680e+02
   7.4459410e+02   6.8754210e+02
   7.4507620e+02   7.1522540e+02
   7.4555830e+02   7.4315200e+02
   7.4604050e+02   7.7826800e+02
   7.4652260e+02   8.1166990e+02
   7.4700470e+02   8.4030970e+02
   7.4748680e+02   8.6291030e+02
   7.4796890e+02   8.7601480e+02
   7.4845100e+02   8.8243720e+02
   7.4893320e+02   8.7465500e+02
   7.4941530e+02   8.4837460e+02
   7.4989740e+02   8.0487070e+02
   7.5037950e+02   7.5619620e+02
   7.5086160e+02   7.0165800e+02
   7.5134380e+02   6.4870720e+02
   7.5182590e+02   6.0290660e+02
   7.5230800e+02   5.6206400e+02
   7.5279010e+02   5.1964400e+02
   7.5327220e+02   4.7553740e+02
   7.5375430e+02   4.3223000e+02
   7.5423650e+02   3.8735740e+02
   7.5471860e+02   3.4665570e+02
   7.5520070e+02   3.1728500e+02
   7.5568280e+02   3.0177070e+02
   7.5616490e+02   2.8526230e+02
   7.5664700e+02   2.6172310e+02
   7.5712920e+02   2.3941050e+02
   7.5761130e+02   2.2371620e+02
   7.5809340e+02   2.1637850e+02
   7.5857550e+02   2.0792680e+02
   7.5905760e+02   1.9809160e+02
   7.5953970e+02   1.8751890e+02
   7.6002190e+02   1.7735770e+02
   7.6050400e+02   1.6734260e+02
   7.6098610e+02   1.5705260e+02
   7.6146820e+02   1.4613290e+02
   7.6195030e+02   1.3691390e+02
   7.6243240e+02   1.3108060e+02
   7.6291460e+02   1.2810940e+02
   7.6339670e+02   1.2766020e+02
   7.6387880e+02   1.3282600e+02
   7.6436090e+02   1.3533010e+02
   7.6484300e+02   1.3242720e+02
   7.6532510e+02   1.2696140e+02
   7.6580730e+02   1.2197020e+02
   7.6628940e+02   1.1773770e+02
   7.6677150e+02   1.1292550e+02
   7.6725360e+02   1.0734570e+02
   7.6773570e+02   1.0117790e+02
   7.6821780e+02   9.4008270e+01
   7.6870000e+02   8.6312560e+01
   7.6918210e+02   8.0387760e+01
   7.6966420e+02   7.7894040e+01
   7.7014630e+02   7.5834320e+01
   7.7062840e+02   7.1456420e+01
   7.7111050e+02   6.5673070e+01
   7.7159270e+02   6.0248840e+01
   7.7207480e+02   5.2366910e+01
   7.7255690e+02   4.8971160e+01
   7.7303900e+02   5.6332000e+01
   7.7352110e+02   6.8428470e+01
   7.7400320e+02   6.8521730e+01
   7.7448540e+02   5.2529720e+01
   7.7496750e+02   4.0236180e+01
   7.7544960e+02   3.9374080e+01
   7.7593170e+02   4.4395230e+01
   7.7641380e+02   4.0073000e+01
   7.7689590e+02   2.8241390e+01
   7.7737810e+02   1.8650570e+01
   7.7786020e+02   1.9621430e+01
   7.7834230e+02   2.2429780e+01
   7.7882440e+02   1.7472140e+01
   7.7930650e+02   7.2915950e+00
   7.7978860e+02   2.9104310e+00
   7.8027080e+02   1.5851230e+01
   7.8075290e+02   2.6462220e+01
   7.8123500e+02   2.7145450e+01
   7.8171710e+02   1.9216670e+01
   7.8219920e+02   1.4878200e+01
   7.8268130e+02   1.4481570e+01
   7.8316350e+02   1.6461850e+01
   7.8364560e+02   2.1238530e+01
   7.8412770e+02   2.7960820e+01
   7.8460980e+02   3.2835330e+01
   7.8509190e+02   3.5445650e+01
   7.8557400e+02   3.6259370e+01
   7.8605620e+02   3.4650850e+01
   7.8653830e+02   3.1883090e+01
   7.8702040e+02   2.7643310e+01
   7.8750250e+02   2.1998600e+01
   7.8798460e+02   2.0652710e+01
   7.8846670e+02   2.9868770e+01
   7.8894890e+02   3.8944370e+01
   7.8943100e+02   4.2747500e+01
   7.8991310e+02   4.0769500e+01
   7.9039520e+02   4.3327330e+01
   7.9087730e+02   5.1541660e+01
   7.9135940e+02   6.0049530e+01
   7.9184160e+02   6.2957520e+01
   7.9232370e+02   6.2466580e+01
   7.9280580e+02   6.6537780e+01
   7.9328790e+02   7.5526030e+01
   7.9377000e+02   8.1026820e+01
   7.9425210e+02   6.9914250e+01
   7.9473430e+02   5.7758580e+01
   7.9521640e+02   5.9459140e+01
   7.9569850e+02   8.1191740e+01
   7.9618060e+02   9.6125790e+01
   7.9666270e+02   9.6311520e+01
   7.9714480e+02   9.4855900e+01
   7.9762700e+02   1.0072890e+02
   7.9810910e+02   1.1517940e+02
   7.9859120e+02   1.2540560e+02
   7.9907330e+02   1.3043330e+02
   7.9955540e+02   1.3680480e+02
   8.0003750e+02   1.5087800e+02
   8.0051970e+02   1.7061480e+02
   8.0100180e+02   1.9333060e+02
   8.0148390e+02   2.1901790e+02
   8.0196600e+02   2.4358360e+02
   8.0244810e+02   2.6314970e+02
   8.0293020e+02   2.8137260e+02
   8.0341240e+02   3.0087040e+02
   8.0389450e+02   3.1992070e+02
   8.0437660e+02   3.4590780e+02
   8.0485870e+02   3.8172570e+02
   8.0534080e+02   4.2032860e+02
   8.0582290e+02   4.5536610e+02
   8.0630510e+02   4.8686930e+02
   8.0678720e+02   5.1736270e+02
   8.0726930e+02   5.4642190e+02
   8.0775140e+02   5.7914010e+02
   8.0823350e+02   6.2405540e+02
   8.0871560e+02   6.7553620e+02
   8.0919780e+02   7.2624580e+02
   8.0967990e+02   7.7664810e+02
   8.1016200e+02   8.1921750e+02
   8.1064410e+02   8.5122200e+02
   8.1112620e+02   8.7373940e+02
   8.1160830e+02   8.8824320e+02
   8.1209050e+02   8.9927550e+02
   8.1257260e+02   8.9217190e+02
   8.1305470e+02   8.6350810e+02
   8.1353680e+02   8.2297110e+02
   8.1401890e+02   7.8249560e+02
   8.1450100e+02   7.4063280e+02
   8.1498320e+02   6.8640920e+02
   8.1546530e+02   6.1607970e+02
   8.1594740e+02   5.4486490e+02
   8.1642950e+02   4.8698810e+02
   8.1691160e+02   4.3663090e+02
   8.1739370e+02   3.8583040e+02
   8.1787590e+02   3.2896760e+02
   8.1835800e+02   2.7991510e+02
   8.1884010e+02   2.4442090e+02
   8.1932220e+02   2.1666500e+02
   8.1980430e+02   1.9171710e+02
   8.2028640e+02   1.6976010e+02
   8.2076860e+02   1.4963890e+02
   8.2125070e+02   1.3116350e+02
   8.2173280e+02   1.1545930e+02
   8.2221490e+02   1.0661150e+02
   8.2269700e+02   1.0197140e+02
   8.2317910e+02   9.4211670e+01
   8.2366130e+02   7.9896760e+01
   8.2414340e+02   6.6575500e+01
   8.2462550e+02   6.0584990e+01
   8.2510760e+02   5.8484620e+01
   8.2558970e+02   5.6002230e+01
   8.2607180e+02   5.1265010e+01
   8.2655400e+02   4.8027590e+01
   8.2703610e+02   4.7665100e+01
   8.2751820e+02   4.7036320e+01
   8.2800030e+02   4.0734310e+01
   8.2848240e+02   2.8938510e+01
   8.2896450e+02   2.2950900e+01
   8.2944670e+02   2.5530850e+01
   8.2992880e+02   2.9789830e+01
   8.3041090e+02   2.7665040e+01
   8.3089300e+02   2.2104980e+01
   8.3137510e+02   1.7489840e+01
   8.3185720e+02   1.4850310e+01
   8.3233940e+02   1.3570280e+01
   8.3282150e+02   1.5124360e+01
   8.3330360e+02   1.7000850e+01
   8.3378570e+02   1.6024750e+01
   8.3426780e+02   9.9439700e+00
   8.3474990e+02   8.3396610e+00
   8.3523210e+02   1.3428310e+01
   8.3571420e+02   1.9294130e+01
   8.3619630e+02   1.6312590e+01
   8.3667840e+02   7.5184630e+00
   8.3716050e+02   5.3155520e+00
   8.3764260e+02   1.3657930e+01
   8.3812480e+02   2.1535030e+01
   8.3860690e+02   1.9071470e+01
   8.3908900e+02   1.2095180e+01
   8.3957110e+02   7.1875610e+00
   8.4005320e+02   8.3122560e+00
   8.4053530e+02   6.7775570e+00
   8.4101750e+02   1.0380860e+00
   8.4149960e+02   9.0449220e+00
   8.4198170e+02   9.4797060e+00
   8.4246380e+02   1.9239810e+00
   8.4294590e+02   3.0120240e+00
   8.4342800e+02   3.9455260e+00
   8.4391020e+02   4.2205810e+00
   8.4439230e+02   9.4843750e+00
   8.4487440e+02   1.5918210e+01
   8.4535650e+02   1.6289490e+01
   8.4583860e+02   7.0301210e+00
   8.4632070e+02   1.0571300e-01
   8.4680290e+02   3.2436830e+00
   8.4728500e+02   8.4254150e+00
   8.4776710e+02   7.3592220e+00
   8.4824920e+02   4.4223630e+00
   8.4873130e+02   9.8815920e+00
   8.4921340e+02   7.6306460e+00
   8.4969560e+02   3.2697450e+00
   8.5017770e+02   6.7507900e-01
   8.5065980e+02   5.0772100e-01
   8.5114190e+02   1.0896610e+00
   8.5162400e+02   1.1156010e+00
   8.5210610e+02   2.2542420e+00
   8.5258830e+02   8.2122190e+00
   8.5307040e+02   1.3966640e+01
   8.5355250e+02   1.4467930e+01
   8.5403460e+02   6.7315370e+00
   8.5451670e+02   1.0991520e+00
   8.5499880e+02   1.7929080e+00
   8.5548100e+02   2.5464170e+00
   8.5596310e+02   1.0664980e+00
   8.5644520e+02   2.7001040e+00
   8.5692730e+02   6.0317380e+00
   8.5740940e+02   8.9492490e+00
   8.5789150e+02   1.0714970e+01
   8.5837370e+02   8.9400020e+00
   8.5885580e+02   5.8859250e+00
   8.5933790e+02   5.5018310e+00
   8.5982000e+02   8.5505980e+00
   8.6030210e+02   9.9566960e+00
   8.6078420e+02   5.7062680e+00
   8.6126640e+02   1.0780640e+00
   8.6174850e+02   9.1000400e-01
   8.6223060e+02   2.3499001e-02
   8.6271270e+02   1.1943660e+00
   8.6319480e+02   2.9391780e+00
   8.6367690e+02   4.1952820e+00
   8.6415910e+02   4.2847600e+00
   8.6464120e+02   3.3454280e+00
   8.6512330e+02   1.0704040e+00
   8.6560540e+02   2.3869020e+00
   8.6608750e+02   4.6269530e+00
   8.6656960e+02   3.8459780e+00
   8.6705180e+02   1.7346500e+00
   8.6753390e+02   4.2193600e-01
   8.6801600e+02   2.5803830e+00
   8.6849810e+02   7.9730220e+00
   8.6898020e+02   1.8639800e+01
   8.6946230e+02   2.5386930e+01
   8.6994450e+02   2.2911900e+01
   8.7042660e+02   1.3573670e+01
   8.7090870e+02   8.3310240e+00
   8.7139080e+02   6.8159790e+00
   8.7187290e+02   5.7905880e+00
   8.7235500e+02   1.0210570e+00
   8.7283720e+02   2.3276670e+00
   8.7331930e+02   2.7592770e+00
   8.7380140e+02   1.4283170e+01
   8.7428350e+02   2.0429140e+01
   8.7476560e+02   1.3534330e+01
   8.7524770e+02   6.7627260e+00
   8.7572990e+02   3.1338500e+00
   8.7621200e+02   2.1453860e+00
   8.7669410e+02   2.2442320e+00
   8.7717620e+02   3.4270020e+00
   8.7765830e+02   3.8750610e+00
   8.7814040e+02   2.1791380e+00
   8.7862260e+02   2.6276000e-02
   8.7910470e+02   2.5814800e-01
   8.7958690e+02   1.7927250e+00
   8.8006900e+02   1.3970640e+00
   8.8055110e+02   7.0798950e+00
   8.8103320e+02   1.1876280e+01
   8.8151530e+02   6.3921200e+00
   8.8199740e+02   3.9544980e+00
   8.8247960e+02   7.9199520e+00
   8.8296170e+02   4.2448730e+00
   8.8344380e+02   1.2666320e+00
   8.8392590e+02   9.6521000e-01
   8.8440800e+02   2.6683650e+00
   8.8489010e+02   4.7093200e+00
   8.8537230e+02   6.4331670e+00
   8.8585440e+02   8.0240780e+00
   8.8633650e+02   9.1669920e+00
   8.8681860e+02   1.0480710e+01
   8.8730070e+02   1.2371060e+01
   8.8778280e+02   1.4524290e+01
   8.8826500e+02   1.6708530e+01
   8.8874710e+02   1.9785460e+01
   8.8922920e+02   1.9901790e+01
   8.8971130e+02   1.5393430e+01
   8.9019340e+02   1.0907870e+01
   8.9067550e+02   1.4749880e+01
   8.9115770e+02   2.3630770e+01
   8.9163980e+02   2.6296260e+01
   8.9212190e+02   1.9334900e+01
   8.9260400e+02   1.2819490e+01
   8.9308610e+02   1.5750370e+01
   8.9356820e+02   2.1303560e+01
   8.9405040e+02   2.2752110e+01
   8.9453250e+02   1.6546390e+01
   8.9501460e+02   1.3265200e+01
   8.9549670e+02   1.4509340e+01
   8.9597880e+02   1.5807680e+01
   8.9646090e+02   1.2627200e+01
   8.9694310e+02   5.9697570e+00
   8.9742520e+02   1.2303770e+00
   8.9790730e+02   1.3025510e+00
   8.9838940e+02   1.1940610e+00
   8.9887150e+02   4.7580870e+00
   8.9935360e+02   1.1030360e+01
   8.9983580e+02   1.3381410e+01
   9.0031790e+02   1.1473720e+01
   9.0080000e+02   9.2292180e+00
   9.0128210e+02   6.4621580e+00
   9.0176420e+02   4.3506160e+00
   9.0224630e+02   3.5475770e+00
   9.0272850e+02   3.9012450e+00
   9.0321060e+02   4.0716860e+00
   9.0369270e+02   4.0875850e+00
   9.0417480e+02   4.6708980e+00
   9.0465690e+02   8.2299500e+00
   9.0513900e+02   1.1120610e+01
   9.0562120e+02   7.3984680e+00
   9.0610330e+02   9.9169900e-01
   9.0658540e+02   5.1466370e+00
   9.0706750e+02   4.3522340e+00
   9.0754960e+02   1.1275050e+01
   9.0803170e+02   1.0810940e+01
   9.0851390e+02   5.2178040e+00
   9.0899600e+02   9.2303500e-01
   9.0947810e+02   2.0516660e+00
   9.0996020e+02   3.0830990e+00
   9.1044230e+02   1.4662480e+00
   9.1092440e+02   1.4230650e+00
   9.1140660e+02   4.1801760e+00
   9.1188870e+02   6.9452820e+00
   9.1237080e+02   1.0022490e+01
   9.1285290e+02   1.6412020e+01
   9.1333500e+02   1.9047060e+01
   9.1381710e+02   1.5002750e+01
   9.1429930e+02   8.1324770e+00
   9.1478140e+02   2.7963260e+00
   9.1526350e+02   1.1219480e+00
   9.1574560e+02   1.6250000e+00
   9.1622770e+02   1.9327090e+00
   9.1670980e+02   7.3923340e+00
   9.1719200e+02   1.4611880e+01
   9.1767410e+02   2.1154820e+01
   9.1815620e+02   2.2613460e+01
   9.1863830e+02   1.6319610e+01
   9.1912040e+02   1.1361910e+01
   9.1960250e+02   1.1058440e+01
   9.2008470e+02   1.2596680e+01
   9.2056680e+02   1.4681120e+01
   9.2104890e+02   1.7852390e+01
   9.2153100e+02   1.6114810e+01
   9.2201310e+02   8.6713560e+00
   9.2249520e+02   2.9570620e+00
   9.2297740e+02   7.6148990e+00
   9.2345950e+02   1.6358890e+01
   9.2394160e+02   2.1185970e+01
   9.2442370e+02   2.1679080e+01
   9.2490580e+02   1.8118100e+01
   9.2538790e+02   2.0377810e+00
   9.2587010e+02   9.1353450e+00
   9.2635220e+02   6.1738890e+00
   9.2683430e+02   8.6560670e+00
   9.2731640e+02   1.6974610e+01
   9.2779850e+02   1.8435910e+01
   9.2828060e+02   1.6882320e+01
   9.2876280e+02   1.2329990e+01
   9.2924490e+02   7.4387510e+00
   9.2972700e+02   6.4456180e+00
   9.3020910e+02   8.4754640e+00
   9.3069120e+02   1.1204960e+01
   9.3117330e+02   1.5100740e+01
   9.3165550e+02   1.8758940e+01
   9.3213760e+02   2.2932710e+01
   9.3261970e+02   2.6121220e+01
   9.3310180e+02   2.4915470e+01
   9.3358390e+02   1.8450260e+01
   9.3406600e+02   1.3994510e+01
   9.3454820e+02   1.3168150e+01
   9.3503030e+02   1.3820190e+01
   9.3551240e+02   1.3624760e+01
   9.3599450e+02   1.2699580e+01
   9.3647660e+02   1.1161960e+01
   9.3695870e+02   8.8813170e+00
   9.3744090e+02   7.0046080e+00
   9.3792300e+02   5.9331360e+00
   9.3840510e+02   4.6812740e+00
   9.3888720e+02   2.7725830e+00
   9.3936930e+02   3.4378100e-01
   9.3985140e+02   2.4393010e+00
   9.4033360e+02   9.3740840e+00
   9.4081570e+02   1.3805080e+01
   9.4129780e+02   4.5419010e+00
   9.4177990e+02   8.5225220e+00
   9.4226200e+02   9.3319090e+00
   9.4274410e+02   2.3076170e+00
   9.4322630e+02   1.2525330e+01
   9.4370840e+02   1.7163090e+01
   9.4419050e+02   1.7477540e+01
   9.4467260e+02   1.2290100e+01
   9.4515470e+02   3.0983280e+00
   9.4563680e+02   9.7960001e-03
   9.4611900e+02   3.2912900e+00
   9.4660110e+02   6.7965390e+00
   9.4708320e+02   7.4380490e+00
   9.4756530e+02   7.1173710e+00
   9.4804740e+02   9.0322270e+00
   9.4852950e+02   1.1972960e+01
   9.4901170e+02   1.3125640e+01
   9.4949380e+02   8.2582090e+00
   9.4997590e+02   5.8685300e+00
   9.5045800e+02   9.8779910e+00
   9.5094010e+02   1.5356600e+01
   9.5142220e+02   1.3847870e+01
   9.5190440e+02   5.1927490e+00
   9.5238650e+02   1.1195980e+00
   9.5286860e+02   3.6359250e+00
   9.5335070e+02   3.2634580e+00
   9.5383280e+02   1.0540800e-01
   9.5431490e+02   5.2797240e+00
   9.5479710e+02   1.1374760e+01
   9.5527920e+02   1.9056490e+01
   9.5576130e+02   2.3148770e+01
   9.5624340e+02   2.0439180e+01
   9.5672550e+02   1.7618320e+01
   9.5720760e+02   1.8656950e+01
   9.5768980e+02   2.3377560e+01
   9.5817190e+02   2.6518250e+01
   9.5865400e+02   2.8109890e+01
   9.5913610e+02   2.8562290e+01
   9.5961820e+02   2.9246090e+01
   9.6010030e+02   2.8086360e+01
   9.6058250e+02   2.0976960e+01
   9.6106460e+02   9.4236150e+00
   9.6154670e+02   2.6318660e+00
   9.6202880e+02   5.6123660e+00
   9.6251090e+02   8.3809510e+00
   9.6299300e+02   8.1128230e+00
   9.6347520e+02   6.5581970e+00
   9.6395730e+02   8.4415890e+00
   9.6443940e+02   1.3094020e+01
   9.6492150e+02   1.6979640e+01
   9.6540360e+02   1.7436830e+01
   9.6588570e+02   1.7794830e+01
   9.6636790e+02   2.3264430e+01
   9.6685000e+02   2.9103970e+01
   9.6733210e+02   2.8843540e+01
   9.6781420e+02   1.5704410e+01
   9.6829630e+02   7.6895450e+00
   9.6877840e+02   5.3966980e+00
   9.6926060e+02   7.3942570e+00
   9.6974270e+02   1.3961820e+01
   9.7022480e+02   2.3705750e+01
   9.7070690e+02   3.2086550e+01
   9.7118900e+02   3.8718140e+01
   9.7167110e+02   4.3182950e+01
   9.7215330e+02   4.4297970e+01
   9.7263540e+02   4.3796720e+01
   9.7311750e+02   4.1585270e+01
   9.7359960e+02   3.8040340e+01
   9.7408170e+02   3.9073520e+01
   9.7456380e+02   4.6643740e+01
   9.7504600e+02   5.0802730e+01
   9.7552810e+02   4.5210050e+01
   9.7601020e+02   3.5700740e+01
   9.7649230e+02   3.5255650e+01
   9.7697440e+02   4.1450320e+01
   9.7745650e+02   4.7163480e+01
   9.7793870e+02   4.6242190e+01
   9.7842080e+02   4.7877440e+01
   9.7890290e+02   5.8920870e+01
   9.7938500e+02   7.2585080e+01
   9.7986710e+02   7.8804170e+01
   9.8034920e+02   7.5496920e+01
   9.8083140e+02   7.7112760e+01
   9.8131350e+02   8.5809110e+01
   9.8179560e+02   9.6959230e+01
   9.8227770e+02   1.0795000e+02
   9.8275980e+02   1.1714160e+02
   9.8324190e+02   1.1992060e+02
   9.8372410e+02   1.1343700e+02
   9.8420620e+02   1.1430980e+02
   9.8468830e+02   1.3465640e+02
   9.8517040e+02   1.5610960e+02
   9.8565250e+02   1.7044580e+02
   9.8613460e+02   1.7856210e+02
   9.8661680e+02   1.8941320e+02
   9.8709890e+02   2.0300530e+02
   9.8758100e+02   2.1950890e+02
   9.8806310e+02   2.4117000e+02
   9.8854520e+02   2.6406960e+02
   9.8902730e+02   2.8508580e+02
   9.8950950e+02   3.0423550e+02
   9.8999160e+02   3.2122920e+02
   9.9047370e+02   3.3271520e+02
   9.9095580e+02   3.4765520e+02
   9.9143790e+02   3.6827450e+02
   9.9192000e+02   3.9082340e+02
   9.9240220e+02   4.1291240e+02
   9.9288430e+02   4.3225220e+02
   9.9336640e+02   4.3822690e+02
   9.9384850e+02   4.2739940e+02
   9.9433060e+02   4.1216790e+02
   9.9481270e+02   4.0188130e+02
   9.9529490e+02   3.9033810e+02
   9.9577700e+02   3.6961970e+02
   9.9625910e+02   3.3672510e+02
   9.9674120e+02   3.1778970e+02
   9.9722330e+02   3.1706770e+02
   9.9770540e+02   3.1535330e+02
   9.9818760e+02   2.9790680e+02
   9.9866970e+02   2.7260490e+02
   9.9915180e+02   2.5652120e+02
   9.9963390e+02   2.4762140e+02
   1.0001160e+03   2.3961680e+02
   1.0005980e+03   2.3101750e+02
   1.0010800e+03   2.2161370e+02
   1.0015620e+03   2.1065100e+02
   1.0020440e+03   1.9952970e+02
   1.0025270e+03   1.8950980e+02
   1.0030090e+03   1.8044740e+02
   1.0034910e+03   1.7378360e+02
   1.0039730e+03   1.7044960e+02
   1.0044550e+03   1.6711630e+02
   1.0049370e+03   1.5849770e+02
   1.0054190e+03   1.4861190e+02
   1.0059010e+03   1.4341520e+02
   1.0063840e+03   1.4583000e+02
   1.0068660e+03   1.4410170e+02
   1.0073480e+03   1.3585140e+02
   1.0078300e+03   1.2588130e+02
   1.0083120e+03   1.1546040e+02
   1.0087940e+03   1.0471280e+02
   1.0092760e+03   9.5944850e+01
   1.0097580e+03   8.9189180e+01
   1.0102400e+03   8.3923580e+01
   1.0107230e+03   8.1155300e+01
   1.0112050e+03   7.8708830e+01
   1.0116870e+03   7.5159850e+01
   1.0121690e+03   7.0662230e+01
   1.0126510e+03   6.6037020e+01
   1.0131330e+03   6.1140870e+01
   1.0136150e+03   5.6185910e+01
   1.0140970e+03   5.1182530e+01
   1.0145800e+03   4.6260040e+01
   1.0150620e+03   4.1800260e+01
   1.0155440e+03   3.8202180e+01
   1.0160260e+03   3.4943210e+01
   1.0165080e+03   3.1174070e+01
   1.0169900e+03   3.0289830e+01
   1.0174720e+03   3.7714140e+01
   1.0179540e+03   4.4240360e+01
   1.0184360e+03   4.3785280e+01
   1.0189190e+03   3.6811400e+01
   1.0194010e+03   3.3094910e+01
   1.0198830e+03   3.2637240e+01
   1.0203650e+03   3.5130100e+01
   1.0208470e+03   4.4970670e+01
   1.0213290e+03   5.3875920e+01
   1.0218110e+03   5.1106230e+01
   1.0222930e+03   4.1070890e+01
   1.0227760e+03   3.4609740e+01
   1.0232580e+03   3.5365080e+01
   1.0237400e+03   3.7532840e+01
   1.0242220e+03   4.1462620e+01
   1.0247040e+03   4.5115750e+01
   1.0251860e+03   4.4189000e+01
   1.0256680e+03   4.0566650e+01
   1.0261500e+03   4.1366550e+01
   1.0266320e+03   4.7892150e+01
   1.0271150e+03   5.4393430e+01
   1.0275970e+03   5.9342770e+01
   1.0280790e+03   6.1343200e+01
   1.0285610e+03   5.7864350e+01
   1.0290430e+03   4.9395260e+01
   1.0295250e+03   4.5873540e+01
   1.0300070e+03   4.7629240e+01
   1.0304890e+03   5.2113340e+01
   1.0309720e+03   5.9226170e+01
   1.0314540e+03   6.7242830e+01
   1.0319360e+03   7.4707460e+01
   1.0324180e+03   8.1212040e+01
   1.0329000e+03   8.5785860e+01
   1.0333820e+03   8.7272250e+01
   1.0338640e+03   8.7718870e+01
   1.0343460e+03   8.5741030e+01
   1.0348280e+03   8.4975070e+01
   1.0353110e+03   9.2550350e+01
   1.0357930e+03   1.0614220e+02
   1.0362750e+03   1.0685920e+02
   1.0367570e+03   9.3117520e+01
   1.0372390e+03   8.3104130e+01
   1.0377210e+03   9.7371030e+01
   1.0382030e+03   1.1338730e+02
   1.0386850e+03   1.1434520e+02
   1.0391670e+03   1.0109320e+02
   1.0396500e+03   8.8367610e+01
   1.0401320e+03   7.5664860e+01
   1.0406140e+03   6.6235350e+01
   1.0410960e+03   6.1900150e+01
   1.0415780e+03   6.0518430e+01
   1.0420600e+03   5.9454500e+01
   1.0425420e+03   5.8787960e+01
   1.0430240e+03   5.8845400e+01
   1.0435070e+03   6.1184780e+01
   1.0439890e+03   6.1307430e+01
   1.0444710e+03   5.8679690e+01
   1.0449530e+03   5.3394650e+01
   1.0454350e+03   4.2814270e+01
   1.0459170e+03   2.8009460e+01
   1.0463990e+03   2.4844850e+01
   1.0468810e+03   3.3131930e+01
   1.0473640e+03   4.2312710e+01
   1.0478460e+03   4.6557250e+01
   1.0483280e+03   4.8045810e+01
   1.0488100e+03   4.7655610e+01
   1.0492920e+03   4.5616460e+01
   1.0497740e+03   4.3215880e+01
   1.0502560e+03   4.1028840e+01
   1.0507380e+03   3.5739040e+01
   1.0512200e+03   2.5283510e+01
   1.0517030e+03   1.5294740e+01
   1.0521850e+03   1.5402650e+01
   1.0526670e+03   2.1301850e+01
   1.0531490e+03   2.6023960e+01
   1.0536310e+03   2.8161290e+01
   1.0541130e+03   2.9275630e+01
   1.0545950e+03   3.0340060e+01
   1.0550770e+03   2.9768550e+01
   1.0555590e+03   2.6283510e+01
   1.0560420e+03   2.0357940e+01
   1.0565240e+03   1.4135310e+01
   1.0570060e+03   7.9233090e+00
   1.0574880e+03   4.2389530e+00
   1.0579700e+03   7.9361880e+00
   1.0584520e+03   1.0991850e+01
   1.0589340e+03   4.7792050e+00
   1.0594160e+03   4.3744200e+00
   1.0598990e+03   3.5860600e+00
   1.0603810e+03   1.2025510e+01
   1.0608630e+03   2.0551510e+01
   1.0613450e+03   1.9568910e+01
   1.0618270e+03   1.4180510e+01
   1.0623090e+03   6.6165470e+00
   1.0627910e+03   4.6109000e-01
   1.0632730e+03   1.2687680e+00
   1.0637550e+03   4.3768920e+00
   1.0642380e+03   6.0509340e+00
   1.0647200e+03   4.3033750e+00
   1.0652020e+03   1.2225740e+01
   1.0656840e+03   1.2886080e+01
   1.0661660e+03   8.6687620e+00
   1.0666480e+03   5.1921080e+00
   1.0671300e+03   2.6538700e+00
   1.0676120e+03   1.9091190e+00
   1.0680940e+03   4.0039370e+00
   1.0685770e+03   6.1049190e+00
   1.0690590e+03   7.1485290e+00
   1.0695410e+03   6.9052730e+00
   1.0700230e+03   4.8197330e+00
   1.0705050e+03   1.6342200e-01
   1.0709870e+03   2.2107540e+00
   1.0714690e+03   2.3685300e+00
   1.0719510e+03   6.0999999e-04
   1.0724340e+03   1.0019410e+01
   1.0729160e+03   1.9124300e+01
   1.0733980e+03   1.4595920e+01
   1.0738800e+03   1.3290400e-01
   1.0743620e+03   1.0873900e+01
   1.0748440e+03   1.5781950e+01
   1.0753260e+03   1.6308720e+01
   1.0758080e+03   1.0408840e+01
   1.0762910e+03   4.1811220e+00
   1.0767730e+03   8.0737000e+00
   1.0772550e+03   1.8431640e+01
   1.0777370e+03   2.4703740e+01
   1.0782190e+03   2.5219060e+01
   1.0787010e+03   2.4227810e+01
   1.0791830e+03   2.2303130e+01
   1.0796650e+03   2.0985080e+01
   1.0801470e+03   2.1145780e+01
   1.0806300e+03   2.2532230e+01
   1.0811120e+03   2.3424800e+01
   1.0815940e+03   2.3869200e+01
   1.0820760e+03   2.5434140e+01
   1.0825580e+03   2.9399660e+01
   1.0830400e+03   3.3377440e+01
   1.0835220e+03   3.4078670e+01
   1.0840040e+03   3.4008300e+01
   1.0844860e+03   3.6851070e+01
   1.0849690e+03   4.4872130e+01
   1.0854510e+03   5.0412570e+01
   1.0859330e+03   5.3171200e+01
   1.0864150e+03   5.4414310e+01
   1.0868970e+03   5.3305540e+01
   1.0873790e+03   5.2214390e+01
   1.0878610e+03   5.6477840e+01
   1.0883430e+03   6.4844820e+01
   1.0888260e+03   7.1717250e+01
   1.0893080e+03   7.2208860e+01
   1.0897900e+03   7.4909640e+01
   1.0902720e+03   8.1959320e+01
   1.0907540e+03   9.1092320e+01
   1.0912360e+03   9.8553010e+01
   1.0917180e+03   1.0491850e+02
   1.0922000e+03   1.1347540e+02
   1.0926820e+03   1.2487270e+02
   1.0931650e+03   1.3502010e+02
   1.0936470e+03   1.4077500e+02
   1.0941290e+03   1.4489950e+02
   1.0946110e+03   1.4893360e+02
   1.0950930e+03   1.5295560e+02
   1.0955750e+03   1.5784130e+02
   1.0960570e+03   1.6373430e+02
   1.0965390e+03   1.6652950e+02
   1.0970220e+03   1.6304970e+02
   1.0975040e+03   1.5907200e+02
   1.0979860e+03   1.6198070e+02
   1.0984680e+03   1.6749020e+02
   1.0989500e+03   1.6973570e+02
   1.0994320e+03   1.6753450e+02
   1.0999140e+03   1.6209030e+02
   1.1003960e+03   1.5223210e+02
   1.1008790e+03   1.4324220e+02
   1.1013610e+03   1.4019290e+02
   1.1018430e+03   1.4011510e+02
   1.1023250e+03   1.3708210e+02
   1.1028070e+03   1.3173990e+02
   1.1032890e+03   1.2679440e+02
   1.1037710e+03   1.2318800e+02
   1.1042530e+03   1.2032370e+02
   1.1047350e+03   1.1916090e+02
   1.1052180e+03   1.1722010e+02
   1.1057000e+03   1.0782280e+02
   1.1061820e+03   9.3998470e+01
   1.1066640e+03   9.2647770e+01
   1.1071460e+03   1.0579370e+02
   1.1076280e+03   1.1873590e+02
   1.1081100e+03   1.2558410e+02
   1.1085920e+03   1.2641590e+02
   1.1090740e+03   1.1627280e+02
   1.1095570e+03   1.0043010e+02
   1.1100390e+03   1.0321610e+02
   1.1105210e+03   1.2496310e+02
   1.1110030e+03   1.3973430e+02
   1.1114850e+03   1.3691410e+02
   1.1119670e+03   1.3368280e+02
   1.1124490e+03   1.5068090e+02
   1.1129310e+03   1.7352670e+02
   1.1134140e+03   1.8547950e+02
   1.1138960e+03   1.8178830e+02
   1.1143780e+03   1.8358890e+02
   1.1148600e+03   1.9170480e+02
   1.1153420e+03   2.0169350e+02
   1.1158240e+03   2.1040230e+02
   1.1163060e+03   2.2002340e+02
   1.1167880e+03   2.3452830e+02
   1.1172710e+03   2.5231650e+02
   1.1177530e+03   2.7093330e+02
   1.1182350e+03   2.9149070e+02
   1.1187170e+03   3.1008070e+02
   1.1191990e+03   3.2714760e+02
   1.1196810e+03   3.4126180e+02
   1.1201630e+03   3.4939950e+02
   1.1206450e+03   3.5363340e+02
   1.1211270e+03   3.6052760e+02
   1.1216090e+03   3.7023670e+02
   1.1220920e+03   3.7924040e+02
   1.1225740e+03   3.8743130e+02
   1.1230560e+03   3.9149270e+02
   1.1235380e+03   3.8968570e+02
   1.1240200e+03   3.8520680e+02
   1.1245020e+03   3.8527700e+02
   1.1249840e+03   3.8869710e+02
   1.1254660e+03   3.8428580e+02
   1.1259490e+03   3.6906940e+02
   1.1264310e+03   3.5384580e+02
   1.1269130e+03   3.4630390e+02
   1.1273950e+03   3.4171660e+02
   1.1278770e+03   3.3760230e+02
   1.1283590e+03   3.3373500e+02
   1.1288410e+03   3.2612860e+02
   1.1293230e+03   3.1417600e+02
   1.1298060e+03   3.0902050e+02
   1.1302880e+03   3.1664180e+02
   1.1307700e+03   3.2678240e+02
   1.1312520e+03   3.2870280e+02
   1.1317340e+03   3.2887540e+02
   1.1322160e+03   3.3481730e+02
   1.1326980e+03   3.5005260e+02
   1.1331800e+03   3.5989770e+02
   1.1336620e+03   3.6197400e+02
   1.1341450e+03   3.6865350e+02
   1.1346270e+03   3.9517850e+02
   1.1351090e+03   4.2653100e+02
   1.1355910e+03   4.3702230e+02
   1.1360730e+03   4.3299860e+02
   1.1365550e+03   4.3025090e+02
   1.1370370e+03   4.4091360e+02
   1.1375190e+03   4.4114920e+02
   1.1380010e+03   4.2616870e+02
   1.1384840e+03   4.0638130e+02
   1.1389660e+03   3.9207690e+02
   1.1394480e+03   3.8141100e+02
   1.1399300e+03   3.7171730e+02
   1.1404120e+03   3.6261120e+02
   1.1408940e+03   3.5244260e+02
   1.1413760e+03   3.4382510e+02
   1.1418580e+03   3.2869790e+02
   1.1423410e+03   3.0156630e+02
   1.1428230e+03   2.7072640e+02
   1.1433050e+03   2.5260590e+02
   1.1437870e+03   2.4424000e+02
   1.1442690e+03   2.3149680e+02
   1.1447510e+03   2.1163790e+02
   1.1452330e+03   1.9188880e+02
   1.1457150e+03   1.7492680e+02
   1.1461980e+03   1.6035220e+02
   1.1466800e+03   1.4740880e+02
   1.1471620e+03   1.3621600e+02
   1.1476440e+03   1.2818680e+02
   1.1481260e+03   1.2311050e+02
   1.1486080e+03   1.1822630e+02
   1.1490900e+03   1.1217530e+02
   1.1495720e+03   1.0761830e+02
   1.1500540e+03   1.1149650e+02
   1.1505360e+03   1.1517990e+02
   1.1510190e+03   1.0987800e+02
   1.1515010e+03   9.5011470e+01
   1.1519830e+03   7.7628200e+01
   1.1524650e+03   5.7314180e+01
   1.1529470e+03   4.4344730e+01
   1.1534290e+03   5.0139130e+01
   1.1539110e+03   5.9126190e+01
   1.1543930e+03   5.4586980e+01
   1.1548760e+03   4.3534970e+01
   1.1553580e+03   3.8718510e+01
   1.1558400e+03   4.4164760e+01
   1.1563220e+03   4.6295070e+01
   1.1568040e+03   4.4925990e+01
   1.1572860e+03   4.1619840e+01
   1.1577680e+03   3.3702640e+01
   1.1582500e+03   2.7330600e+01
   1.1587330e+03   3.4539060e+01
   1.1592150e+03   5.0638430e+01
   1.1596970e+03   5.7225920e+01
   1.1601790e+03   4.7589720e+01
   1.1606610e+03   3.6871830e+01
   1.1611430e+03   2.5517580e+01
   1.1616250e+03   1.7072200e+01
   1.1621070e+03   1.7311770e+01
   1.1625890e+03   2.2333980e+01
   1.1630720e+03   2.6211940e+01
   1.1635540e+03   2.8418610e+01
   1.1640360e+03   2.9345760e+01
   1.1645180e+03   2.9515260e+01
   1.1650000e+03   2.7428590e+01
   1.1654820e+03   2.1799100e+01
   1.1659640e+03   1.5175170e+01
   1.1664460e+03   1.1573060e+01
   1.1669280e+03   1.0757870e+01
   1.1674110e+03   1.3292970e+01
   1.1678930e+03   2.0187230e+01
   1.1683750e+03   2.3668030e+01
   1.1688570e+03   1.6304110e+01
   1.1693390e+03   1.1590090e+01
   1.1698210e+03   1.6812010e+01
   1.1703030e+03   2.6713470e+01
   1.1707850e+03   2.3704380e+01
   1.1712680e+03   1.2214420e+01
   1.1717500e+03   7.6073610e+00
   1.1722320e+03   1.8689700e+01
   1.1727140e+03   2.6889710e+01
   1.1731960e+03   2.2751040e+01
   1.1736780e+03   1.5351990e+01
   1.1741600e+03   8.6690980e+00
   1.1746420e+03   3.2127690e+00
   1.1751250e+03   5.0804750e+00
   1.1756070e+03   1.2706850e+01
   1.1760890e+03   1.7228820e+01
   1.1765710e+03   1.0357270e+01
   1.1770530e+03   5.0705260e+00
   1.1775350e+03   9.2968140e+00
   1.1780170e+03   1.6176360e+01
   1.1784990e+03   1.9810910e+01
   1.1789810e+03   2.0176360e+01
   1.1794640e+03   1.7913760e+01
   1.1799460e+03   1.3267730e+01
   1.1804280e+03   9.3737490e+00
   1.1809100e+03   8.4502560e+00
   1.1813920e+03   8.5364070e+00
   1.1818740e+03   9.1601260e+00
   1.1823560e+03   9.8301700e+00
   1.1828380e+03   9.8608090e+00
   1.1833200e+03   9.2428890e+00
   1.1838030e+03   8.1029660e+00
   1.1842850e+03   6.4480290e+00
   1.1847670e+03   4.7597660e+00
   1.1852490e+03   2.3858030e+00
   1.1857310e+03   1.0440060e+00
   1.1862130e+03   2.9336550e+00
   1.1866950e+03   6.7707210e+00
   1.1871770e+03   8.6925960e+00
   1.1876600e+03   7.8840940e+00
   1.1881420e+03   9.2564700e+00
   1.1886240e+03   1.4044920e+01
   1.1891060e+03   1.7075230e+01
   1.1895880e+03   1.1585420e+01
   1.1900700e+03   4.2512210e+00
   1.1905520e+03   9.3079001e-02
   1.1910340e+03   7.8570600e-01
   1.1915160e+03   1.1132800e-01
   1.1919990e+03   2.9021000e+00
   1.1924810e+03   7.3302310e+00
   1.1929630e+03   1.4681240e+01
   1.1934450e+03   1.8715150e+01
   1.1939270e+03   9.2224430e+00
   1.1944090e+03   4.0487670e+00
   1.1948910e+03   1.1375640e+01
   1.1953730e+03   1.1984950e+01
   1.1958550e+03   1.0674260e+01
   1.1963380e+03   7.7557980e+00
   1.1968200e+03   2.1946410e+00
   1.1973020e+03   8.1963500e+00
   1.1977840e+03   1.7937100e+01
   1.1982660e+03   2.0777680e+01
   1.1987480e+03   1.9481720e+01
   1.1992300e+03   1.7179840e+01
   1.1997120e+03   1.4193880e+01
   1.2001950e+03   1.0521910e+01
   1.2006770e+03   5.9363400e+00
   1.2011590e+03   2.3064880e+00
   1.2016410e+03   1.3600770e+00
   1.2021230e+03   1.0166020e+00
   1.2026050e+03   2.2423400e+00
   1.2030870e+03   6.1057430e+00
   1.2035690e+03   6.6027830e+00
   1.2040520e+03   2.2041320e+00
   1.2045340e+03   2.5719600e+00
   1.2050160e+03   8.3126220e+00
   1.2054980e+03   1.1127560e+01
   1.2059800e+03   4.2003170e+00
   1.2064620e+03   3.7194210e+00
   1.2069440e+03   3.4106400e-01
   1.2074260e+03   1.0777400e+01
   1.2079080e+03   1.3780820e+01
   1.2083910e+03   3.6764830e+00
   1.2088730e+03   9.6892998e-02
   1.2093550e+03   4.1143190e+00
   1.2098370e+03   9.9110110e+00
   1.2103190e+03   1.2219210e+01
   1.2108010e+03   1.2832820e+01
   1.2112830e+03   1.4633210e+01
   1.2117650e+03   1.6493960e+01
   1.2122470e+03   1.3302090e+01
   1.2127300e+03   9.4143700e-01
   1.2132120e+03   2.9216310e+00
   1.2136940e+03   5.1017760e+00
   1.2141760e+03   1.4224490e+01
   1.2146580e+03   1.3586090e+01
   1.2151400e+03   8.6723940e+00
   1.2156220e+03   4.2890010e+00
   1.2161040e+03   1.2337040e+00
   1.2165870e+03   2.0476680e+00
   1.2170690e+03   8.3335270e+00
   1.2175510e+03   1.2959260e+01
   1.2180330e+03   1.4822880e+01
   1.2185150e+03   1.5046330e+01
   1.2189970e+03   1.2803340e+01
   1.2194790e+03   1.0686770e+01
   1.2199610e+03   1.2003600e+01
   1.2204430e+03   1.6696560e+01
   1.2209260e+03   2.0158630e+01
   1.2214080e+03   2.2372070e+01
   1.2218900e+03   2.2509740e+01
   1.2223720e+03   2.0160830e+01
   1.2228540e+03   1.6429050e+01
   1.2233360e+03   1.0540340e+01
   1.2238180e+03   5.3412780e+00
   1.2243000e+03   4.7707210e+00
   1.2247820e+03   9.5180360e+00
   1.2252650e+03   1.3315730e+01
   1.2257470e+03   1.6559570e+01
   1.2262290e+03   1.6079470e+01
   1.2267110e+03   9.1966550e+00
   1.2271930e+03   2.9195560e+00
   1.2276750e+03   9.6090390e+00
   1.2281570e+03   1.9484160e+01
   1.2286390e+03   1.8991390e+01
   1.2291220e+03   5.2696230e+00
   1.2296040e+03   7.6950100e-01
   1.2300860e+03   6.5262760e+00
   1.2305680e+03   1.4989140e+01
   1.2310500e+03   2.5817810e+01
   1.2315320e+03   3.2678280e+01
   1.2320140e+03   2.2234380e+01
   1.2324960e+03   6.9236150e+00
   1.2329790e+03   3.9812930e+00
   1.2334610e+03   1.6688110e+01
   1.2339430e+03   2.0192540e+01
   1.2344250e+03   1.3633210e+01
   1.2349070e+03   6.8963320e+00
   1.2353890e+03   2.9934690e+00
   1.2358710e+03   2.1471250e+00
   1.2363530e+03   5.3675840e+00
   1.2368350e+03   1.0907470e+01
   1.2373180e+03   1.6798070e+01
   1.2378000e+03   2.3180450e+01
   1.2382820e+03   2.8085850e+01
   1.2387640e+03   3.1520780e+01
   1.2392460e+03   3.2594670e+01
   1.2397280e+03   3.0361970e+01
   1.2402100e+03   2.6086820e+01
   1.2406920e+03   1.8734220e+01
   1.2411750e+03   1.1133850e+01
   1.2416570e+03   7.2399600e+00
   1.2421390e+03   7.5605470e+00
   1.2426210e+03   8.8807980e+00
   1.2431030e+03   1.1232910e+01
   1.2435850e+03   1.1674130e+01
   1.2440670e+03   3.1674500e+00
   1.2445490e+03   2.2133480e+00
   1.2450310e+03   9.9765630e+00
   1.2455140e+03   2.6757690e+01
   1.2459960e+03   2.8747800e+01
   1.2464780e+03   1.4398680e+01
   1.2469600e+03   8.1405330e+00
   1.2474420e+03   1.0079100e+01
   1.2479240e+03   1.5244810e+01
   1.2484060e+03   2.4936460e+01
   1.2488880e+03   3.1791350e+01
   1.2493700e+03   2.8430050e+01
   1.2498530e+03   2.0533140e+01
   1.2503350e+03   1.5691890e+01
   1.2508170e+03   1.3814360e+01
   1.2512990e+03   1.4325040e+01
   1.2517810e+03   1.6902250e+01
   1.2522630e+03   1.6917390e+01
   1.2527450e+03   6.8082890e+00
   1.2532270e+03   1.1325380e+00
   1.2537100e+03   5.8612100e-01
   1.2541920e+03   5.0411070e+00
   1.2546740e+03   1.0317320e+01
   1.2551560e+03   1.4351590e+01
   1.2556380e+03   1.4400050e+01
   1.2561200e+03   1.0469210e+01
   1.2566020e+03   7.7575070e+00
   1.2570840e+03   1.1369110e+01
   1.2575670e+03   1.4174900e+01
   1.2580490e+03   1.3378600e+01
   1.2585310e+03   1.1009770e+01
   1.2590130e+03   1.0801880e+01
   1.2594950e+03   1.2270600e+01
   1.2599770e+03   1.6182560e+01
   1.2604590e+03   2.2185090e+01
   1.2609410e+03   2.5225680e+01
   1.2614230e+03   1.9488770e+01
   1.2619060e+03   1.5102360e+01
   1.2623880e+03   1.4426700e+01
   1.2628700e+03   1.5863130e+01
   1.2633520e+03   1.8527280e+01
   1.2638340e+03   2.1084440e+01
   1.2643160e+03   1.9605680e+01
   1.2647980e+03   1.4180450e+01
   1.2652800e+03   9.9446720e+00
   1.2657620e+03   8.8918460e+00
   1.2662450e+03   8.3828740e+00
   1.2667270e+03   7.5759580e+00
   1.2672090e+03   7.5616760e+00
   1.2676910e+03   9.9854740e+00
   1.2681730e+03   1.3403080e+01
   1.2686550e+03   1.6068570e+01
   1.2691370e+03   1.7782650e+01
   1.2696190e+03   1.6231810e+01
   1.2701020e+03   9.7096560e+00
   1.2705840e+03   4.9070430e+00
   1.2710660e+03   3.0698240e+00
   1.2715480e+03   3.0874020e+00
   1.2720300e+03   3.4519350e+00
   1.2725120e+03   4.9802550e+00
   1.2729940e+03   1.0456360e+01
   1.2734760e+03   1.9275540e+01
   1.2739580e+03   2.0829620e+01
   1.2744410e+03   1.2857300e+01
   1.2749230e+03   5.5599370e+00
   1.2754050e+03   5.6140100e-01
   1.2758870e+03   2.2635800e+00
   1.2763690e+03   8.3803410e+00
   1.2768510e+03   2.1486910e+01
   1.2773330e+03   2.6326900e+01
   1.2778150e+03   2.4180450e+01
   1.2782970e+03   2.7506680e+01
   1.2787800e+03   3.6089360e+01
   1.2792620e+03   3.9658200e+01
   1.2797440e+03   3.4128270e+01
   1.2802260e+03   2.6878510e+01
   1.2807080e+03   2.3163510e+01
   1.2811900e+03   2.0664400e+01
   1.2816720e+03   1.6964900e+01
   1.2821540e+03   1.3140110e+01
   1.2826370e+03   1.4568850e+01
   1.2831190e+03   2.0556670e+01
   1.2836010e+03   2.4211790e+01
   1.2840830e+03   2.3839780e+01
   1.2845650e+03   2.3104640e+01
   1.2850470e+03   2.6583280e+01
   1.2855290e+03   2.7095890e+01
   1.2860110e+03   1.9362550e+01
   1.2864940e+03   7.9309390e+00
   1.2869760e+03   6.8462520e+00
   1.2874580e+03   1.3205230e+01
   1.2879400e+03   1.8774440e+01
   1.2884220e+03   2.2300990e+01
   1.2889040e+03   2.3178620e+01
   1.2893860e+03   1.6845730e+01
   1.2898680e+03   1.2654630e+01
   1.2903500e+03   1.9702330e+01
   1.2908330e+03   2.8682980e+01
   1.2913150e+03   1.9278960e+01
   1.2917970e+03   1.4695430e+00
   1.2922790e+03   3.4104000e+00
   1.2927610e+03   1.0491820e+01
   1.2932430e+03   1.8942870e+01
   1.2937250e+03   1.7689730e+01
   1.2942070e+03   1.4717620e+01
   1.2946890e+03   1.1922060e+01
   1.2951720e+03   1.0260650e+01
   1.2956540e+03   1.2808140e+01
   1.2961360e+03   1.6735050e+01
   1.2966180e+03   1.7806150e+01
   1.2971000e+03   1.5238130e+01
   1.2975820e+03   1.2862300e+01
   1.2980640e+03   6.7327880e+00
   1.2985460e+03   4.3807370e+00
   1.2990290e+03   1.9597170e+00
   1.2995110e+03   5.5300900e-01
   1.2999930e+03   1.7051090e+00
   1.3004750e+03   4.0440670e+00
   1.3009570e+03   7.4593810e+00
   1.3014390e+03   1.0603640e+01
   1.3019210e+03   7.8505860e+00
   1.3024030e+03   1.7538760e+00
   1.3028850e+03   3.0913999e-02
   1.3033680e+03   0.0000000e+00
   1.5000000e+03   0.0000000e+00
