   9.1981000e+01   0.0000000e+00
   9.3375000e+01   1.3865600e+02
   9.4768000e+01   7.7186900e+02
   9.6161000e+01   1.6875700e+03
   9.7554000e+01   3.3251320e+03
   9.8947000e+01   4.7817730e+03
   1.0034000e+02   6.6002030e+03
   1.0173200e+02   8.0109230e+03
   1.0312400e+02   8.9743960e+03
   1.0451600e+02   8.4813220e+03
   1.0590800e+02   7.5899710e+03
   1.0730000e+02   6.0674490e+03
   1.0869100e+02   4.1571770e+03
   1.1008200e+02   2.9398630e+03
   1.1147300e+02   1.8086450e+03
   1.1286400e+02   1.4199020e+03
   1.1425400e+02   1.4866810e+03
   1.1564400e+02   1.7406180e+03
   1.1703400e+02   1.9063690e+03
   1.1842400e+02   1.6049730e+03
   1.1981300e+02   8.6478900e+02
   1.2120300e+02   8.9331100e+02
   1.2259200e+02   6.2913700e+02
   1.2398100e+02   3.3494300e+02
   1.2536900e+02   1.5946900e+02
   1.2675800e+02   7.8494000e+01
   1.2814600e+02   8.3840000e+01
   1.2953400e+02   3.0600000e+01
   1.3092200e+02   1.8981200e+02
   1.3230900e+02   1.4319900e+02
   1.3369600e+02   8.3680000e+01
   1.3508300e+02   2.0157200e+02
   1.3647000e+02   1.0484600e+02
   1.3785700e+02   4.9965000e+01
   1.3924300e+02   4.9273000e+01
   1.4063000e+02   1.7185700e+02
   1.4201600e+02   6.6871000e+01
   1.4340100e+02   4.3639100e+02
   1.4478700e+02   5.6847900e+02
   1.4617200e+02   3.8918900e+02
   1.4755700e+02   3.4557200e+02
   1.4894200e+02   3.1367400e+02
   1.5032700e+02   3.8652700e+02
   1.5171100e+02   4.9816600e+02
   1.5309600e+02   5.9062300e+02
   1.5448000e+02   6.7254700e+02
   1.5586300e+02   7.5777100e+02
   1.5724700e+02   8.6110200e+02
   1.5863000e+02   9.1702100e+02
   1.6001300e+02   1.0528400e+03
   1.6139600e+02   1.1615700e+03
   1.6277900e+02   1.3232290e+03
   1.6416100e+02   1.5988220e+03
   1.6554400e+02   1.9503630e+03
   1.6692600e+02   2.2487150e+03
   1.6830800e+02   2.5751520e+03
   1.6968900e+02   3.1882090e+03
   1.7107000e+02   4.0229380e+03
   1.7245200e+02   5.2809260e+03
   1.7383300e+02   6.4629080e+03
   1.7521300e+02   8.3253520e+03
   1.7659400e+02   1.0362307e+04
   1.7797400e+02   1.2169281e+04
   1.7935400e+02   1.5117691e+04
   1.8073400e+02   1.7844551e+04
   1.8211400e+02   2.0051922e+04
   1.8349300e+02   2.1928584e+04
   1.8487200e+02   2.2887385e+04
   1.8625100e+02   2.2332338e+04
   1.8763000e+02   2.1021557e+04
   1.8900800e+02   1.8210047e+04
   1.9038700e+02   1.5515789e+04
   1.9176500e+02   1.2874789e+04
   1.9314300e+02   9.9980390e+03
   1.9452000e+02   8.0655310e+03
   1.9589800e+02   6.2962150e+03
   1.9727500e+02   5.1430680e+03
   1.9865200e+02   4.0161350e+03
   2.0002900e+02   3.4074060e+03
   2.0140500e+02   2.7698810e+03
   2.0278200e+02   2.4035450e+03
   2.0415800e+02   2.1204410e+03
   2.0553400e+02   1.7675290e+03
   2.0690900e+02   1.8256000e+03
   2.0828500e+02   1.3649490e+03
   2.0966000e+02   1.1914510e+03
   2.1103500e+02   1.1181020e+03
   2.1241000e+02   8.1389500e+02
   2.1378400e+02   8.4582000e+02
   2.1515900e+02   6.6787100e+02
   2.1653300e+02   6.6802500e+02
   2.1790700e+02   5.7727000e+02
   2.1928100e+02   5.4759200e+02
   2.2065400e+02   5.9391000e+02
   2.2202700e+02   4.6543200e+02
   2.2340000e+02   6.9094100e+02
   2.2477300e+02   6.8650600e+02
   2.2614600e+02   6.9813100e+02
   2.2751800e+02   7.2882000e+02
   2.2889100e+02   7.7857600e+02
   2.3026300e+02   8.2541800e+02
   2.3163400e+02   8.6438500e+02
   2.3300600e+02   7.7241800e+02
   2.3437700e+02   6.5652000e+02
   2.3574800e+02   5.7969100e+02
   2.3711900e+02   4.0198600e+02
   2.3849000e+02   1.9837900e+02
   2.3986000e+02   3.2790000e+02
   2.4123100e+02   9.1568000e+01
   2.4260100e+02   1.0138500e+02
   2.4397000e+02   4.7316000e+01
   2.4534000e+02   1.2680000e+01
   2.4670900e+02   6.0572000e+01
   2.4807900e+02   1.5339100e+02
   2.4944800e+02   2.3871000e+01
   2.5081600e+02   2.6071900e+02
   2.5218500e+02   1.9628500e+02
   2.5355300e+02   1.6693400e+02
   2.5492100e+02   2.9469100e+02
   2.5628900e+02   3.4637000e+01
   2.5765700e+02   2.4367000e+02
   2.5902400e+02   1.8713700e+02
   2.6039100e+02   2.1239300e+02
   2.6175800e+02   8.9154000e+01
   2.6312500e+02   3.1274000e+02
   2.6449200e+02   3.0348200e+02
   2.6585800e+02   1.5453900e+02
   2.6722400e+02   2.4697700e+02
   2.6859000e+02   1.3957000e+01
   2.6995600e+02   2.2152000e+02
   2.7132100e+02   6.2300000e+00
   2.7268700e+02   4.6695000e+01
   2.7405200e+02   1.0318000e+01
   2.7541600e+02   1.4299000e+01
   2.7678100e+02   1.4311100e+02
   2.7814600e+02   2.7501800e+02
   2.7951000e+02   3.0101000e+02
   2.8087400e+02   6.3515800e+02
   2.8223700e+02   6.7046500e+02
   2.8360100e+02   1.0329140e+03
   2.8496400e+02   9.9948400e+02
   2.8632700e+02   1.2781580e+03
   2.8769000e+02   1.6079240e+03
   2.8905300e+02   1.6837770e+03
   2.9041600e+02   1.5027030e+03
   2.9177800e+02   1.6267010e+03
   2.9314000e+02   1.2287600e+03
   2.9450200e+02   1.2186170e+03
   2.9586300e+02   9.2278100e+02
   2.9722500e+02   8.6594900e+02
   2.9858600e+02   6.9617200e+02
   2.9994700e+02   5.6798400e+02
   3.0130800e+02   4.9315200e+02
   3.0266800e+02   3.2575400e+02
   3.0402900e+02   4.1985700e+02
   3.0538900e+02   3.9293000e+02
   3.0674900e+02   4.1097300e+02
   3.0810800e+02   2.8298800e+02
   3.0946800e+02   4.0697900e+02
   3.1082700e+02   3.1994300e+02
   3.1218600e+02   3.3869500e+02
   3.1354500e+02   3.5192400e+02
   3.1490300e+02   3.8170100e+02
   3.1626200e+02   3.7857600e+02
   3.1762000e+02   4.4243400e+02
   3.1897800e+02   5.4126800e+02
   3.2033600e+02   4.6008400e+02
   3.2169300e+02   5.8187900e+02
   3.2305100e+02   8.2965400e+02
   3.2440800e+02   9.2741000e+02
   3.2576500e+02   9.1814600e+02
   3.2712100e+02   1.0798630e+03
   3.2847800e+02   1.0445620e+03
   3.2983400e+02   1.0122380e+03
   3.3119000e+02   1.0808870e+03
   3.3254600e+02   1.2474800e+03
   3.3390200e+02   1.1409390e+03
   3.3525700e+02   1.4752400e+03
   3.3661200e+02   1.1382420e+03
   3.3796700e+02   1.3509550e+03
   3.3932200e+02   1.3204610e+03
   3.4067700e+02   1.4667210e+03
   3.4203100e+02   1.4347300e+03
   3.4338500e+02   1.6034750e+03
   3.4473900e+02   2.0040330e+03
   3.4609300e+02   2.0594260e+03
   3.4744600e+02   2.4817170e+03
   3.4879900e+02   2.9539860e+03
   3.5015300e+02   3.6642500e+03
   3.5150500e+02   4.5435210e+03
   3.5285800e+02   5.6597990e+03
   3.5421000e+02   6.8340860e+03
   3.5556300e+02   8.3283750e+03
   3.5691500e+02   9.5388630e+03
   3.5826700e+02   1.0540164e+04
   3.5961800e+02   1.0955461e+04
   3.6096900e+02   1.0668297e+04
   3.6232100e+02   9.9399140e+03
   3.6367200e+02   8.8665060e+03
   3.6502200e+02   7.6034470e+03
   3.6637300e+02   6.5489200e+03
   3.6772300e+02   5.2851680e+03
   3.6907300e+02   4.7677250e+03
   3.7042300e+02   3.8813690e+03
   3.7177300e+02   3.5784920e+03
   3.7312200e+02   2.8683810e+03
   3.7447100e+02   2.7308260e+03
   3.7582100e+02   2.7113960e+03
   3.7716900e+02   2.3058380e+03
   3.7851800e+02   2.4586640e+03
   3.7986600e+02   1.9785470e+03
   3.8121500e+02   2.1036110e+03
   3.8256300e+02   1.9500330e+03
   3.8391000e+02   1.7001500e+03
   3.8525800e+02   1.5213690e+03
   3.8660500e+02   1.4487150e+03
   3.8795200e+02   1.3433120e+03
   3.8929900e+02   1.0638930e+03
   3.9064600e+02   1.0313140e+03
   3.9199200e+02   8.6771500e+02
   3.9333900e+02   8.9076800e+02
   3.9468500e+02   6.6964300e+02
   3.9603100e+02   5.5533400e+02
   3.9737600e+02   8.5902900e+02
   3.9872200e+02   6.5409400e+02
   4.0006700e+02   7.1738900e+02
   4.0141200e+02   4.1320100e+02
   4.0275700e+02   5.4544300e+02
   4.0410100e+02   5.3477500e+02
   4.0544600e+02   5.7491200e+02
   4.0679000e+02   6.2454700e+02
   4.0813400e+02   6.0146900e+02
   4.0947800e+02   6.4762300e+02
   4.1082100e+02   5.8280100e+02
   4.1216500e+02   5.5376000e+02
   4.1350800e+02   4.3696700e+02
   4.1485100e+02   5.1572100e+02
   4.1619300e+02   8.7172100e+02
   4.1753600e+02   7.4744700e+02
   4.1887800e+02   8.9090000e+02
   4.2022000e+02   1.2361460e+03
   4.2156200e+02   1.2406880e+03
   4.2290400e+02   1.2202990e+03
   4.2424500e+02   1.7057440e+03
   4.2558600e+02   1.8676720e+03
   4.2692700e+02   1.9593980e+03
   4.2826800e+02   2.1333630e+03
   4.2960900e+02   2.0500160e+03
   4.3094900e+02   1.9053520e+03
   4.3228900e+02   2.0816880e+03
   4.3362900e+02   2.0630430e+03
   4.3496900e+02   1.8460270e+03
   4.3630900e+02   1.8122460e+03
   4.3764800e+02   1.5954060e+03
   4.3898700e+02   1.7129390e+03
   4.4032600e+02   1.6087680e+03
   4.4166500e+02   1.5020610e+03
   4.4300300e+02   1.3775740e+03
   4.4434200e+02   1.6679730e+03
   4.4568000e+02   1.4608030e+03
   4.4701800e+02   1.6195740e+03
   4.4835500e+02   1.5739300e+03
   4.4969300e+02   1.3661740e+03
   4.5103000e+02   1.5644750e+03
   4.5236700e+02   1.3147870e+03
   4.5370400e+02   1.6231740e+03
   4.5504100e+02   1.1794380e+03
   4.5637700e+02   1.1589120e+03
   4.5771300e+02   1.2837810e+03
   4.5904900e+02   1.2847030e+03
   4.6038500e+02   1.3681620e+03
   4.6172100e+02   1.3563650e+03
   4.6305600e+02   1.5665140e+03
   4.6439100e+02   1.6931310e+03
   4.6572600e+02   1.8461680e+03
   4.6706100e+02   2.1551970e+03
   4.6839500e+02   2.0101190e+03
   4.6973000e+02   1.7409820e+03
   4.7106400e+02   1.9657890e+03
   4.7239800e+02   1.5725350e+03
   4.7373100e+02   1.5952270e+03
   4.7506500e+02   1.0868570e+03
   4.7639800e+02   9.9242800e+02
   4.7773100e+02   8.6794300e+02
   4.7906400e+02   8.9839600e+02
   4.8039700e+02   5.4979300e+02
   4.8172900e+02   6.1912900e+02
   4.8306200e+02   5.0640800e+02
   4.8439400e+02   4.6562100e+02
   4.8572500e+02   5.3877700e+02
   4.8705700e+02   4.3487300e+02
   4.8838900e+02   3.8090800e+02
   4.8972000e+02   4.2388300e+02
   4.9105100e+02   2.7179700e+02
   4.9238200e+02   5.3164800e+02
   4.9371200e+02   3.5244100e+02
   4.9504300e+02   3.8317200e+02
   4.9637300e+02   3.2184400e+02
   4.9770300e+02   4.8845700e+02
   4.9903200e+02   3.4201800e+02
   5.0036200e+02   4.5552300e+02
   5.0169100e+02   4.9698200e+02
   5.0302000e+02   5.5739800e+02
   5.0434900e+02   3.8777700e+02
   5.0567800e+02   5.2410900e+02
   5.0700700e+02   4.3740400e+02
   5.0833500e+02   2.9765800e+02
   5.0966300e+02   3.1786500e+02
   5.1099100e+02   3.8603300e+02
   5.1231900e+02   4.5415400e+02
   5.1364600e+02   4.4522500e+02
   5.1497300e+02   5.1724600e+02
   5.1630000e+02   2.8122100e+02
   5.1762700e+02   4.6514300e+02
   5.1895400e+02   4.7701400e+02
   5.2028000e+02   1.5083200e+02
   5.2160700e+02   2.6758200e+02
   5.2293300e+02   2.7727900e+02
   5.2425900e+02   2.0794700e+02
   5.2558400e+02   2.6559000e+01
   5.2691000e+02   5.9070000e+01
   5.2823500e+02   1.6949400e+02
   5.2956000e+02   2.7784800e+02
   5.3088500e+02   1.4015600e+02
   5.3220900e+02   2.2258800e+02
   5.3353400e+02   1.7797100e+02
   5.3485800e+02   1.7067000e+02
   5.3618200e+02   1.2471300e+02
   5.3750600e+02   3.8703000e+01
   5.3882900e+02   3.6596000e+01
   5.4015200e+02   2.0744700e+02
   5.4147600e+02   1.2380000e+00
   5.4279900e+02   1.3891200e+02
   5.4412100e+02   4.4479000e+01
   5.4544400e+02   2.0998000e+01
   5.4676600e+02   4.0373000e+01
   5.4808800e+02   1.3645000e+01
   5.4941000e+02   6.6182000e+01
   5.5073200e+02   7.7861000e+01
   5.5205300e+02   1.3781800e+02
   5.5337500e+02   1.4769700e+02
   5.5469600e+02   6.5490000e+00
   5.5601700e+02   3.0287000e+01
   5.5733700e+02   8.5930000e+01
   5.5865800e+02   7.5484000e+01
   5.5997800e+02   9.3949000e+01
   5.6129800e+02   1.1328000e+01
   5.6261800e+02   1.2160000e+02
   5.6393800e+02   1.1220500e+02
   5.6525700e+02   5.0176000e+01
   5.6657600e+02   1.4772500e+02
   5.6789500e+02   8.9430000e+01
   5.6921400e+02   2.0529700e+02
   5.7053300e+02   1.7900600e+02
   5.7185100e+02   4.9346000e+01
   5.7317000e+02   3.9232000e+01
   5.7448800e+02   1.4829300e+02
   5.7580500e+02   1.1779900e+02
   5.7712300e+02   9.4305000e+01
   5.7844000e+02   3.7324000e+01
   5.7975800e+02   1.9323400e+02
   5.8107500e+02   2.2308600e+02
   5.8239100e+02   5.3656000e+01
   5.8370800e+02   2.2049600e+02
   5.8502400e+02   2.2666000e+01
   5.8634100e+02   5.8184000e+01
   5.8765700e+02   1.5881000e+01
   5.8897200e+02   1.6894100e+02
   5.9028800e+02   1.8696300e+02
   5.9160300e+02   8.6039000e+01
   5.9291800e+02   8.1410000e+01
   5.9423300e+02   2.4242600e+02
   5.9554800e+02   5.8166600e+02
   5.9686300e+02   4.7041400e+02
   5.9817700e+02   1.0158400e+02
   5.9949100e+02   2.2119500e+02
   6.0080500e+02   1.1572900e+02
   6.0211900e+02   1.2017400e+02
   6.0343200e+02   2.8054100e+02
   6.0474600e+02   2.8583600e+02
   6.0605900e+02   3.7505300e+02
   6.0737200e+02   3.9091000e+02
   6.0868500e+02   3.6753300e+02
   6.0999700e+02   3.5427500e+02
   6.1130900e+02   3.2521700e+02
   6.1262100e+02   3.4405700e+02
   6.1393300e+02   2.8287900e+02
   6.1524500e+02   4.1659800e+02
   6.1655700e+02   3.9424600e+02
   6.1786800e+02   4.9482200e+02
   6.1917900e+02   5.6333000e+02
   6.2049000e+02   6.7577000e+02
   6.2180100e+02   4.2614100e+02
   6.2311100e+02   8.8644300e+02
   6.2442100e+02   5.4267400e+02
   6.2573100e+02   9.3583000e+02
   6.2704100e+02   7.3392200e+02
   6.2835100e+02   1.2029410e+03
   6.2966000e+02   9.1989300e+02
   6.3097000e+02   8.6677500e+02
   6.3227900e+02   1.4865840e+03
   6.3358800e+02   1.3903260e+03
   6.3489600e+02   1.5240000e+03
   6.3620500e+02   1.5406020e+03
   6.3751300e+02   1.6771310e+03
   6.3882100e+02   1.6295880e+03
   6.4012900e+02   1.7289750e+03
   6.4143700e+02   1.9232890e+03
   6.4274400e+02   1.9425330e+03
   6.4405100e+02   2.0022850e+03
   6.4535800e+02   1.9809120e+03
   6.4666500e+02   1.9800410e+03
   6.4797200e+02   2.1809980e+03
   6.4927800e+02   2.0970250e+03
   6.5058400e+02   2.3768380e+03
   6.5189000e+02   2.1945800e+03
   6.5319600e+02   2.8582680e+03
   6.5450200e+02   2.8156370e+03
   6.5580700e+02   3.0931760e+03
   6.5711300e+02   3.0422460e+03
   6.5841800e+02   3.5870820e+03
   6.5972200e+02   3.9178240e+03
   6.6102700e+02   4.4812640e+03
   6.6233100e+02   4.6341020e+03
   6.6363600e+02   5.1769550e+03
   6.6494000e+02   5.9045720e+03
   6.6624400e+02   6.5958850e+03
   6.6754700e+02   8.1167930e+03
   6.6885100e+02   9.2203400e+03
   6.7015400e+02   1.1184156e+04
   6.7145700e+02   1.3291547e+04
   6.7276000e+02   1.5892398e+04
   6.7406200e+02   1.9508107e+04
   6.7536500e+02   2.2599082e+04
   6.7666700e+02   2.5905777e+04
   6.7796900e+02   2.9462455e+04
   6.7927100e+02   3.1168777e+04
   6.8057200e+02   3.2409598e+04
   6.8187400e+02   3.2062908e+04
   6.8317500e+02   3.1079500e+04
   6.8447600e+02   2.8985637e+04
   6.8577700e+02   2.5883162e+04
   6.8707700e+02   2.3107846e+04
   6.8837800e+02   1.9879316e+04
   6.8967800e+02   1.7734033e+04
   6.9097800e+02   1.5620738e+04
   6.9227800e+02   1.3409053e+04
   6.9357700e+02   1.1347141e+04
   6.9487700e+02   1.0773309e+04
   6.9617600e+02   8.9363950e+03
   6.9747500e+02   8.5122540e+03
   6.9877400e+02   7.4203380e+03
   7.0007200e+02   6.7175510e+03
   7.0137100e+02   5.8708910e+03
   7.0266900e+02   5.2139140e+03
   7.0396700e+02   4.2812150e+03
   7.0526500e+02   4.1288750e+03
   7.0656200e+02   3.6878630e+03
   7.0786000e+02   3.1816680e+03
   7.0915700e+02   2.5105470e+03
   7.1045400e+02   2.6342110e+03
   7.1175100e+02   1.8110780e+03
   7.1304700e+02   1.8876640e+03
   7.1434400e+02   1.4759200e+03
   7.1564000e+02   1.6584260e+03
   7.1693600e+02   1.1187300e+03
   7.1823200e+02   1.2046310e+03
   7.1952700e+02   1.4038420e+03
   7.2082300e+02   1.0361820e+03
   7.2211800e+02   8.9429700e+02
   7.2341300e+02   1.0034840e+03
   7.2470800e+02   7.9747300e+02
   7.2600200e+02   6.3029100e+02
   7.2729700e+02   8.4818800e+02
   7.2859100e+02   4.4602100e+02
   7.2988500e+02   8.5234600e+02
   7.3117900e+02   8.7344100e+02
   7.3247200e+02   6.0902100e+02
   7.3376600e+02   4.2961300e+02
   7.3505900e+02   5.5884200e+02
   7.3635200e+02   5.3495300e+02
   7.3764500e+02   5.7460400e+02
   7.3893700e+02   5.5650600e+02
   7.4023000e+02   6.4695100e+02
   7.4152200e+02   5.9999800e+02
   7.4281400e+02   6.1547900e+02
   7.4410600e+02   5.2556400e+02
   7.4539700e+02   5.6984400e+02
   7.4668900e+02   5.2401600e+02
   7.4798000e+02   3.9368200e+02
   7.4927100e+02   6.6977000e+02
   7.5056200e+02   4.2033600e+02
   7.5185300e+02   7.1057400e+02
   7.5314300e+02   4.1852900e+02
   7.5443300e+02   7.5362900e+02
   7.5572300e+02   8.5168900e+02
   7.5701300e+02   5.4934200e+02
   7.5830300e+02   9.9316200e+02
   7.5959200e+02   6.0537100e+02
   7.6088100e+02   8.2557400e+02
   7.6217000e+02   8.5678100e+02
   7.6345900e+02   1.0374920e+03
   7.6474800e+02   1.0032070e+03
   7.6603600e+02   1.0060530e+03
   7.6732500e+02   1.1856390e+03
   7.6861300e+02   9.3828500e+02
   7.6990100e+02   1.1120780e+03
   7.7118800e+02   1.1460290e+03
   7.7247600e+02   8.6372300e+02
   7.7376300e+02   1.2452500e+03
   7.7505000e+02   7.7766000e+02
   7.7633700e+02   1.2203050e+03
   7.7762400e+02   1.1654860e+03
   7.7891000e+02   1.1696210e+03
   7.8019600e+02   1.2772150e+03
   7.8148200e+02   1.2008440e+03
   7.8276800e+02   1.0748260e+03
   7.8405400e+02   1.0571500e+03
   7.8533900e+02   1.1686910e+03
   7.8662500e+02   1.3018790e+03
   7.8791000e+02   9.5680500e+02
   7.8919500e+02   1.1100100e+03
   7.9047900e+02   1.0699900e+03
   7.9176400e+02   9.4099000e+02
   7.9304800e+02   9.2923800e+02
   7.9433200e+02   8.0719900e+02
   7.9561600e+02   8.5690000e+02
   7.9690000e+02   7.8809600e+02
   7.9818300e+02   8.1371900e+02
   7.9946700e+02   4.9481200e+02
   8.0075000e+02   4.9524000e+02
   8.0203300e+02   7.9059600e+02
   8.0331600e+02   4.8438700e+02
   8.0459800e+02   6.2460400e+02
   8.0588000e+02   5.3877500e+02
   8.0716300e+02   5.1189800e+02
   8.0844500e+02   3.3191200e+02
   8.0972600e+02   2.7285200e+02
   8.1100800e+02   1.2899800e+02
   8.1228900e+02   1.6677700e+02
   8.1357000e+02   2.3521000e+01
   8.1485100e+02   3.6322000e+01
   8.1613200e+02   1.1265400e+02
   8.1741300e+02   2.9932000e+01
   8.1869300e+02   2.7617000e+01
   8.1997300e+02   1.7759600e+02
   8.2125300e+02   3.5271000e+01
   8.2253300e+02   8.9760000e+01
   8.2381300e+02   2.4670900e+02
   8.2509200e+02   8.8582000e+01
   8.2637100e+02   1.1375000e+01
   8.2765000e+02   1.6908200e+02
   8.2892900e+02   1.3271300e+02
   8.3020800e+02   1.8227100e+02
   8.3148600e+02   2.7875400e+02
   8.3276400e+02   1.5669900e+02
   8.3404200e+02   1.0149000e+02
   8.3532000e+02   4.7727000e+01
   8.3659800e+02   6.8865000e+01
   8.3787500e+02   2.0994900e+02
   8.3915200e+02   2.6278700e+02
   8.4042900e+02   2.6975000e+01
   8.4170600e+02   3.3799000e+02
   8.4298300e+02   7.5857000e+01
   8.4425900e+02   3.3460000e+00
   8.4553600e+02   2.0438300e+02
   8.4681200e+02   8.7951000e+01
   8.4808800e+02   1.3360400e+02
   8.4936300e+02   2.0988900e+02
   8.5063900e+02   1.0645900e+02
   8.5191400e+02   1.8375600e+02
   8.5318900e+02   2.6943000e+01
   8.5446400e+02   9.7170000e+00
   8.5573900e+02   1.4846700e+02
   8.5701300e+02   2.3865600e+02
   8.5828800e+02   9.1970000e+00
   8.5956200e+02   7.2102000e+01
   8.6083600e+02   9.4932000e+01
   8.6211000e+02   1.3691400e+02
   8.6338300e+02   1.7516000e+02
   8.6465600e+02   1.7861100e+02
   8.6593000e+02   4.3420000e+00
   8.6720300e+02   1.8802000e+02
   8.6847500e+02   4.8645000e+01
   8.6974800e+02   1.8721500e+02
   8.7102000e+02   1.5740600e+02
   8.7229200e+02   7.3195000e+01
   8.7356400e+02   1.1960500e+02
   8.7483600e+02   1.3700600e+02
   8.7610800e+02   1.2937900e+02
   8.7737900e+02   4.4305000e+01
   8.7865000e+02   1.1897500e+02
   8.7992200e+02   2.4718900e+02
   8.8119200e+02   1.6740200e+02
   8.8246300e+02   5.1941000e+01
   8.8373300e+02   4.5191000e+01
   8.8500400e+02   2.9277000e+01
   8.8627400e+02   1.3930100e+02
   8.8754400e+02   1.1969900e+02
   8.8881300e+02   2.6360500e+02
   8.9008300e+02   2.5272500e+02
   8.9135200e+02   2.3246900e+02
   8.9262100e+02   2.5721700e+02
   8.9389000e+02   1.2201800e+02
   8.9515900e+02   8.9770000e+01
   8.9642700e+02   1.2502000e+01
   8.9769500e+02   1.2484600e+02
   8.9896400e+02   3.5338000e+01
   9.0023200e+02   1.2714300e+02
   9.0149900e+02   1.4097900e+02
   9.0276700e+02   1.1139600e+02
   9.0403400e+02   1.9729700e+02
   9.0530100e+02   7.0412000e+01
   9.0656800e+02   2.3830900e+02
   9.0783500e+02   3.4745900e+02
   9.0910200e+02   1.2455700e+02
   9.1036800e+02   4.2404000e+01
   9.1163400e+02   9.7562000e+01
   9.1290000e+02   3.2445900e+02
   9.1416600e+02   1.5329700e+02
   9.1543200e+02   2.6907400e+02
   9.1669700e+02   2.2578900e+02
   9.1796200e+02   5.6553000e+01
   9.1922700e+02   1.7601400e+02
   9.2049200e+02   1.6152100e+02
   9.2175700e+02   2.8496900e+02
   9.2302100e+02   1.2336300e+02
   9.2428500e+02   1.4368800e+02
   9.2555000e+02   2.6494900e+02
   9.2681300e+02   8.8145000e+01
   9.2807700e+02   2.5427900e+02
   9.2934100e+02   2.2235200e+02
   9.3060400e+02   3.4235700e+02
   9.3186700e+02   4.4230300e+02
   9.3313000e+02   1.9119100e+02
   9.3439300e+02   3.2901600e+02
   9.3565500e+02   6.8977700e+02
   9.3691800e+02   1.6148400e+02
   9.3818000e+02   6.0412500e+02
   9.3944200e+02   2.7470900e+02
   9.4070300e+02   1.9123200e+02
   9.4196500e+02   6.1269100e+02
   9.4322600e+02   4.4609400e+02
   9.4448800e+02   3.7043900e+02
   9.4574900e+02   4.2272700e+02
   9.4700900e+02   5.7495500e+02
   9.4827000e+02   3.3312700e+02
   9.4953000e+02   4.5324000e+02
   9.5079100e+02   3.2429900e+02
   9.5205100e+02   5.0618600e+02
   9.5331100e+02   4.9801800e+02
   9.5457000e+02   3.4690200e+02
   9.5583000e+02   5.3258000e+02
   9.5708900e+02   4.5234800e+02
   9.5834800e+02   5.9005900e+02
   9.5960700e+02   4.9569300e+02
   9.6086600e+02   6.8852300e+02
   9.6212400e+02   3.9905300e+02
   9.6338300e+02   5.4493200e+02
   9.6464100e+02   7.2492400e+02
   9.6589900e+02   4.4688300e+02
   9.6715600e+02   7.1602100e+02
   9.6841400e+02   5.8164100e+02
   9.6967100e+02   5.9110900e+02
   9.7092800e+02   8.4768800e+02
   9.7218500e+02   5.6241800e+02
   9.7344200e+02   7.8244900e+02
   9.7469900e+02   8.1371300e+02
   9.7595500e+02   8.4058200e+02
   9.7721100e+02   9.0574000e+02
   9.7846800e+02   6.7493600e+02
   9.7972300e+02   9.1634000e+02
   9.8097900e+02   7.8589300e+02
   9.8223400e+02   6.3345700e+02
   9.8349000e+02   1.0824610e+03
   9.8474500e+02   5.4637700e+02
   9.8600000e+02   8.0271100e+02
   9.8725400e+02   7.5244900e+02
   9.8850900e+02   5.0709400e+02
   9.8976300e+02   9.0943900e+02
   9.9101700e+02   8.7376000e+02
   9.9227100e+02   4.4979100e+02
   9.9352500e+02   7.1137500e+02
   9.9477900e+02   9.0169100e+02
   9.9603200e+02   9.4984800e+02
   9.9728500e+02   7.3353300e+02
   9.9853800e+02   8.6067200e+02
   9.9979100e+02   6.9539600e+02
   1.0010440e+03   1.0506540e+03
   1.0022960e+03   5.0778700e+02
   1.0035480e+03   9.9251800e+02
   1.0048000e+03   6.5028500e+02
   1.0060520e+03   8.1079300e+02
   1.0073040e+03   9.0338100e+02
   1.0085550e+03   8.1475800e+02
   1.0098070e+03   9.5865000e+02
   1.0110580e+03   8.2524600e+02
   1.0123090e+03   7.4388300e+02
   1.0135590e+03   8.1420900e+02
   1.0148100e+03   9.0047700e+02
   1.0160600e+03   7.3995100e+02
   1.0173100e+03   1.1269570e+03
   1.0185600e+03   1.2084840e+03
   1.0198100e+03   5.8940800e+02
   1.0210600e+03   9.7929300e+02
   1.0223090e+03   1.2125960e+03
   1.0235580e+03   9.9299000e+02
   1.0248070e+03   1.2283320e+03
   1.0260560e+03   1.1964790e+03
   1.0273050e+03   1.2346040e+03
   1.0285530e+03   1.0688400e+03
   1.0298010e+03   1.0714380e+03
   1.0310490e+03   1.4566040e+03
   1.0322970e+03   1.1106350e+03
   1.0335450e+03   1.1835620e+03
   1.0347930e+03   1.4912170e+03
   1.0360400e+03   1.0868240e+03
   1.0372870e+03   1.2554320e+03
   1.0385340e+03   1.0888440e+03
   1.0397810e+03   1.3966050e+03
   1.0410270e+03   1.6770040e+03
   1.0422740e+03   1.0157300e+03
   1.0435200e+03   1.3773630e+03
   1.0447660e+03   1.5066410e+03
   1.0460120e+03   1.2379690e+03
   1.0472570e+03   1.1859840e+03
   1.0485030e+03   1.1639260e+03
   1.0497480e+03   1.7453320e+03
   1.0509930e+03   1.3693520e+03
   1.0522380e+03   1.6157500e+03
   1.0534830e+03   1.5675390e+03
   1.0547270e+03   1.4629380e+03
   1.0559710e+03   1.4839490e+03
   1.0572160e+03   1.8406680e+03
   1.0584590e+03   1.7315040e+03
   1.0597030e+03   1.8030820e+03
   1.0609470e+03   1.7733360e+03
   1.0621900e+03   1.8445740e+03
   1.0634330e+03   1.7446250e+03
   1.0646760e+03   1.9281250e+03
   1.0659190e+03   1.8156020e+03
   1.0671620e+03   1.6358830e+03
   1.0684040e+03   2.0845000e+03
   1.0696460e+03   1.6304800e+03
   1.0708880e+03   1.7138550e+03
   1.0721300e+03   1.9431600e+03
   1.0733720e+03   1.9692660e+03
   1.0746130e+03   1.6539180e+03
   1.0758550e+03   1.9306330e+03
   1.0770960e+03   1.5709140e+03
   1.0783370e+03   1.7388320e+03
   1.0795780e+03   1.8321560e+03
   1.0808180e+03   1.7287030e+03
   1.0820590e+03   1.8530550e+03
   1.0832990e+03   1.6736560e+03
   1.0845390e+03   2.0141020e+03
   1.0857790e+03   1.6046720e+03
   1.0870180e+03   1.6342460e+03
   1.0882580e+03   1.6887230e+03
   1.0894970e+03   1.5196680e+03
   1.0907360e+03   1.5788750e+03
   1.0919750e+03   1.4717620e+03
   1.0932130e+03   1.2377700e+03
   1.0944520e+03   1.3218630e+03
   1.0956900e+03   1.5327340e+03
   1.0969280e+03   1.3048320e+03
   1.0981660e+03   1.3889730e+03
   1.0994040e+03   1.3743790e+03
   1.1006420e+03   1.5099060e+03
   1.1018790e+03   1.2949530e+03
   1.1031160e+03   1.8367700e+03
   1.1043530e+03   1.6337540e+03
   1.1055900e+03   1.8726020e+03
   1.1068270e+03   1.4944800e+03
   1.1080630e+03   1.6678590e+03
   1.1092990e+03   1.4801090e+03
   1.1105360e+03   1.4631250e+03
   1.1117710e+03   1.6626520e+03
   1.1130070e+03   1.5567850e+03
   1.1142430e+03   1.7311410e+03
   1.1154780e+03   1.9521290e+03
   1.1167130e+03   1.6398550e+03
   1.1179480e+03   1.3777850e+03
   1.1191830e+03   1.4049840e+03
   1.1204180e+03   9.8105900e+02
   1.1216520e+03   1.0092230e+03
   1.1228860e+03   1.1228090e+03
   1.1241200e+03   7.9579300e+02
   1.1253540e+03   8.8415600e+02
   1.1265880e+03   3.7586700e+02
   1.1278210e+03   6.7189800e+02
   1.1290550e+03   2.0064100e+02
   1.1302880e+03   4.7660500e+02
   1.1315210e+03   4.5739800e+02
   1.1327530e+03   3.4799600e+02
   1.1339860e+03   1.0401200e+02
   1.1352180e+03   2.5378100e+02
   1.1364500e+03   6.4970700e+02
   1.1376820e+03   1.3923800e+02
   1.1389140e+03   3.0303500e+02
   1.1401460e+03   4.0789000e+01
   1.1413770e+03   5.2066000e+01
   1.1426090e+03   9.3480000e+01
   1.1438400e+03   2.6760000e+00
   1.1450710e+03   1.2489500e+02
   1.1463010e+03   3.0600400e+02
   1.1475320e+03   3.1738000e+01
   1.1487620e+03   1.0962100e+02
   1.1499920e+03   4.5727000e+01
   1.1512220e+03   1.6212100e+02
   1.1524520e+03   4.2562000e+01
   1.1536820e+03   2.4919500e+02
   1.1549110e+03   1.7931200e+02
   1.1561400e+03   1.3025000e+02
   1.1573690e+03   4.2300000e+00
   1.1585980e+03   1.2375000e+02
   1.1598270e+03   3.7340000e+00
   1.1610550e+03   2.3899600e+02
   1.1622840e+03   7.3168000e+01
   1.1635120e+03   2.2084400e+02
   1.1647400e+03   1.3117200e+02
   1.1659670e+03   2.0007000e+02
   1.1671950e+03   1.9224600e+02
   1.1684220e+03   3.2960500e+02
   1.1696500e+03   1.8577300e+02
   1.1708770e+03   6.8566000e+01
   1.1721030e+03   1.1612900e+02
   1.1733300e+03   1.6720700e+02
   1.1745570e+03   4.3750000e+00
   1.1757830e+03   2.7260500e+02
   1.1770090e+03   2.0817200e+02
   1.1782350e+03   1.7396100e+02
   1.1794610e+03   2.1118400e+02
   1.1806860e+03   6.4023000e+01
   1.1819120e+03   1.9617000e+01
   1.1831370e+03   3.9302000e+02
   1.1843620e+03   2.6912100e+02
   1.1855870e+03   7.7551000e+01
   1.1868110e+03   3.3044100e+02
   1.1880360e+03   3.9277000e+02
   1.1892600e+03   7.8039000e+01
   1.1904840e+03   3.1505500e+02
   1.1917080e+03   2.5073800e+02
   1.1929320e+03   2.0998400e+02
   1.1941550e+03   9.9238000e+01
   1.1953780e+03   8.2891000e+01
   1.1966020e+03   2.1445300e+02
   1.1978250e+03   2.6360900e+02
   1.1990470e+03   3.3008000e+01
   1.2002700e+03   5.1416400e+02
   1.2014920e+03   2.0253500e+02
   1.2027150e+03   5.2687500e+02
   1.2039370e+03   1.0492000e+01
   1.2051590e+03   4.4047300e+02
   1.2063800e+03   2.6287900e+02
   1.2076020e+03   5.2305500e+02
   1.2088230e+03   5.2528100e+02
   1.2100440e+03   3.0284000e+02
   1.2112650e+03   4.8676600e+02
   1.2124860e+03   3.5633200e+02
   1.2137070e+03   3.4334000e+02
   1.2149270e+03   1.8400800e+02
   1.2161470e+03   3.3359000e+02
   1.2173670e+03   2.0707800e+02
   1.2185870e+03   3.3281600e+02
   1.2198070e+03   4.4214500e+02
   1.2210270e+03   3.1432400e+02
   1.2222460e+03   6.5239100e+02
   1.2234650e+03   1.1137100e+02
   1.2246840e+03   3.1425400e+02
   1.2259030e+03   7.9602700e+02
   1.2271210e+03   4.5667600e+02
   1.2283400e+03   3.4836300e+02
   1.2295580e+03   5.0048000e+02
   1.2307760e+03   4.1881600e+02
   1.2319940e+03   2.7305100e+02
   1.2332120e+03   4.2616400e+02
   1.2344290e+03   5.0057800e+02
   1.2356460e+03   4.1769900e+02
   1.2368640e+03   2.5441400e+02
   1.2380810e+03   5.9000800e+02
   1.2392970e+03   2.8277700e+02
   1.2405140e+03   4.0914800e+02
   1.2417300e+03   4.9741400e+02
   1.2429470e+03   4.6998800e+02
   1.2441630e+03   3.0907800e+02
   1.2453780e+03   3.4697700e+02
   1.2465940e+03   7.0172700e+02
   1.2478100e+03   6.8636700e+02
   1.2490250e+03   6.9461000e+01
   1.2502400e+03   6.2232400e+02
   1.2514550e+03   2.9354700e+02
   1.2526700e+03   3.6715600e+02
   1.2538850e+03   4.8187900e+02
   1.2550990e+03   2.5482400e+02
   1.2563130e+03   2.6121500e+02
   1.2575270e+03   1.4367600e+02
   1.2587410e+03   8.0410000e+01
   1.2599550e+03   1.6485900e+02
   1.2611680e+03   7.2418000e+01
   1.2623820e+03   2.7709800e+02
   1.2635950e+03   4.4856200e+02
   1.2648080e+03   3.6985500e+02
   1.2660210e+03   3.8343000e+02
   1.2672330e+03   3.4253900e+02
   1.2684460e+03   2.2659800e+02
   1.2696580e+03   3.5242600e+02
   1.2708700e+03   2.4887500e+02
   1.2720820e+03   5.4887000e+01
   1.2732940e+03   2.8972700e+02
   1.2745050e+03   3.4005500e+02
   1.2757160e+03   1.0252300e+02
   1.2769280e+03   2.8437900e+02
   1.2781390e+03   4.3301000e+01
   1.2793490e+03   4.2933200e+02
   1.2805600e+03   2.3377000e+02
   1.2817700e+03   4.1313300e+02
   1.2829810e+03   3.6351600e+02
   1.2841910e+03   9.9000000e+01
   1.2854010e+03   3.6413700e+02
   1.2866100e+03   4.4515600e+02
   1.2878200e+03   4.4035000e+01
   1.2890290e+03   4.2592200e+02
   1.2902390e+03   5.9961000e+01
   1.2914480e+03   3.9662500e+02
   1.2926560e+03   2.3002700e+02
   1.2938650e+03   6.1930000e+01
   1.2950730e+03   4.5104700e+02
   1.2962820e+03   4.2975800e+02
   1.2974900e+03   3.9273000e+01
   1.2986980e+03   3.4358200e+02
   1.2999060e+03   3.5464100e+02
   1.3011130e+03   2.7752000e+02
   1.3023200e+03   2.6279700e+02
   1.3035280e+03   1.4192200e+02
   1.3047350e+03   6.7898000e+01
   1.3059420e+03   7.2460000e+00
   1.3071480e+03   2.4391000e+02
   1.3083550e+03   3.4984800e+02
   1.3095610e+03   2.0340000e+01
   1.3107670e+03   4.8494100e+02
   1.3119730e+03   2.1650800e+02
   1.3131790e+03   9.2773000e+01
   1.3143840e+03   3.4560500e+02
   1.3155900e+03   1.6972700e+02
   1.3167950e+03   6.2012000e+01
   1.3180000e+03   2.8676200e+02
   1.3192050e+03   6.2883000e+01
   1.3204100e+03   1.9577700e+02
   1.3216140e+03   1.2889500e+02
   1.3228190e+03   2.5414100e+02
   1.3240230e+03   1.3259000e+02
   1.3252270e+03   1.3659800e+02
   1.3264310e+03   4.7865200e+02
   1.3276340e+03   1.5457400e+02
   1.3288380e+03   1.1301600e+02
   1.3300410e+03   1.6244100e+02
   1.3312440e+03   9.5246000e+01
   1.3324470e+03   3.8345300e+02
   1.3336500e+03   4.1289000e+01
   1.3348520e+03   1.7465200e+02
   1.3360550e+03   2.3310500e+02
   1.3372570e+03   1.0814100e+02
   1.3384590e+03   2.8885200e+02
   1.3396610e+03   5.5258000e+01
   1.3408620e+03   4.2329300e+02
   1.3420640e+03   2.6269100e+02
   1.3432650e+03   1.8302700e+02
   1.3444660e+03   2.1726600e+02
   1.3456670e+03   3.8534400e+02
   1.3468680e+03   3.7105500e+02
   1.3480680e+03   5.2476600e+02
   1.3492690e+03   4.2151600e+02
   1.3504690e+03   5.3265200e+02
   1.3516690e+03   8.4548400e+02
   1.3528690e+03   4.4224200e+02
   1.3540690e+03   5.3243800e+02
   1.3552680e+03   7.6963700e+02
   1.3564680e+03   5.5105000e+01
   1.3576670e+03   5.0370700e+02
   1.3588660e+03   6.7262900e+02
   1.3600650e+03   6.0450000e+02
   1.3612630e+03   6.2352000e+02
   1.3624620e+03   4.8077000e+02
   1.3636600e+03   5.5277300e+02
   1.3648580e+03   7.4620700e+02
   1.3660560e+03   6.1196900e+02
   1.3672540e+03   8.0284400e+02
   1.3684510e+03   7.8999200e+02
   1.3696490e+03   6.0205100e+02
   1.3708460e+03   3.2423400e+02
   1.3720430e+03   5.3009400e+02
   1.3732400e+03   3.9774600e+02
   1.3744360e+03   5.6986300e+02
   1.3756330e+03   7.4622300e+02
   1.3768290e+03   5.6879700e+02
   1.3780250e+03   4.6207800e+02
   1.3792210e+03   4.8610500e+02
   1.3804170e+03   6.7090200e+02
   1.3816130e+03   6.6405900e+02
   1.3828080e+03   4.6805500e+02
   1.3840030e+03   7.7859400e+02
   1.3851990e+03   7.8004300e+02
   1.3863930e+03   4.3075800e+02
   1.3875880e+03   2.6698800e+02
   1.3887830e+03   7.4982400e+02
   1.3899770e+03   5.9468000e+02
   1.3911710e+03   7.1339100e+02
   1.3923650e+03   3.8405500e+02
   1.3935590e+03   4.0642200e+02
   1.3947530e+03   8.3053900e+02
   1.3959460e+03   3.1343800e+02
   1.3971400e+03   6.2872700e+02
   1.3983330e+03   3.6965600e+02
   1.3995260e+03   4.9660200e+02
   1.4007190e+03   3.8244100e+02
   1.4019110e+03   6.7178500e+02
   1.4031040e+03   4.8297700e+02
   1.4042960e+03   4.3425400e+02
   1.4054880e+03   1.4526600e+02
   1.4066800e+03   5.1504700e+02
   1.4078720e+03   1.6976600e+02
   1.4090630e+03   3.0989100e+02
   1.4102550e+03   6.2016400e+02
   1.4114460e+03   1.3273400e+02
   1.4126370e+03   5.5155900e+02
   1.4138280e+03   3.9852000e+01
   1.4150180e+03   2.7700400e+02
   1.4162090e+03   4.1241000e+02
   1.4173990e+03   6.0161300e+02
   1.4185890e+03   2.2243000e+02
   1.4197790e+03   7.7799600e+02
   1.4209690e+03   2.9367600e+02
   1.4221590e+03   3.8438700e+02
   1.4233480e+03   2.1947300e+02
   1.4245370e+03   4.7494500e+02
   1.4257260e+03   4.0012100e+02
   1.4269150e+03   2.4882800e+02
   1.4281040e+03   4.3185900e+02
   1.4292930e+03   3.0589800e+02
   1.4304810e+03   5.4951600e+02
   1.4316690e+03   2.8322700e+02
   1.4328570e+03   4.0158200e+02
   1.4340450e+03   3.2760200e+02
   1.4352330e+03   2.7044900e+02
   1.4364200e+03   8.3100000e+02
   1.4376080e+03   8.1360200e+02
   1.4387950e+03   1.3866000e+02
   1.4399820e+03   5.5516000e+02
   1.4411690e+03   5.8109800e+02
   1.4423550e+03   4.0043800e+02
   1.4435420e+03   6.0721900e+02
   1.4447280e+03   4.7687900e+02
   1.4459140e+03   4.0092600e+02
   1.4471000e+03   3.7460500e+02
   1.4482860e+03   4.4347700e+02
   1.4494720e+03   4.1926600e+02
   1.4506570e+03   3.4336000e+01
   1.4518420e+03   8.0162500e+02
   1.4530270e+03   2.9285900e+02
   1.4542120e+03   2.5597700e+02
   1.4553970e+03   7.9975000e+02
   1.4565810e+03   2.7206600e+02
   1.4577660e+03   5.5508200e+02
   1.4589500e+03   5.0894100e+02
   1.4601340e+03   1.8499200e+02
   1.4613180e+03   4.5502000e+02
   1.4625010e+03   1.8542600e+02
   1.4636850e+03   1.4925800e+02
   1.4648680e+03   4.9341000e+02
   1.4660510e+03   1.7850000e+00
   1.4672340e+03   0.0000000e+00
   1.5000000e+03   0.0000000e+00
