   1.0000000e+02   0.0000000e+00
   1.5592930e+02   0.0000000e+00
   1.5641150e+02   8.0463870e+00
   1.5689360e+02   1.4688960e+01
   1.5737570e+02   1.4423830e+00
   1.5785780e+02   4.1494140e+00
   1.5833990e+02   3.1254880e+00
   1.5882210e+02   1.5735840e+01
   1.5930420e+02   2.9105470e+01
   1.5978630e+02   4.2584470e+01
   1.6026840e+02   5.5648930e+01
   1.6075050e+02   6.6697750e+01
   1.6123260e+02   7.6404300e+01
   1.6171480e+02   8.8273930e+01
   1.6219690e+02   1.0244820e+02
   1.6267900e+02   1.2009670e+02
   1.6316110e+02   1.4186230e+02
   1.6364320e+02   1.7797750e+02
   1.6412530e+02   2.1064010e+02
   1.6460750e+02   2.2749560e+02
   1.6508960e+02   2.2796970e+02
   1.6557170e+02   2.2882370e+02
   1.6605380e+02   2.3728910e+02
   1.6653590e+02   2.5240190e+02
   1.6701800e+02   2.7273780e+02
   1.6750020e+02   3.0054390e+02
   1.6798230e+02   3.3183980e+02
   1.6846440e+02   3.6594480e+02
   1.6894650e+02   4.0394340e+02
   1.6942860e+02   4.3676070e+02
   1.6991070e+02   4.5507280e+02
   1.7039290e+02   4.6299320e+02
   1.7087500e+02   4.7011520e+02
   1.7135710e+02   4.9304590e+02
   1.7183920e+02   5.1227100e+02
   1.7232130e+02   5.0531010e+02
   1.7280340e+02   4.6645260e+02
   1.7328560e+02   4.1062450e+02
   1.7376770e+02   3.3560790e+02
   1.7424980e+02   2.5008350e+02
   1.7473190e+02   1.8472610e+02
   1.7521400e+02   1.7854790e+02
   1.7569610e+02   1.9939210e+02
   1.7617830e+02   1.9525730e+02
   1.7666040e+02   1.4771780e+02
   1.7714250e+02   8.8574220e+01
   1.7762460e+02   5.4223140e+01
   1.7810670e+02   4.2929200e+01
   1.7858880e+02   4.2325680e+01
   1.7907100e+02   5.0600590e+01
   1.7955310e+02   6.2885250e+01
   1.8003520e+02   6.7187010e+01
   1.8051730e+02   5.7077150e+01
   1.8099940e+02   4.1119630e+01
   1.8148150e+02   3.1195800e+01
   1.8196370e+02   2.7359860e+01
   1.8244580e+02   2.9979490e+01
   1.8292790e+02   4.4287110e+01
   1.8341000e+02   6.6744630e+01
   1.8389210e+02   8.4354490e+01
   1.8437420e+02   9.1863280e+01
   1.8485640e+02   9.2865720e+01
   1.8533850e+02   9.4285160e+01
   1.8582060e+02   9.6212400e+01
   1.8630270e+02   9.9071780e+01
   1.8678480e+02   1.0767530e+02
   1.8726690e+02   1.2015090e+02
   1.8774910e+02   1.2272410e+02
   1.8823120e+02   1.0261570e+02
   1.8871330e+02   6.8529790e+01
   1.8919540e+02   5.2920900e+01
   1.8967750e+02   5.7141110e+01
   1.9015960e+02   7.4109860e+01
   1.9064180e+02   1.0447510e+02
   1.9112390e+02   1.4733690e+02
   1.9160600e+02   1.7541260e+02
   1.9208810e+02   1.6903760e+02
   1.9257020e+02   1.3320170e+02
   1.9305240e+02   1.1409960e+02
   1.9353450e+02   1.1570750e+02
   1.9401660e+02   1.2364840e+02
   1.9449870e+02   1.1039840e+02
   1.9498080e+02   7.3855470e+01
   1.9546290e+02   4.7890140e+01
   1.9594510e+02   5.5301760e+01
   1.9642720e+02   9.5467770e+01
   1.9690930e+02   1.2119780e+02
   1.9739140e+02   1.2826120e+02
   1.9787350e+02   1.2522270e+02
   1.9835560e+02   1.2856050e+02
   1.9883780e+02   1.3939650e+02
   1.9931990e+02   1.4911820e+02
   1.9980200e+02   1.5261430e+02
   2.0028410e+02   1.4938670e+02
   2.0076620e+02   1.4515330e+02
   2.0124830e+02   1.3983400e+02
   2.0173050e+02   1.3405180e+02
   2.0221260e+02   1.2791210e+02
   2.0269470e+02   1.1991700e+02
   2.0317680e+02   1.1714840e+02
   2.0365890e+02   1.2832910e+02
   2.0414100e+02   1.5700680e+02
   2.0462320e+02   1.7248050e+02
   2.0510530e+02   1.7000100e+02
   2.0558740e+02   1.5347460e+02
   2.0606950e+02   1.3258300e+02
   2.0655160e+02   1.0285350e+02
   2.0703370e+02   8.0509770e+01
   2.0751590e+02   7.9450200e+01
   2.0799800e+02   1.0419340e+02
   2.0848010e+02   1.2866990e+02
   2.0896220e+02   1.5314450e+02
   2.0944430e+02   1.7486130e+02
   2.0992640e+02   1.7631840e+02
   2.1040860e+02   1.4770800e+02
   2.1089070e+02   1.1853610e+02
   2.1137280e+02   1.1481250e+02
   2.1185490e+02   1.4642380e+02
   2.1233700e+02   1.6941110e+02
   2.1281910e+02   1.7471190e+02
   2.1330130e+02   1.6487600e+02
   2.1378340e+02   1.6277150e+02
   2.1426550e+02   1.7805180e+02
   2.1474760e+02   1.9107130e+02
   2.1522970e+02   1.8261720e+02
   2.1571180e+02   1.4433890e+02
   2.1619400e+02   1.0737700e+02
   2.1667610e+02   7.3658200e+01
   2.1715820e+02   4.3647460e+01
   2.1764030e+02   3.3276370e+01
   2.1812240e+02   5.0234380e+01
   2.1860450e+02   7.6446290e+01
   2.1908670e+02   9.4333010e+01
   2.1956880e+02   9.9256840e+01
   2.2005090e+02   1.0687010e+02
   2.2053300e+02   1.2391310e+02
   2.2101510e+02   1.5137300e+02
   2.2149720e+02   1.5760450e+02
   2.2197940e+02   1.3136520e+02
   2.2246150e+02   9.6649410e+01
   2.2294360e+02   8.0347660e+01
   2.2342570e+02   9.2279300e+01
   2.2390780e+02   1.0236820e+02
   2.2438990e+02   1.0143550e+02
   2.2487210e+02   8.7989260e+01
   2.2535420e+02   8.5372070e+01
   2.2583630e+02   9.7310550e+01
   2.2631840e+02   1.1659380e+02
   2.2680050e+02   1.3820120e+02
   2.2728270e+02   1.7236040e+02
   2.2776480e+02   1.8795310e+02
   2.2824690e+02   1.6862110e+02
   2.2872900e+02   1.0584180e+02
   2.2921110e+02   7.7001950e+01
   2.2969320e+02   9.8824220e+01
   2.3017540e+02   1.4055570e+02
   2.3065750e+02   1.6251950e+02
   2.3113960e+02   1.5467770e+02
   2.3162170e+02   1.4482320e+02
   2.3210380e+02   1.3854100e+02
   2.3258590e+02   1.3465330e+02
   2.3306810e+02   1.4248340e+02
   2.3355020e+02   1.7206540e+02
   2.3403230e+02   2.0604880e+02
   2.3451440e+02   2.1702150e+02
   2.3499650e+02   1.8642190e+02
   2.3547860e+02   1.6400200e+02
   2.3596080e+02   1.6682420e+02
   2.3644290e+02   2.0088570e+02
   2.3692500e+02   2.3156050e+02
   2.3740710e+02   2.5923440e+02
   2.3788920e+02   2.8295310e+02
   2.3837130e+02   3.0140530e+02
   2.3885350e+02   3.1532520e+02
   2.3933560e+02   3.2238770e+02
   2.3981770e+02   3.1695700e+02
   2.4029980e+02   2.8885640e+02
   2.4078190e+02   2.8999900e+02
   2.4126400e+02   3.3717580e+02
   2.4174620e+02   4.0400880e+02
   2.4222830e+02   4.4258400e+02
   2.4271040e+02   4.3008980e+02
   2.4319250e+02   4.2709570e+02
   2.4367460e+02   4.5830180e+02
   2.4415670e+02   5.4049510e+02
   2.4463890e+02   5.9921190e+02
   2.4512100e+02   6.2514060e+02
   2.4560310e+02   6.3311040e+02
   2.4608520e+02   6.4738180e+02
   2.4656730e+02   6.6548050e+02
   2.4704940e+02   6.9423240e+02
   2.4753160e+02   7.3851760e+02
   2.4801370e+02   8.0512010e+02
   2.4849580e+02   8.6331540e+02
   2.4897790e+02   9.0422460e+02
   2.4946000e+02   9.4142970e+02
   2.4994210e+02   1.0003380e+03
   2.5042430e+02   1.0919290e+03
   2.5090640e+02   1.1862470e+03
   2.5138850e+02   1.2703090e+03
   2.5187060e+02   1.3366840e+03
   2.5235270e+02   1.4196010e+03
   2.5283480e+02   1.5225900e+03
   2.5331700e+02   1.6395470e+03
   2.5379910e+02   1.7598110e+03
   2.5428120e+02   1.8847980e+03
   2.5476330e+02   2.0077950e+03
   2.5524540e+02   2.1285070e+03
   2.5572750e+02   2.2491580e+03
   2.5620970e+02   2.3589810e+03
   2.5669180e+02   2.4733160e+03
   2.5717390e+02   2.5650330e+03
   2.5765600e+02   2.5862020e+03
   2.5813810e+02   2.5340020e+03
   2.5862020e+02   2.4156610e+03
   2.5910240e+02   2.2157710e+03
   2.5958450e+02   1.9057930e+03
   2.6006660e+02   1.6387750e+03
   2.6054870e+02   1.4178660e+03
   2.6103080e+02   1.2382160e+03
   2.6151290e+02   1.0849870e+03
   2.6199510e+02   9.6403810e+02
   2.6247720e+02   8.5844820e+02
   2.6295930e+02   7.6317770e+02
   2.6344140e+02   6.7701660e+02
   2.6392350e+02   6.0344530e+02
   2.6440560e+02   5.4145410e+02
   2.6488780e+02   4.9238280e+02
   2.6536990e+02   4.6171000e+02
   2.6585200e+02   4.5797560e+02
   2.6633410e+02   4.4754100e+02
   2.6681620e+02   4.1130270e+02
   2.6729830e+02   3.4176270e+02
   2.6778050e+02   2.9797070e+02
   2.6826260e+02   2.8745800e+02
   2.6874470e+02   2.9474020e+02
   2.6922680e+02   2.9255180e+02
   2.6970890e+02   2.7719920e+02
   2.7019100e+02   2.6567480e+02
   2.7067320e+02   2.6894630e+02
   2.7115530e+02   2.9023540e+02
   2.7163740e+02   2.9086130e+02
   2.7211950e+02   2.6335250e+02
   2.7260160e+02   2.2612990e+02
   2.7308370e+02   2.1043360e+02
   2.7356590e+02   2.1959280e+02
   2.7404800e+02   2.3311620e+02
   2.7453010e+02   2.4826370e+02
   2.7501220e+02   2.6559280e+02
   2.7549430e+02   2.6066700e+02
   2.7597640e+02   2.2813570e+02
   2.7645860e+02   1.8337500e+02
   2.7694070e+02   1.5003710e+02
   2.7742280e+02   1.3004200e+02
   2.7790490e+02   1.0699800e+02
   2.7838700e+02   6.6247070e+01
   2.7886910e+02   9.8964840e+00
   2.7935130e+02   7.0722660e+00
   2.7983340e+02   2.4937500e+01
   2.8031550e+02   7.1630860e+01
   2.8079760e+02   8.6273440e+01
   2.8127980e+02   6.8351560e+01
   2.8176190e+02   4.5817380e+01
   2.8224400e+02   2.2536130e+01
   2.8272610e+02   9.0820300e-01
   2.8320820e+02   1.0961910e+01
   2.8369030e+02   4.9453130e+00
   2.8417250e+02   8.1289060e+00
   2.8465460e+02   2.1491210e+01
   2.8513670e+02   3.4438480e+01
   2.8561880e+02   3.5248050e+01
   2.8610090e+02   1.0473630e+01
   2.8658300e+02   3.1015620e+01
   2.8706520e+02   5.0298830e+01
   2.8754730e+02   4.6039060e+01
   2.8802940e+02   2.6569340e+01
   2.8851150e+02   6.8642580e+00
   2.8899360e+02   5.3063480e+01
   2.8947570e+02   8.8433590e+01
   2.8995790e+02   1.0299320e+02
   2.9044000e+02   1.0066310e+02
   2.9092210e+02   8.5879880e+01
   2.9140420e+02   5.6003910e+01
   2.9188630e+02   3.5425780e+01
   2.9236840e+02   5.4304690e+01
   2.9285060e+02   1.0492870e+02
   2.9333270e+02   1.5468070e+02
   2.9381480e+02   1.9644430e+02
   2.9429690e+02   2.2939650e+02
   2.9477900e+02   2.5112210e+02
   2.9526110e+02   2.6145020e+02
   2.9574330e+02   2.6660740e+02
   2.9622540e+02   2.6673540e+02
   2.9670750e+02   2.6584570e+02
   2.9718960e+02   2.7543650e+02
   2.9767170e+02   3.0621000e+02
   2.9815380e+02   3.4297070e+02
   2.9863600e+02   3.5912700e+02
   2.9911810e+02   3.5662010e+02
   2.9960020e+02   3.5497560e+02
   3.0008230e+02   3.6422070e+02
   3.0056440e+02   3.8557030e+02
   3.0104650e+02   4.2387110e+02
   3.0152870e+02   4.9253520e+02
   3.0201080e+02   5.6336040e+02
   3.0249290e+02   5.9848830e+02
   3.0297500e+02   6.0348830e+02
   3.0345710e+02   6.0775980e+02
   3.0393920e+02   6.4128320e+02
   3.0442140e+02   6.8325780e+02
   3.0490350e+02   7.0655370e+02
   3.0538560e+02   7.0250200e+02
   3.0586770e+02   6.8046090e+02
   3.0634980e+02   6.4400980e+02
   3.0683190e+02   5.9512110e+02
   3.0731410e+02   5.3991310e+02
   3.0779620e+02   4.7583200e+02
   3.0827830e+02   4.1138280e+02
   3.0876040e+02   3.5186330e+02
   3.0924250e+02   3.0034860e+02
   3.0972460e+02   2.5477440e+02
   3.1020680e+02   2.1186040e+02
   3.1068890e+02   1.7433200e+02
   3.1117100e+02   1.4584860e+02
   3.1165310e+02   1.3063670e+02
   3.1213520e+02   1.2331250e+02
   3.1261730e+02   1.2205960e+02
   3.1309950e+02   1.3048540e+02
   3.1358160e+02   1.3319140e+02
   3.1406370e+02   1.2108500e+02
   3.1454580e+02   9.8349610e+01
   3.1502790e+02   7.2907230e+01
   3.1551000e+02   3.3385740e+01
   3.1599220e+02   2.7968750e+00
   3.1647430e+02   2.5537110e+00
   3.1695640e+02   2.5894530e+01
   3.1743850e+02   5.1810550e+01
   3.1792060e+02   6.0166020e+01
   3.1840270e+02   5.9490230e+01
   3.1888490e+02   6.1732420e+01
   3.1936700e+02   8.0933590e+01
   3.1984910e+02   9.4043950e+01
   3.2033120e+02   8.7719730e+01
   3.2081330e+02   5.6067380e+01
   3.2129540e+02   3.5541020e+01
   3.2177760e+02   4.1878910e+01
   3.2225970e+02   5.9409180e+01
   3.2274180e+02   7.1716800e+01
   3.2322390e+02   7.6442380e+01
   3.2370600e+02   7.6365230e+01
   3.2418810e+02   7.0037110e+01
   3.2467030e+02   5.6706050e+01
   3.2515240e+02   4.6549800e+01
   3.2563450e+02   3.7643550e+01
   3.2611660e+02   3.3624020e+01
   3.2659870e+02   3.7482420e+01
   3.2708080e+02   5.7975590e+01
   3.2756300e+02   7.6156250e+01
   3.2804510e+02   9.3155270e+01
   3.2852720e+02   1.0842970e+02
   3.2900930e+02   1.0889160e+02
   3.2949140e+02   7.9820310e+01
   3.2997350e+02   4.9144530e+01
   3.3045570e+02   3.5406250e+01
   3.3093780e+02   4.8303710e+01
   3.3141990e+02   6.1595700e+01
   3.3190200e+02   7.4725590e+01
   3.3238410e+02   8.7010740e+01
   3.3286620e+02   9.5582030e+01
   3.3334840e+02   1.0141990e+02
   3.3383050e+02   1.0179200e+02
   3.3431260e+02   9.3599610e+01
   3.3479470e+02   7.2223630e+01
   3.3527680e+02   5.6542970e+01
   3.3575890e+02   4.8166990e+01
   3.3624110e+02   4.5648440e+01
   3.3672320e+02   4.8202150e+01
   3.3720530e+02   6.0449220e+01
   3.3768740e+02   6.3941410e+01
   3.3816950e+02   4.2887700e+01
   3.3865160e+02   8.0302730e+00
   3.3913380e+02   3.3352540e+01
   3.3961590e+02   2.5498050e+01
   3.4009800e+02   2.1982420e+00
   3.4058010e+02   6.4208980e+00
   3.4106220e+02   9.1308600e-01
   3.4154430e+02   1.0291990e+01
   3.4202650e+02   1.7254880e+01
   3.4250860e+02   2.1793950e+01
   3.4299070e+02   2.3715820e+01
   3.4347280e+02   2.3339840e+01
   3.4395490e+02   1.9265620e+01
   3.4443700e+02   4.5058590e+00
   3.4491920e+02   1.8641600e+01
   3.4540130e+02   2.9268550e+01
   3.4588340e+02   1.3530270e+01
   3.4636550e+02   1.8272460e+01
   3.4684760e+02   4.2706050e+01
   3.4732970e+02   5.9970700e+01
   3.4781190e+02   6.4659180e+01
   3.4829400e+02   4.0129880e+01
   3.4877610e+02   2.8466800e+00
   3.4925820e+02   3.0891600e+01
   3.4974030e+02   3.0658200e+01
   3.5022250e+02   1.6128910e+01
   3.5070460e+02   3.8115230e+00
   3.5118670e+02   6.0888670e+00
   3.5166880e+02   1.1844730e+01
   3.5215090e+02   9.3701170e+00
   3.5263310e+02   2.6845700e+00
   3.5311520e+02   2.0644530e+00
   3.5359730e+02   2.7294920e+00
   3.5407940e+02   2.5703130e+00
   3.5456150e+02   3.5185550e+00
   3.5504360e+02   5.8017580e+00
   3.5552580e+02   1.0083980e+01
   3.5600790e+02   1.7902340e+01
   3.5649000e+02   2.7251950e+01
   3.5697210e+02   3.7023440e+01
   3.5745420e+02   4.7897460e+01
   3.5793630e+02   5.6362300e+01
   3.5841850e+02   6.0808590e+01
   3.5890060e+02   6.1486330e+01
   3.5938270e+02   5.8845700e+01
   3.5986480e+02   4.5244140e+01
   3.6034690e+02   3.4546880e+01
   3.6082900e+02   3.7378910e+01
   3.6131120e+02   5.7383790e+01
   3.6179330e+02   7.0539060e+01
   3.6227540e+02   5.9455080e+01
   3.6275750e+02   4.1392580e+01
   3.6323960e+02   3.5115230e+01
   3.6372170e+02   6.7901370e+01
   3.6420390e+02   8.9798830e+01
   3.6468600e+02   7.7705080e+01
   3.6516810e+02   3.0899410e+01
   3.6565020e+02   5.6562500e+00
   3.6613230e+02   3.4355470e+01
   3.6661440e+02   7.0716800e+01
   3.6709660e+02   8.2708980e+01
   3.6757870e+02   3.4372070e+01
   3.6806080e+02   4.3750000e+00
   3.6854290e+02   3.7089840e+00
   3.6902500e+02   2.7265620e+01
   3.6950710e+02   4.9312500e+01
   3.6998930e+02   7.5929690e+01
   3.7047140e+02   9.3958980e+01
   3.7095350e+02   9.5095700e+01
   3.7143560e+02   6.8074220e+01
   3.7191770e+02   4.9652340e+01
   3.7239980e+02   4.1759770e+01
   3.7288200e+02   4.1977540e+01
   3.7336410e+02   4.3764650e+01
   3.7384620e+02   4.3761720e+01
   3.7432830e+02   5.4040040e+01
   3.7481040e+02   8.4687500e+01
   3.7529250e+02   1.3914550e+02
   3.7577470e+02   1.7672750e+02
   3.7625680e+02   1.9792580e+02
   3.7673890e+02   2.0206540e+02
   3.7722100e+02   1.8223340e+02
   3.7770310e+02   1.3655370e+02
   3.7818520e+02   9.2963870e+01
   3.7866740e+02   5.3343750e+01
   3.7914950e+02   2.2881840e+01
   3.7963160e+02   2.7326170e+01
   3.8011370e+02   6.8817380e+01
   3.8059580e+02   1.2507710e+02
   3.8107790e+02   1.8750680e+02
   3.8156010e+02   2.5130370e+02
   3.8204220e+02   2.8484080e+02
   3.8252430e+02   2.7123630e+02
   3.8300640e+02   2.3822270e+02
   3.8348850e+02   2.3293650e+02
   3.8397060e+02   2.5232420e+02
   3.8445280e+02   2.7342480e+02
   3.8493490e+02   2.7817580e+02
   3.8541700e+02   2.7523340e+02
   3.8589910e+02   2.7782030e+02
   3.8638120e+02   2.8675590e+02
   3.8686330e+02   3.0552050e+02
   3.8734550e+02   3.4793360e+02
   3.8782760e+02   4.0303420e+02
   3.8830970e+02   4.4654590e+02
   3.8879180e+02   4.5091410e+02
   3.8927390e+02   4.4796090e+02
   3.8975600e+02   4.6047850e+02
   3.9023820e+02   4.9015920e+02
   3.9072030e+02   5.3639360e+02
   3.9120240e+02   6.2307910e+02
   3.9168450e+02   7.1767770e+02
   3.9216660e+02   7.8378420e+02
   3.9264870e+02   7.7360940e+02
   3.9313090e+02   7.6545210e+02
   3.9361300e+02   7.8905270e+02
   3.9409510e+02   8.4486910e+02
   3.9457720e+02   9.1296390e+02
   3.9505930e+02   9.9393550e+02
   3.9554140e+02   1.0784680e+03
   3.9602360e+02   1.1606390e+03
   3.9650570e+02   1.2577110e+03
   3.9698780e+02   1.3287070e+03
   3.9746990e+02   1.3452750e+03
   3.9795200e+02   1.3317520e+03
   3.9843410e+02   1.3616570e+03
   3.9891630e+02   1.4835370e+03
   3.9939840e+02   1.5973670e+03
   3.9988050e+02   1.6619550e+03
   4.0036260e+02   1.6527340e+03
   4.0084470e+02   1.6683100e+03
   4.0132680e+02   1.7198630e+03
   4.0180900e+02   1.7883880e+03
   4.0229110e+02   1.8493270e+03
   4.0277320e+02   1.9001580e+03
   4.0325530e+02   1.9473400e+03
   4.0373740e+02   1.9931990e+03
   4.0421950e+02   2.0360250e+03
   4.0470170e+02   2.0707190e+03
   4.0518380e+02   2.0973180e+03
   4.0566590e+02   2.1181020e+03
   4.0614800e+02   2.1367000e+03
   4.0663010e+02   2.1542590e+03
   4.0711220e+02   2.1671910e+03
   4.0759440e+02   2.1784920e+03
   4.0807650e+02   2.1805070e+03
   4.0855860e+02   2.1509020e+03
   4.0904070e+02   2.0896970e+03
   4.0952280e+02   2.0181470e+03
   4.1000490e+02   1.9463600e+03
   4.1048710e+02   1.8761430e+03
   4.1096920e+02   1.8130780e+03
   4.1145130e+02   1.7594550e+03
   4.1193340e+02   1.7043310e+03
   4.1241550e+02   1.6403230e+03
   4.1289760e+02   1.5648230e+03
   4.1337980e+02   1.4734160e+03
   4.1386190e+02   1.3395100e+03
   4.1434400e+02   1.1976370e+03
   4.1482610e+02   1.0827550e+03
   4.1530820e+02   9.9524020e+02
   4.1579030e+02   9.1730570e+02
   4.1627250e+02   8.3620210e+02
   4.1675460e+02   7.5788670e+02
   4.1723670e+02   6.8770900e+02
   4.1771880e+02   6.3349120e+02
   4.1820090e+02   5.8275290e+02
   4.1868300e+02   5.2608300e+02
   4.1916520e+02   4.6725290e+02
   4.1964730e+02   4.2203120e+02
   4.2012940e+02   4.0741410e+02
   4.2061150e+02   4.0000000e+02
   4.2109370e+02   3.8605960e+02
   4.2157580e+02   3.5911040e+02
   4.2205790e+02   3.3123340e+02
   4.2254000e+02   2.9859380e+02
   4.2302210e+02   2.6774710e+02
   4.2350420e+02   2.4628030e+02
   4.2398640e+02   2.4841310e+02
   4.2446850e+02   2.4671480e+02
   4.2495060e+02   2.3060940e+02
   4.2543270e+02   1.9811040e+02
   4.2591480e+02   1.8260640e+02
   4.2639690e+02   1.9668850e+02
   4.2687910e+02   2.1610250e+02
   4.2736120e+02   2.1616110e+02
   4.2784330e+02   1.8876370e+02
   4.2832540e+02   1.6688960e+02
   4.2880750e+02   1.5585060e+02
   4.2928960e+02   1.5319340e+02
   4.2977180e+02   1.5105370e+02
   4.3025390e+02   1.4938180e+02
   4.3073600e+02   1.4851660e+02
   4.3121810e+02   1.4880470e+02
   4.3170020e+02   1.5016310e+02
   4.3218230e+02   1.5263180e+02
   4.3266450e+02   1.5749710e+02
   4.3314660e+02   1.5993850e+02
   4.3362870e+02   1.5100390e+02
   4.3411080e+02   1.3256350e+02
   4.3459290e+02   1.1333400e+02
   4.3507500e+02   8.6615230e+01
   4.3555720e+02   6.5976560e+01
   4.3603930e+02   8.3279300e+01
   4.3652140e+02   1.3675880e+02
   4.3700350e+02   1.8758200e+02
   4.3748560e+02   2.0792870e+02
   4.3796770e+02   2.0666410e+02
   4.3844990e+02   1.9322660e+02
   4.3893200e+02   1.6202640e+02
   4.3941410e+02   1.3293360e+02
   4.3989620e+02   1.2554300e+02
   4.4037830e+02   1.3184860e+02
   4.4086040e+02   1.3135740e+02
   4.4134260e+02   9.8952150e+01
   4.4182470e+02   6.9673830e+01
   4.4230680e+02   6.7244140e+01
   4.4278890e+02   1.0265140e+02
   4.4327100e+02   1.3046880e+02
   4.4375310e+02   1.3730270e+02
   4.4423530e+02   1.3081640e+02
   4.4471740e+02   1.1975780e+02
   4.4519950e+02   9.9079100e+01
   4.4568160e+02   8.0677730e+01
   4.4616370e+02   6.4786130e+01
   4.4664580e+02   5.1871090e+01
   4.4712800e+02   4.7853520e+01
   4.4761010e+02   5.5888670e+01
   4.4809220e+02   7.1053710e+01
   4.4857430e+02   9.3408200e+01
   4.4905640e+02   1.3488090e+02
   4.4953850e+02   1.4617580e+02
   4.5002070e+02   1.1816890e+02
   4.5050280e+02   6.8601560e+01
   4.5098490e+02   2.4549800e+01
   4.5146700e+02   1.7515620e+01
   4.5194910e+02   3.3679690e+01
   4.5243120e+02   2.3427730e+00
   4.5291340e+02   6.7693360e+01
   4.5339550e+02   1.0682710e+02
   4.5387760e+02   1.1265040e+02
   4.5435970e+02   1.0443260e+02
   4.5484180e+02   1.0085450e+02
   4.5532390e+02   9.9193360e+01
   4.5580610e+02   8.4982420e+01
   4.5628820e+02   4.5740230e+01
   4.5677030e+02   6.8593750e+00
   4.5725240e+02   1.4306640e+01
   4.5773450e+02   5.7245120e+01
   4.5821660e+02   9.1868160e+01
   4.5869880e+02   8.1158200e+01
   4.5918090e+02   5.3666020e+01
   4.5966300e+02   4.1038090e+01
   4.6014510e+02   4.8221680e+01
   4.6062720e+02   5.7083980e+01
   4.6110930e+02   5.2285160e+01
   4.6159150e+02   4.3583980e+01
   4.6207360e+02   4.3149410e+01
   4.6255570e+02   6.5174800e+01
   4.6303780e+02   8.6166020e+01
   4.6351990e+02   1.0026560e+02
   4.6400200e+02   1.0678420e+02
   4.6448420e+02   1.0246480e+02
   4.6496630e+02   6.9833010e+01
   4.6544840e+02   3.8500000e+01
   4.6593050e+02   2.4666020e+01
   4.6641260e+02   4.1731450e+01
   4.6689470e+02   5.3450200e+01
   4.6737690e+02   5.4833010e+01
   4.6785900e+02   5.2979490e+01
   4.6834110e+02   6.2799800e+01
   4.6882320e+02   1.0018160e+02
   4.6930530e+02   1.1560450e+02
   4.6978740e+02   8.4879880e+01
   4.7026960e+02   1.2385740e+01
   4.7075170e+02   1.6548830e+01
   4.7123380e+02   7.1826170e+00
   4.7171590e+02   4.6238280e+01
   4.7219800e+02   7.0152340e+01
   4.7268010e+02   7.9325200e+01
   4.7316230e+02   8.6078120e+01
   4.7364440e+02   9.0979490e+01
   4.7412650e+02   9.6838870e+01
   4.7460860e+02   1.1319820e+02
   4.7509070e+02   1.3746580e+02
   4.7557280e+02   1.5288180e+02
   4.7605500e+02   1.5208790e+02
   4.7653710e+02   1.3618360e+02
   4.7701920e+02   9.9157230e+01
   4.7750130e+02   4.0299800e+01
   4.7798340e+02   1.0598630e+01
   4.7846550e+02   3.2079100e+01
   4.7894770e+02   3.1353520e+01
   4.7942980e+02   1.6358400e+01
   4.7991190e+02   2.8709960e+01
   4.8039400e+02   6.4847660e+01
   4.8087610e+02   6.0074220e+01
   4.8135820e+02   2.8553710e+01
   4.8184040e+02   1.0971680e+01
   4.8232250e+02   4.2416990e+01
   4.8280460e+02   7.2771480e+01
   4.8328670e+02   7.5175780e+01
   4.8376880e+02   3.4932620e+01
   4.8425090e+02   1.0012700e+01
   4.8473310e+02   1.6520510e+01
   4.8521520e+02   3.4777340e+01
   4.8569730e+02   4.7422850e+01
   4.8617940e+02   5.4578120e+01
   4.8666150e+02   5.5543950e+01
   4.8714360e+02   4.7848630e+01
   4.8762580e+02   3.3822270e+01
   4.8810790e+02   2.5053710e+01
   4.8859000e+02   2.3457030e+01
   4.8907210e+02   2.1918950e+01
   4.8955420e+02   1.6540040e+01
   4.9003630e+02   7.3105470e+00
   4.9051850e+02   4.9033200e+00
   4.9100060e+02   2.2203120e+01
   4.9148270e+02   3.5269530e+01
   4.9196480e+02   2.7577150e+01
   4.9244700e+02   2.8750000e+00
   4.9292910e+02   1.8252930e+01
   4.9341120e+02   2.7260740e+01
   4.9389330e+02   2.9646480e+01
   4.9437540e+02   3.1172850e+01
   4.9485750e+02   3.2390620e+01
   4.9533970e+02   3.6030270e+01
   4.9582180e+02   5.1081050e+01
   4.9630390e+02   6.6220700e+01
   4.9678600e+02   6.7571290e+01
   4.9726810e+02   5.0441410e+01
   4.9775020e+02   3.0782230e+01
   4.9823240e+02   7.9140630e+00
   4.9871450e+02   9.8662110e+00
   4.9919660e+02   1.1524410e+01
   4.9967870e+02   2.8508790e+01
   5.0016080e+02   6.2722660e+01
   5.0064290e+02   7.4607420e+01
   5.0112510e+02   6.5133790e+01
   5.0160720e+02   5.5106450e+01
   5.0208930e+02   4.4034180e+01
   5.0257140e+02   3.4434570e+01
   5.0305350e+02   2.8694340e+01
   5.0353560e+02   3.3333980e+01
   5.0401780e+02   2.4294920e+01
   5.0449990e+02   8.7431640e+00
   5.0498200e+02   4.6007810e+01
   5.0546410e+02   5.9504880e+01
   5.0594620e+02   4.8764650e+01
   5.0642830e+02   1.4100590e+01
   5.0691050e+02   5.9795900e+01
   5.0739260e+02   1.5392480e+02
   5.0787470e+02   1.8315330e+02
   5.0835680e+02   1.4447360e+02
   5.0883890e+02   9.6866210e+01
   5.0932100e+02   8.3941410e+01
   5.0980320e+02   9.5208010e+01
   5.1028530e+02   1.0303910e+02
   5.1076740e+02   1.0294730e+02
   5.1124950e+02   9.7328120e+01
   5.1173160e+02   8.2015620e+01
   5.1221370e+02   6.4204100e+01
   5.1269590e+02   5.8484380e+01
   5.1317800e+02   8.8406250e+01
   5.1366010e+02   1.1787110e+02
   5.1414220e+02   1.1618750e+02
   5.1462430e+02   8.8087890e+01
   5.1510640e+02   7.1728520e+01
   5.1558860e+02   8.9659180e+01
   5.1607070e+02   1.1833790e+02
   5.1655280e+02   1.4303810e+02
   5.1703490e+02   1.5677050e+02
   5.1751700e+02   1.7776860e+02
   5.1799910e+02   2.1769430e+02
   5.1848130e+02   2.6185350e+02
   5.1896340e+02   2.9030470e+02
   5.1944550e+02   2.8955080e+02
   5.1992760e+02   2.9640620e+02
   5.2040970e+02   3.2050490e+02
   5.2089180e+02   3.5859380e+02
   5.2137400e+02   3.9485740e+02
   5.2185610e+02   4.3049220e+02
   5.2233820e+02   4.6023830e+02
   5.2282030e+02   4.7486720e+02
   5.2330240e+02   4.7583400e+02
   5.2378450e+02   4.9363870e+02
   5.2426670e+02   5.3196680e+02
   5.2474880e+02   5.8157420e+02
   5.2523090e+02   6.3899610e+02
   5.2571300e+02   7.0091990e+02
   5.2619510e+02   7.5321580e+02
   5.2667720e+02   7.7803420e+02
   5.2715940e+02   8.0420610e+02
   5.2764150e+02   8.7731930e+02
   5.2812360e+02   9.8516700e+02
   5.2860570e+02   1.0765200e+03
   5.2908780e+02   1.1082800e+03
   5.2956990e+02   1.1246460e+03
   5.3005210e+02   1.1607260e+03
   5.3053420e+02   1.2276780e+03
   5.3101630e+02   1.2861040e+03
   5.3149840e+02   1.3398210e+03
   5.3198050e+02   1.3722630e+03
   5.3246260e+02   1.3662970e+03
   5.3294480e+02   1.2843140e+03
   5.3342690e+02   1.2058350e+03
   5.3390900e+02   1.1464700e+03
   5.3439110e+02   1.0978070e+03
   5.3487320e+02   1.0276280e+03
   5.3535530e+02   9.2492770e+02
   5.3583750e+02   8.1817580e+02
   5.3631960e+02   7.1806250e+02
   5.3680170e+02   6.2427340e+02
   5.3728380e+02   5.5235250e+02
   5.3776590e+02   5.0678610e+02
   5.3824800e+02   4.6770310e+02
   5.3873020e+02   4.0687600e+02
   5.3921230e+02   3.2983010e+02
   5.3969440e+02   2.8169430e+02
   5.4017650e+02   2.8162890e+02
   5.4065860e+02   2.9841800e+02
   5.4114070e+02   2.8936130e+02
   5.4162290e+02   2.5983890e+02
   5.4210500e+02   2.2918460e+02
   5.4258710e+02   2.0087010e+02
   5.4306920e+02   1.8125490e+02
   5.4355130e+02   1.8326170e+02
   5.4403340e+02   2.0709380e+02
   5.4451560e+02   2.2072850e+02
   5.4499770e+02   2.0133890e+02
   5.4547980e+02   1.7008010e+02
   5.4596190e+02   1.4280860e+02
   5.4644400e+02   1.1376170e+02
   5.4692610e+02   1.0187890e+02
   5.4740830e+02   1.2908980e+02
   5.4789040e+02   1.7124710e+02
   5.4837250e+02   1.8221390e+02
   5.4885460e+02   1.3525100e+02
   5.4933670e+02   1.0075490e+02
   5.4981880e+02   1.0194530e+02
   5.5030100e+02   1.3592770e+02
   5.5078310e+02   1.5514450e+02
   5.5126520e+02   1.5582320e+02
   5.5174730e+02   1.5230080e+02
   5.5222940e+02   1.5329200e+02
   5.5271150e+02   1.5869240e+02
   5.5319370e+02   1.6887600e+02
   5.5367580e+02   1.8719820e+02
   5.5415790e+02   2.0791700e+02
   5.5464000e+02   2.2126950e+02
   5.5512210e+02   2.2617090e+02
   5.5560420e+02   2.1945700e+02
   5.5608640e+02   1.8346480e+02
   5.5656850e+02   1.5015040e+02
   5.5705060e+02   1.5735450e+02
   5.5753270e+02   1.9738480e+02
   5.5801480e+02   2.3664160e+02
   5.5849690e+02   2.7504690e+02
   5.5897910e+02   2.9749120e+02
   5.5946120e+02   2.7896970e+02
   5.5994330e+02   2.0246090e+02
   5.6042540e+02   1.6382130e+02
   5.6090750e+02   2.1472660e+02
   5.6138960e+02   2.9180860e+02
   5.6187180e+02   3.3969730e+02
   5.6235390e+02   3.4304390e+02
   5.6283600e+02   3.3835250e+02
   5.6331810e+02   3.2265530e+02
   5.6380020e+02   3.0668550e+02
   5.6428230e+02   3.1904390e+02
   5.6476450e+02   3.6550390e+02
   5.6524660e+02   4.0715140e+02
   5.6572870e+02   4.2987790e+02
   5.6621080e+02   4.3541990e+02
   5.6669290e+02   4.2921090e+02
   5.6717500e+02   4.1098050e+02
   5.6765720e+02   3.8702730e+02
   5.6813930e+02   3.4692970e+02
   5.6862140e+02   3.0844820e+02
   5.6910350e+02   3.1134180e+02
   5.6958560e+02   3.6987790e+02
   5.7006770e+02   4.3785940e+02
   5.7054990e+02   4.8820900e+02
   5.7103200e+02   5.2066700e+02
   5.7151410e+02   5.3538380e+02
   5.7199620e+02   5.1059860e+02
   5.7247830e+02   4.8980180e+02
   5.7296040e+02   4.9392680e+02
   5.7344260e+02   5.1912210e+02
   5.7392470e+02   5.4024800e+02
   5.7440680e+02   5.5927540e+02
   5.7488890e+02   5.6848240e+02
   5.7537100e+02   5.6225680e+02
   5.7585310e+02   5.3644920e+02
   5.7633530e+02   5.1587990e+02
   5.7681740e+02   4.9747850e+02
   5.7729950e+02   4.8910550e+02
   5.7778160e+02   5.0460160e+02
   5.7826370e+02   5.4746480e+02
   5.7874580e+02   5.7297560e+02
   5.7922800e+02   5.6966600e+02
   5.7971010e+02   5.5547560e+02
   5.8019220e+02   5.6374320e+02
   5.8067430e+02   5.9096780e+02
   5.8115640e+02   6.1748240e+02
   5.8163850e+02   6.3332520e+02
   5.8212070e+02   6.4379690e+02
   5.8260280e+02   6.5985740e+02
   5.8308490e+02   6.7915620e+02
   5.8356700e+02   6.8521290e+02
   5.8404910e+02   6.4797950e+02
   5.8453130e+02   6.0649410e+02
   5.8501340e+02   5.9533590e+02
   5.8549550e+02   6.3210840e+02
   5.8597760e+02   6.5850200e+02
   5.8645970e+02   6.4985160e+02
   5.8694180e+02   6.2679980e+02
   5.8742400e+02   6.1312890e+02
   5.8790610e+02   6.2535450e+02
   5.8838820e+02   6.2186910e+02
   5.8887030e+02   5.9122360e+02
   5.8935240e+02   5.4390720e+02
   5.8983450e+02   5.1467870e+02
   5.9031670e+02   5.1137110e+02
   5.9079880e+02   4.9488280e+02
   5.9128090e+02   4.3664160e+02
   5.9176300e+02   3.4964060e+02
   5.9224510e+02   3.1071880e+02
   5.9272720e+02   3.2158500e+02
   5.9320940e+02   3.3804100e+02
   5.9369150e+02   3.1845210e+02
   5.9417360e+02   2.7928320e+02
   5.9465570e+02   2.5261520e+02
   5.9513780e+02   2.4591310e+02
   5.9561990e+02   2.4355960e+02
   5.9610210e+02   2.3926460e+02
   5.9658420e+02   2.3058110e+02
   5.9706630e+02   2.1400680e+02
   5.9754850e+02   1.7687110e+02
   5.9803060e+02   1.4392580e+02
   5.9851270e+02   1.2253910e+02
   5.9899480e+02   1.1179300e+02
   5.9947690e+02   1.0713480e+02
   5.9995900e+02   1.1449610e+02
   6.0044120e+02   1.2025880e+02
   6.0092330e+02   1.2077150e+02
   6.0140540e+02   1.1617090e+02
   6.0188750e+02   1.0309380e+02
   6.0236960e+02   7.7830080e+01
   6.0285170e+02   5.3350590e+01
   6.0333390e+02   3.9504880e+01
   6.0381600e+02   3.6079100e+01
   6.0429810e+02   4.6753910e+01
   6.0478020e+02   7.6590820e+01
   6.0526230e+02   1.0348630e+02
   6.0574440e+02   8.6805660e+01
   6.0622660e+02   4.3084960e+01
   6.0670870e+02   1.7614260e+01
   6.0719080e+02   4.2555660e+01
   6.0767290e+02   7.5596680e+01
   6.0815500e+02   8.2060550e+01
   6.0863710e+02   6.8624020e+01
   6.0911930e+02   5.7348630e+01
   6.0960140e+02   7.5657230e+01
   6.1008350e+02   8.2127930e+01
   6.1056560e+02   4.2641600e+01
   6.1104770e+02   5.6683590e+01
   6.1152980e+02   1.0367680e+02
   6.1201200e+02   5.8931640e+01
   6.1249410e+02   3.0019530e+00
   6.1297620e+02   3.0685550e+01
   6.1345830e+02   1.0416990e+01
   6.1394040e+02   8.7939450e+00
   6.1442250e+02   3.7803710e+01
   6.1490470e+02   6.9315430e+01
   6.1538680e+02   5.1666990e+01
   6.1586890e+02   1.0113280e+01
   6.1635100e+02   4.6407230e+01
   6.1683310e+02   2.7326170e+01
   6.1731520e+02   1.4944340e+01
   6.1779740e+02   3.3333980e+01
   6.1827950e+02   3.2142580e+01
   6.1876160e+02   2.9547850e+01
   6.1924370e+02   4.0173830e+01
   6.1972580e+02   4.9719730e+01
   6.2020790e+02   4.3529300e+01
   6.2069010e+02   2.1167970e+01
   6.2117220e+02   6.1826170e+00
   6.2165430e+02   1.3538090e+01
   6.2213640e+02   2.6212890e+01
   6.2261850e+02   3.1673830e+01
   6.2310060e+02   1.8037110e+01
   6.2358280e+02   2.4729490e+01
   6.2406490e+02   7.3210940e+01
   6.2454700e+02   1.2234080e+02
   6.2502910e+02   1.1218750e+02
   6.2551120e+02   2.5722660e+01
   6.2599330e+02   2.6383790e+01
   6.2647550e+02   1.6435550e+01
   6.2695760e+02   2.8377930e+01
   6.2743970e+02   5.7505860e+01
   6.2792180e+02   7.1753910e+01
   6.2840390e+02   7.7118160e+01
   6.2888600e+02   7.6749020e+01
   6.2936820e+02   6.9048830e+01
   6.2985030e+02   4.3095700e+01
   6.3033240e+02   2.7578130e+00
   6.3081450e+02   2.2411130e+01
   6.3129660e+02   7.2802730e+00
   6.3177870e+02   2.3785160e+01
   6.3226090e+02   5.7828120e+01
   6.3274300e+02   9.7958010e+01
   6.3322510e+02   1.2177440e+02
   6.3370720e+02   1.1799320e+02
   6.3418930e+02   9.9760740e+01
   6.3467140e+02   7.4982420e+01
   6.3515360e+02   2.8304690e+01
   6.3563570e+02   1.2342770e+01
   6.3611780e+02   4.4346680e+01
   6.3659990e+02   9.4617190e+01
   6.3708200e+02   1.0387500e+02
   6.3756410e+02   7.0118160e+01
   6.3804630e+02   4.2638670e+01
   6.3852840e+02   4.1434570e+01
   6.3901050e+02   5.2635740e+01
   6.3949260e+02   4.1944340e+01
   6.3997470e+02   1.4837890e+01
   6.4045680e+02   2.7451170e+00
   6.4093900e+02   5.1667970e+01
   6.4142110e+02   1.0681740e+02
   6.4190320e+02   1.0851070e+02
   6.4238530e+02   5.2681640e+01
   6.4286740e+02   6.3378910e+00
   6.4334950e+02   8.0117190e+00
   6.4383170e+02   6.4062500e-01
   6.4431380e+02   2.4001950e+01
   6.4479590e+02   8.6644530e+01
   6.4527800e+02   1.2427250e+02
   6.4576010e+02   1.2326660e+02
   6.4624220e+02   1.0909470e+02
   6.4672440e+02   1.1312210e+02
   6.4720650e+02   1.3955080e+02
   6.4768860e+02   1.6257420e+02
   6.4817070e+02   1.7963480e+02
   6.4865280e+02   1.8793360e+02
   6.4913490e+02   1.7276560e+02
   6.4961710e+02   1.3886330e+02
   6.5009920e+02   1.1923730e+02
   6.5058130e+02   1.4183690e+02
   6.5106340e+02   1.7931840e+02
   6.5154550e+02   2.0126660e+02
   6.5202760e+02   2.0896880e+02
   6.5250980e+02   2.0795700e+02
   6.5299190e+02   1.9128220e+02
   6.5347400e+02   1.7454880e+02
   6.5395610e+02   1.6845120e+02
   6.5443820e+02   1.7592770e+02
   6.5492030e+02   1.8242680e+02
   6.5540250e+02   1.8686040e+02
   6.5588460e+02   1.8919920e+02
   6.5636670e+02   1.9012600e+02
   6.5684880e+02   1.9231150e+02
   6.5733090e+02   1.8306050e+02
   6.5781300e+02   1.5733200e+02
   6.5829520e+02   1.2841700e+02
   6.5877730e+02   1.1196580e+02
   6.5925940e+02   1.0851760e+02
   6.5974150e+02   1.2497850e+02
   6.6022360e+02   1.7593460e+02
   6.6070570e+02   2.2415040e+02
   6.6118790e+02   1.9749800e+02
   6.6167000e+02   1.2245310e+02
   6.6215210e+02   7.2966800e+01
   6.6263420e+02   1.1415230e+02
   6.6311630e+02   1.6752730e+02
   6.6359840e+02   1.8258890e+02
   6.6408060e+02   1.6353420e+02
   6.6456270e+02   1.5096090e+02
   6.6504480e+02   1.6165820e+02
   6.6552690e+02   1.7204100e+02
   6.6600900e+02   1.6927730e+02
   6.6649110e+02   1.5051950e+02
   6.6697330e+02   1.4553910e+02
   6.6745540e+02   1.5947950e+02
   6.6793750e+02   1.7446290e+02
   6.6841960e+02   1.7230180e+02
   6.6890170e+02   1.5186520e+02
   6.6938390e+02   1.4122270e+02
   6.6986600e+02   1.4916210e+02
   6.7034810e+02   1.6931250e+02
   6.7083020e+02   2.0376170e+02
   6.7131230e+02   2.4328520e+02
   6.7179440e+02   2.6273240e+02
   6.7227660e+02   2.4216600e+02
   6.7275870e+02   2.1486430e+02
   6.7324080e+02   1.9810350e+02
   6.7372290e+02   1.8968070e+02
   6.7420500e+02   1.8416410e+02
   6.7468710e+02   1.8246290e+02
   6.7516930e+02   1.8610940e+02
   6.7565140e+02   1.9468550e+02
   6.7613350e+02   2.0816410e+02
   6.7661560e+02   2.3104880e+02
   6.7709770e+02   2.7815230e+02
   6.7757980e+02   3.0015620e+02
   6.7806200e+02   2.6262890e+02
   6.7854410e+02   1.7489260e+02
   6.7902620e+02   1.3298440e+02
   6.7950830e+02   1.3984180e+02
   6.7999040e+02   1.6327540e+02
   6.8047250e+02   1.7521480e+02
   6.8095470e+02   1.7800390e+02
   6.8143680e+02   1.7723830e+02
   6.8191890e+02   1.7303710e+02
   6.8240100e+02   1.7327340e+02
   6.8288310e+02   1.9870120e+02
   6.8336520e+02   2.2427340e+02
   6.8384740e+02   2.2061910e+02
   6.8432950e+02   1.5310940e+02
   6.8481160e+02   1.0301370e+02
   6.8529370e+02   8.2296880e+01
   6.8577580e+02   8.4486330e+01
   6.8625790e+02   1.0629300e+02
   6.8674010e+02   1.5924800e+02
   6.8722220e+02   2.0106050e+02
   6.8770430e+02   2.2692580e+02
   6.8818640e+02   2.3431250e+02
   6.8866850e+02   2.0504100e+02
   6.8915060e+02   1.4317380e+02
   6.8963280e+02   9.5412110e+01
   6.9011490e+02   8.9402340e+01
   6.9059700e+02   1.0490230e+02
   6.9107910e+02   1.1540040e+02
   6.9156120e+02   1.2425200e+02
   6.9204330e+02   1.3252930e+02
   6.9252550e+02   1.4644920e+02
   6.9300760e+02   1.5553910e+02
   6.9348970e+02   1.4707810e+02
   6.9397180e+02   1.1798050e+02
   6.9445390e+02   9.9177730e+01
   6.9493600e+02   9.3724610e+01
   6.9541820e+02   1.0071480e+02
   6.9590030e+02   1.2620120e+02
   6.9638240e+02   1.8197270e+02
   6.9686450e+02   1.9977930e+02
   6.9734660e+02   1.7227730e+02
   6.9782870e+02   1.3108590e+02
   6.9831090e+02   1.0798240e+02
   6.9879300e+02   1.0247850e+02
   6.9927510e+02   1.0302150e+02
   6.9975720e+02   1.0874410e+02
   7.0023930e+02   1.1564650e+02
   7.0072140e+02   1.1538670e+02
   7.0120360e+02   1.1532810e+02
   7.0168570e+02   1.2825390e+02
   7.0216780e+02   1.8754690e+02
   7.0264990e+02   2.2150200e+02
   7.0313200e+02   1.6870900e+02
   7.0361410e+02   7.1517580e+01
   7.0409630e+02   3.9289060e+01
   7.0457840e+02   1.4103910e+02
   7.0506050e+02   2.0838090e+02
   7.0554260e+02   1.9371290e+02
   7.0602470e+02   1.1851370e+02
   7.0650680e+02   7.6658200e+01
   7.0698900e+02   6.8595700e+01
   7.0747110e+02   7.6806640e+01
   7.0795320e+02   1.0731640e+02
   7.0843530e+02   1.4765820e+02
   7.0891740e+02   1.6186520e+02
   7.0939950e+02   1.5185160e+02
   7.0988170e+02   1.3500200e+02
   7.1036380e+02   1.1433200e+02
   7.1084590e+02   9.6468750e+01
   7.1132800e+02   8.8531250e+01
   7.1181010e+02   9.1748050e+01
   7.1229220e+02   9.9634770e+01
   7.1277440e+02   1.1407420e+02
   7.1325650e+02   1.3054880e+02
   7.1373860e+02   1.4769730e+02
   7.1422070e+02   1.7406840e+02
   7.1470280e+02   1.7415820e+02
   7.1518490e+02   1.4102340e+02
   7.1566710e+02   9.5802730e+01
   7.1614920e+02   5.7125000e+01
   7.1663130e+02   2.5814450e+01
   7.1711340e+02   8.4804690e+00
   7.1759550e+02   7.2187500e+00
   7.1807760e+02   1.4367190e+01
   7.1855980e+02   2.6068360e+01
   7.1904190e+02   3.8281250e+01
   7.1952400e+02   4.3023440e+01
   7.2000610e+02   3.4351560e+01
   7.2048820e+02   2.1527340e+01
   7.2097030e+02   4.1210900e-01
   7.2145250e+02   2.2572270e+01
   7.2193460e+02   2.3824220e+01
   7.2241670e+02   3.0328120e+01
   7.2289880e+02   6.5187500e+01
   7.2338090e+02   5.9488280e+01
   7.2386300e+02   2.4908200e+01
   7.2434520e+02   8.6953130e+00
   7.2482730e+02   1.2755860e+01
   7.2530940e+02   2.0753910e+01
   7.2579150e+02   2.2785160e+01
   7.2627360e+02   2.3996090e+01
   7.2675570e+02   4.7517580e+01
   7.2723790e+02   8.8658200e+01
   7.2772000e+02   1.1050390e+02
   7.2820210e+02   6.0412110e+01
   7.2868420e+02   1.2929690e+00
   7.2916630e+02   8.1757810e+00
   7.2964840e+02   3.8513670e+01
   7.3013060e+02   7.4232420e+01
   7.3061270e+02   7.1294920e+01
   7.3109480e+02   5.9041020e+01
   7.3157690e+02   5.4082030e+01
   7.3205900e+02   5.9273440e+01
   7.3254110e+02   5.9732420e+01
   7.3302330e+02   5.4464840e+01
   7.3350540e+02   4.6679690e+01
   7.3398750e+02   3.2119140e+01
   7.3446960e+02   1.4511720e+01
   7.3495170e+02   3.2330080e+01
   7.3543380e+02   9.8070310e+01
   7.3591600e+02   1.5011720e+02
   7.3639810e+02   9.8007810e+01
   7.3688020e+02   5.0976600e-01
   7.3736230e+02   5.4414060e+01
   7.3784440e+02   2.8753910e+01
   7.3832660e+02   1.3964840e+01
   7.3880870e+02   7.6232420e+01
   7.3929080e+02   1.3240620e+02
   7.3977290e+02   1.4119140e+02
   7.4025510e+02   6.0882810e+01
   7.4073720e+02   9.3691410e+00
   7.4121930e+02   7.8417970e+00
   7.4170140e+02   3.5568360e+01
   7.4218350e+02   5.0949220e+01
   7.4266560e+02   5.3777340e+01
   7.4314780e+02   5.2609380e+01
   7.4362990e+02   4.6939450e+01
   7.4411200e+02   4.2943360e+01
   7.4459410e+02   5.7542970e+01
   7.4507620e+02   8.3046880e+01
   7.4555830e+02   9.6191410e+01
   7.4604050e+02   6.8539060e+01
   7.4652260e+02   4.0894530e+01
   7.4700470e+02   4.7148440e+01
   7.4748680e+02   7.8115230e+01
   7.4796890e+02   7.6683590e+01
   7.4845100e+02   7.7460940e+00
   7.4893320e+02   6.7949220e+01
   7.4941530e+02   6.0339840e+01
   7.4989740e+02   7.2773440e+00
   7.5037950e+02   4.0500000e+01
   7.5086160e+02   3.5812500e+01
   7.5134380e+02   2.3466800e+01
   7.5182590e+02   1.9958980e+01
   7.5230800e+02   2.3250000e+01
   7.5279010e+02   3.3757810e+01
   7.5327220e+02   5.0371090e+01
   7.5375430e+02   5.5675780e+01
   7.5423650e+02   1.6607420e+01
   7.5471860e+02   2.3804690e+01
   7.5520070e+02   2.4464840e+01
   7.5568280e+02   2.8544920e+01
   7.5616490e+02   6.4585940e+01
   7.5664700e+02   6.6093750e+01
   7.5712920e+02   5.2849610e+01
   7.5761130e+02   3.5386720e+01
   7.5809340e+02   1.3621090e+01
   7.5857550e+02   1.6316410e+01
   7.5905760e+02   6.0384770e+01
   7.5953970e+02   9.3386720e+01
   7.6002190e+02   7.7929690e+01
   7.6050400e+02   2.9367190e+01
   7.6098610e+02   3.0605470e+00
   7.6146820e+02   1.0212890e+01
   7.6195030e+02   7.3847660e+00
   7.6243240e+02   3.2480470e+00
   7.6291460e+02   2.4570310e+00
   7.6339670e+02   1.0906250e+01
   7.6387880e+02   3.4033200e+01
   7.6436090e+02   4.0708980e+01
   7.6484300e+02   7.2441410e+00
   7.6532510e+02   3.4636720e+01
   7.6580730e+02   4.7000000e+01
   7.6628940e+02   2.0494140e+01
   7.6677150e+02   2.4218800e-01
   7.6725360e+02   1.1386720e+01
   7.6773570e+02   9.8281250e+00
   7.6821780e+02   2.5119140e+01
   7.6870000e+02   8.1388670e+01
   7.6918210e+02   1.0559770e+02
   7.6966420e+02   6.5421880e+01
   7.7014630e+02   1.2246090e+01
   7.7062840e+02   1.5947270e+01
   7.7111050e+02   2.4421880e+01
   7.7159270e+02   2.3369140e+01
   7.7207480e+02   2.0976560e+00
   7.7255690e+02   1.2333980e+01
   7.7303900e+02   8.9589840e+00
   7.7352110e+02   4.7031250e+00
   7.7400320e+02   1.3154300e+01
   7.7448540e+02   2.1074220e+01
   7.7496750e+02   4.6933590e+00
   7.7544960e+02   5.8962890e+01
   7.7593170e+02   1.3926170e+02
   7.7641380e+02   1.5313090e+02
   7.7689590e+02   1.0930270e+02
   7.7737810e+02   5.6785160e+01
   7.7786020e+02   5.7402340e+00
   7.7834230e+02   3.1083980e+01
   7.7882440e+02   3.6134770e+01
   7.7930650e+02   1.6738280e+01
   7.7978860e+02   1.2871090e+00
   7.8027080e+02   2.4804700e-01
   7.8075290e+02   3.9453100e-01
   7.8123500e+02   1.5058590e+00
   7.8171710e+02   3.5332030e+00
   7.8219920e+02   2.4427730e+01
   7.8268130e+02   9.4326170e+01
   7.8316350e+02   1.4952540e+02
   7.8364560e+02   1.5595900e+02
   7.8412770e+02   1.2569140e+02
   7.8460980e+02   8.6970700e+01
   7.8509190e+02   4.2623050e+01
   7.8557400e+02   2.2376950e+01
   7.8605620e+02   7.2105470e+01
   7.8653830e+02   1.3326950e+02
   7.8702040e+02   1.5434770e+02
   7.8750250e+02   1.3502930e+02
   7.8798460e+02   1.2295900e+02
   7.8846670e+02   1.3472070e+02
   7.8894890e+02   1.5166800e+02
   7.8943100e+02   1.6739650e+02
   7.8991310e+02   1.8180470e+02
   7.9039520e+02   1.9347660e+02
   7.9087730e+02   2.0198440e+02
   7.9135940e+02   2.0907620e+02
   7.9184160e+02   2.1641020e+02
   7.9232370e+02   2.2265430e+02
   7.9280580e+02   2.1606640e+02
   7.9328790e+02   1.9645700e+02
   7.9377000e+02   2.0479100e+02
   7.9425210e+02   2.9996290e+02
   7.9473430e+02   4.1348830e+02
   7.9521640e+02   4.8737890e+02
   7.9569850e+02   5.1519920e+02
   7.9618060e+02   5.3207030e+02
   7.9666270e+02   5.2126560e+02
   7.9714480e+02   5.1998440e+02
   7.9762700e+02   5.5384180e+02
   7.9810910e+02   6.2648830e+02
   7.9859120e+02   7.0832620e+02
   7.9907330e+02   8.0339840e+02
   7.9955540e+02   8.9380660e+02
   8.0003750e+02   9.4323050e+02
   8.0051970e+02   9.7809180e+02
   8.0100180e+02   1.0536130e+03
   8.0148390e+02   1.1802360e+03
   8.0196600e+02   1.3187380e+03
   8.0244810e+02   1.4471130e+03
   8.0293020e+02   1.5758420e+03
   8.0341240e+02   1.7118630e+03
   8.0389450e+02   1.8471680e+03
   8.0437660e+02   2.0129550e+03
   8.0485870e+02   2.2162170e+03
   8.0534080e+02   2.4405510e+03
   8.0582290e+02   2.6635310e+03
   8.0630510e+02   2.8841660e+03
   8.0678720e+02   3.1596330e+03
   8.0726930e+02   3.5071070e+03
   8.0775140e+02   3.8741990e+03
   8.0823350e+02   4.1948710e+03
   8.0871560e+02   4.4996820e+03
   8.0919780e+02   4.8308140e+03
   8.0967990e+02   5.1907850e+03
   8.1016200e+02   5.5987560e+03
   8.1064410e+02   6.1006990e+03
   8.1112620e+02   6.6350920e+03
   8.1160830e+02   7.1353010e+03
   8.1209050e+02   7.5820080e+03
   8.1257260e+02   8.0411680e+03
   8.1305470e+02   8.5137870e+03
   8.1353680e+02   8.9979120e+03
   8.1401890e+02   9.5080370e+03
   8.1450100e+02   1.0029930e+04
   8.1498320e+02   1.0488640e+04
   8.1546530e+02   1.0875060e+04
   8.1594740e+02   1.1167480e+04
   8.1642950e+02   1.1354830e+04
   8.1691160e+02   1.1432930e+04
   8.1739370e+02   1.1398840e+04
   8.1787590e+02   1.1255720e+04
   8.1835800e+02   1.1001340e+04
   8.1884010e+02   1.0610280e+04
   8.1932220e+02   1.0120530e+04
   8.1980430e+02   9.5442320e+03
   8.2028640e+02   8.8562560e+03
   8.2076860e+02   8.1931950e+03
   8.2125070e+02   7.5722770e+03
   8.2173280e+02   6.9773670e+03
   8.2221490e+02   6.3966000e+03
   8.2269700e+02   5.8393500e+03
   8.2317910e+02   5.3040450e+03
   8.2366130e+02   4.7817230e+03
   8.2414340e+02   4.3281540e+03
   8.2462550e+02   4.0129630e+03
   8.2510760e+02   3.7762290e+03
   8.2558970e+02   3.5575820e+03
   8.2607180e+02   3.3502890e+03
   8.2655400e+02   3.1509820e+03
   8.2703610e+02   2.9459690e+03
   8.2751820e+02   2.7611970e+03
   8.2800030e+02   2.6325940e+03
   8.2848240e+02   2.5599200e+03
   8.2896450e+02   2.4838570e+03
   8.2944670e+02   2.3946450e+03
   8.2992880e+02   2.3105490e+03
   8.3041090e+02   2.2359510e+03
   8.3089300e+02   2.1837540e+03
   8.3137510e+02   2.1792270e+03
   8.3185720e+02   2.2539430e+03
   8.3233940e+02   2.3189690e+03
   8.3282150e+02   2.3209000e+03
   8.3330360e+02   2.3116000e+03
   8.3378570e+02   2.3502170e+03
   8.3426780e+02   2.4536350e+03
   8.3474990e+02   2.5468240e+03
   8.3523210e+02   2.6101990e+03
   8.3571420e+02   2.6966930e+03
   8.3619630e+02   2.8749790e+03
   8.3667840e+02   3.1337620e+03
   8.3716050e+02   3.4296450e+03
   8.3764260e+02   3.7552870e+03
   8.3812480e+02   4.0968240e+03
   8.3860690e+02   4.4105250e+03
   8.3908900e+02   4.7499430e+03
   8.3957110e+02   5.1725660e+03
   8.4005320e+02   5.7268440e+03
   8.4053530e+02   6.3011880e+03
   8.4101750e+02   6.8857050e+03
   8.4149960e+02   7.4899060e+03
   8.4198170e+02   8.1050960e+03
   8.4246380e+02   8.7311430e+03
   8.4294590e+02   9.4478050e+03
   8.4342800e+02   1.0277540e+04
   8.4391020e+02   1.1120010e+04
   8.4439230e+02   1.1833220e+04
   8.4487440e+02   1.2498640e+04
   8.4535650e+02   1.3249650e+04
   8.4583860e+02   1.4146860e+04
   8.4632070e+02   1.5019140e+04
   8.4680290e+02   1.5840280e+04
   8.4728500e+02   1.6575630e+04
   8.4776710e+02   1.7210580e+04
   8.4824920e+02   1.7788750e+04
   8.4873130e+02   1.8166990e+04
   8.4921340e+02   1.8361680e+04
   8.4969560e+02   1.8305980e+04
   8.5017770e+02   1.7905060e+04
   8.5065980e+02   1.7196320e+04
   8.5114190e+02   1.6281750e+04
   8.5162400e+02   1.5158330e+04
   8.5210610e+02   1.3946170e+04
   8.5258830e+02   1.2612880e+04
   8.5307040e+02   1.1297840e+04
   8.5355250e+02   1.0109780e+04
   8.5403460e+02   9.0960660e+03
   8.5451670e+02   8.1595390e+03
   8.5499880e+02   7.2857230e+03
   8.5548100e+02   6.4929750e+03
   8.5596310e+02   5.7864020e+03
   8.5644520e+02   5.1627660e+03
   8.5692730e+02   4.6360780e+03
   8.5740940e+02   4.2107890e+03
   8.5789150e+02   3.8251370e+03
   8.5837370e+02   3.4282130e+03
   8.5885580e+02   3.0488220e+03
   8.5933790e+02   2.7226000e+03
   8.5982000e+02   2.4559450e+03
   8.6030210e+02   2.2284000e+03
   8.6078420e+02   2.0585960e+03
   8.6126640e+02   1.9100920e+03
   8.6174850e+02   1.7703540e+03
   8.6223060e+02   1.6388750e+03
   8.6271270e+02   1.4762890e+03
   8.6319480e+02   1.2674750e+03
   8.6367690e+02   1.0919260e+03
   8.6415910e+02   1.0289040e+03
   8.6464120e+02   1.0366720e+03
   8.6512330e+02   1.0053260e+03
   8.6560540e+02   9.3270900e+02
   8.6608750e+02   8.6732810e+02
   8.6656960e+02   8.5893950e+02
   8.6705180e+02   8.4816020e+02
   8.6753390e+02   7.9099410e+02
   8.6801600e+02   6.8117380e+02
   8.6849810e+02   6.0147270e+02
   8.6898020e+02   5.5976950e+02
   8.6946230e+02   5.3339260e+02
   8.6994450e+02   5.1303520e+02
   8.7042660e+02   4.9511330e+02
   8.7090870e+02   4.7050390e+02
   8.7139080e+02   4.4268750e+02
   8.7187290e+02   4.2405270e+02
   8.7235500e+02   4.3571480e+02
   8.7283720e+02   4.4839840e+02
   8.7331930e+02   4.3689060e+02
   8.7380140e+02   4.0355660e+02
   8.7428350e+02   3.6575590e+02
   8.7476560e+02   3.0525390e+02
   8.7524770e+02   2.6916410e+02
   8.7572990e+02   2.8027930e+02
   8.7621200e+02   3.2258010e+02
   8.7669410e+02   3.3000780e+02
   8.7717620e+02   3.0263870e+02
   8.7765830e+02   2.7800390e+02
   8.7814040e+02   2.7003710e+02
   8.7862260e+02   2.7604300e+02
   8.7910470e+02   3.1232030e+02
   8.7958690e+02   3.5985940e+02
   8.8006900e+02   3.7081640e+02
   8.8055110e+02   2.7258980e+02
   8.8103320e+02   1.9824610e+02
   8.8151530e+02   2.0322660e+02
   8.8199740e+02   2.5169340e+02
   8.8247960e+02   2.7547070e+02
   8.8296170e+02   2.7334770e+02
   8.8344380e+02   2.4910160e+02
   8.8392590e+02   1.9418550e+02
   8.8440800e+02   1.3716990e+02
   8.8489010e+02   1.3307230e+02
   8.8537230e+02   1.6199610e+02
   8.8585440e+02   1.7655470e+02
   8.8633650e+02   1.4876560e+02
   8.8681860e+02   1.2247660e+02
   8.8730070e+02   1.1095310e+02
   8.8778280e+02   1.1527540e+02
   8.8826500e+02   1.3832810e+02
   8.8874710e+02   1.9037500e+02
   8.8922920e+02   2.3257030e+02
   8.8971130e+02   2.6211330e+02
   8.9019340e+02   2.8033200e+02
   8.9067550e+02   2.8129880e+02
   8.9115770e+02   2.7250000e+02
   8.9163980e+02   2.7900590e+02
   8.9212190e+02   3.0745120e+02
   8.9260400e+02   3.4070900e+02
   8.9308610e+02   3.7512700e+02
   8.9356820e+02   4.0350590e+02
   8.9405040e+02   4.1600980e+02
   8.9453250e+02   3.9567970e+02
   8.9501460e+02   4.0103120e+02
   8.9549670e+02   4.3910550e+02
   8.9597880e+02   4.8970900e+02
   8.9646090e+02   5.4735160e+02
   8.9694310e+02   6.0599410e+02
   8.9742520e+02   6.1616800e+02
   8.9790730e+02   5.7458980e+02
   8.9838940e+02   5.3394340e+02
   8.9887150e+02   5.4548440e+02
   8.9935360e+02   5.6671680e+02
   8.9983580e+02   5.6250590e+02
   9.0031790e+02   5.2827340e+02
   9.0080000e+02   4.8138090e+02
   9.0128210e+02   4.1677730e+02
   9.0176420e+02   3.5165820e+02
   9.0224630e+02   2.9179100e+02
   9.0272850e+02   2.3807620e+02
   9.0321060e+02   1.8891210e+02
   9.0369270e+02   1.4467770e+02
   9.0417480e+02   1.0927730e+02
   9.0465690e+02   9.0746090e+01
   9.0513900e+02   7.7591800e+01
   9.0562120e+02   5.2662110e+01
   9.0610330e+02   2.1439450e+01
   9.0658540e+02   7.0742190e+00
   9.0706750e+02   3.8054690e+01
   9.0754960e+02   6.0722660e+01
   9.0803170e+02   6.1875000e+01
   9.0851390e+02   4.6363280e+01
   9.0899600e+02   2.4748050e+01
   9.0947810e+02   2.9316410e+00
   9.0996020e+02   2.3195310e+01
   9.1044230e+02   3.1712890e+01
   9.1092440e+02   2.9710940e+01
   9.1140660e+02   3.7773440e+00
   9.1188870e+02   2.8910160e+01
   9.1237080e+02   3.6921880e+01
   9.1285290e+02   1.8361330e+01
   9.1333500e+02   6.2402340e+01
   9.1381710e+02   8.7585940e+01
   9.1429930e+02   9.4195310e+01
   9.1478140e+02   7.7035160e+01
   9.1526350e+02   3.3130860e+01
   9.1574560e+02   8.2070310e+00
   9.1622770e+02   1.2798830e+01
   9.1670980e+02   1.9550780e+01
   9.1719200e+02   1.8146480e+01
   9.1767410e+02   6.8390620e+01
   9.1815620e+02   7.7824220e+01
   9.1863830e+02   2.0041020e+01
   9.1912040e+02   2.2078120e+01
   9.1960250e+02   9.2988280e+00
   9.2008470e+02   1.6673830e+01
   9.2056680e+02   3.0160160e+01
   9.2104890e+02   3.1966800e+01
   9.2153100e+02   1.2228520e+01
   9.2201310e+02   2.9566410e+01
   9.2249520e+02   6.2902340e+01
   9.2297740e+02   6.5419920e+01
   9.2345950e+02   4.8455080e+01
   9.2394160e+02   1.9570310e+01
   9.2442370e+02   1.8224610e+01
   9.2490580e+02   3.8218750e+01
   9.2538790e+02   1.8550780e+01
   9.2587010e+02   9.5488280e+00
   9.2635220e+02   4.0515620e+01
   9.2683430e+02   7.0593750e+01
   9.2731640e+02   6.7007810e+01
   9.2779850e+02   2.7623050e+01
   9.2828060e+02   2.7824220e+01
   9.2876280e+02   1.0469920e+02
   9.2924490e+02   1.7739650e+02
   9.2972700e+02   2.0060550e+02
   9.3020910e+02   1.8680660e+02
   9.3069120e+02   1.7052150e+02
   9.3117330e+02   1.4977930e+02
   9.3165550e+02   1.4743360e+02
   9.3213760e+02   1.7525000e+02
   9.3261970e+02   2.2366600e+02
   9.3310180e+02   2.8310740e+02
   9.3358390e+02   3.5771480e+02
   9.3406600e+02   4.1080080e+02
   9.3454820e+02   4.2839840e+02
   9.3503030e+02   4.4742190e+02
   9.3551240e+02   5.3075780e+02
   9.3599450e+02   6.4621680e+02
   9.3647660e+02   7.3261520e+02
   9.3695870e+02   7.6138480e+02
   9.3744090e+02   8.0521290e+02
   9.3792300e+02   9.0611520e+02
   9.3840510e+02   1.0184570e+03
   9.3888720e+02   1.0998590e+03
   9.3936930e+02   1.1367480e+03
   9.3985140e+02   1.2363550e+03
   9.4033360e+02   1.4049240e+03
   9.4081570e+02   1.5841190e+03
   9.4129780e+02   1.7162680e+03
   9.4177990e+02   1.8344630e+03
   9.4226200e+02   1.9928730e+03
   9.4274410e+02   2.1917750e+03
   9.4322630e+02   2.3886660e+03
   9.4370840e+02   2.5738300e+03
   9.4419050e+02   2.7412010e+03
   9.4467260e+02   2.8924180e+03
   9.4515470e+02   3.0251450e+03
   9.4563680e+02   3.1313260e+03
   9.4611900e+02   3.2136110e+03
   9.4660110e+02   3.2385200e+03
   9.4708320e+02   3.1849380e+03
   9.4756530e+02   3.0732400e+03
   9.4804740e+02   2.9158300e+03
   9.4852950e+02   2.7214860e+03
   9.4901170e+02   2.5114390e+03
   9.4949380e+02   2.2814670e+03
   9.4997590e+02   2.0512050e+03
   9.5045800e+02   1.8093670e+03
   9.5094010e+02   1.5788980e+03
   9.5142220e+02   1.4048810e+03
   9.5190440e+02   1.2875490e+03
   9.5238650e+02   1.1592790e+03
   9.5286860e+02   1.0035080e+03
   9.5335070e+02   8.6277150e+02
   9.5383280e+02   7.9846480e+02
   9.5431490e+02   7.6853120e+02
   9.5479710e+02   7.1899020e+02
   9.5527920e+02   6.3488870e+02
   9.5576130e+02   5.5199020e+02
   9.5624340e+02   4.5741600e+02
   9.5672550e+02   3.8755860e+02
   9.5720760e+02   3.7594140e+02
   9.5768980e+02   4.2012700e+02
   9.5817190e+02   4.3173440e+02
   9.5865400e+02   4.1114840e+02
   9.5913610e+02   3.7773440e+02
   9.5961820e+02   3.2531450e+02
   9.6010030e+02   2.8121090e+02
   9.6058250e+02   2.7953120e+02
   9.6106460e+02   3.1269140e+02
   9.6154670e+02   3.3166210e+02
   9.6202880e+02   3.2039260e+02
   9.6251090e+02   3.0441410e+02
   9.6299300e+02   2.8708790e+02
   9.6347520e+02   2.7094140e+02
   9.6395730e+02   2.7541600e+02
   9.6443940e+02   2.9423830e+02
   9.6492150e+02   2.8335740e+02
   9.6540360e+02   2.1064840e+02
   9.6588570e+02   1.3914650e+02
   9.6636790e+02   1.2585550e+02
   9.6685000e+02   1.4159570e+02
   9.6733210e+02   1.4767970e+02
   9.6781420e+02   1.2217380e+02
   9.6829630e+02   1.1997460e+02
   9.6877840e+02   1.5741990e+02
   9.6926060e+02   1.8814840e+02
   9.6974270e+02   1.3958200e+02
   9.7022480e+02   4.2076170e+01
   9.7070690e+02   1.6148440e+01
   9.7118900e+02   6.8462890e+01
   9.7167110e+02   1.1876560e+02
   9.7215330e+02   1.0747850e+02
   9.7263540e+02   8.3355470e+01
   9.7311750e+02   8.2117190e+01
   9.7359960e+02   1.0304300e+02
   9.7408170e+02   1.0545900e+02
   9.7456380e+02   8.0779300e+01
   9.7504600e+02   7.0412110e+01
   9.7552810e+02   1.0155470e+02
   9.7601020e+02   1.4583790e+02
   9.7649230e+02   1.2998830e+02
   9.7697440e+02   7.3671880e+01
   9.7745650e+02   4.0867190e+01
   9.7793870e+02   1.0335740e+02
   9.7842080e+02   1.4081050e+02
   9.7890290e+02   8.1802730e+01
   9.7938500e+02   1.2134770e+01
   9.7986710e+02   6.0488280e+01
   9.8034920e+02   5.6437500e+01
   9.8083140e+02   4.1447270e+01
   9.8131350e+02   1.7683590e+01
   9.8179560e+02   1.1048830e+01
   9.8227770e+02   4.5646480e+01
   9.8275980e+02   7.8931640e+01
   9.8324190e+02   1.0536720e+02
   9.8372410e+02   1.2399020e+02
   9.8420620e+02   1.2354300e+02
   9.8468830e+02   8.0169920e+01
   9.8517040e+02   3.9744140e+01
   9.8565250e+02   2.2839840e+01
   9.8613460e+02   2.8507810e+01
   9.8661680e+02   4.7177730e+01
   9.8709890e+02   7.8365230e+01
   9.8758100e+02   1.0790430e+02
   9.8806310e+02   1.3339060e+02
   9.8854520e+02   1.4930270e+02
   9.8902730e+02   1.4458200e+02
   9.8950950e+02   1.2368160e+02
   9.8999160e+02   1.0795900e+02
   9.9047370e+02   1.1275980e+02
   9.9095580e+02   1.0516410e+02
   9.9143790e+02   7.2728520e+01
   9.9192000e+02   3.8744140e+01
   9.9240220e+02   5.1988280e+01
   9.9288430e+02   9.7925780e+01
   9.9336640e+02   1.0727540e+02
   9.9384850e+02   6.0445310e+01
   9.9433060e+02   1.9646480e+01
   9.9481270e+02   3.6816410e+01
   9.9529490e+02   7.2644530e+01
   9.9577700e+02   9.1222660e+01
   9.9625910e+02   8.6382810e+01
   9.9674120e+02   9.8185550e+01
   9.9722330e+02   1.3261130e+02
   9.9770540e+02   1.6111130e+02
   9.9818760e+02   1.6426370e+02
   9.9866970e+02   1.5008590e+02
   9.9915180e+02   1.2871090e+02
   9.9963390e+02   1.0464650e+02
   1.0001160e+03   9.5849610e+01
   1.0005980e+03   1.3683980e+02
   1.0010800e+03   1.6042190e+02
   1.0015620e+03   1.2197070e+02
   1.0020440e+03   6.2148440e+01
   1.0025270e+03   5.8308590e+01
   1.0030090e+03   1.1643550e+02
   1.0034910e+03   1.4066600e+02
   1.0039730e+03   1.0840430e+02
   1.0044550e+03   5.9265620e+01
   1.0049370e+03   2.4187500e+01
   1.0054190e+03   4.7031250e+00
   1.0059010e+03   4.9746090e+00
   1.0063840e+03   2.8994140e+01
   1.0068660e+03   6.0740230e+01
   1.0073480e+03   1.0567970e+02
   1.0078300e+03   1.4571480e+02
   1.0083120e+03   1.7375780e+02
   1.0087940e+03   1.8917580e+02
   1.0092760e+03   1.7175590e+02
   1.0097580e+03   1.2598830e+02
   1.0102400e+03   8.8775390e+01
   1.0107230e+03   8.5767580e+01
   1.0112050e+03   9.4029300e+01
   1.0116870e+03   1.0842380e+02
   1.0121690e+03   1.2198830e+02
   1.0126510e+03   1.1435160e+02
   1.0131330e+03   6.8324220e+01
   1.0136150e+03   5.3802730e+01
   1.0140970e+03   8.7347660e+01
   1.0145800e+03   1.3916410e+02
   1.0150620e+03   1.8182810e+02
   1.0155440e+03   2.0847660e+02
   1.0160260e+03   1.9781450e+02
   1.0165080e+03   1.3763280e+02
   1.0169900e+03   8.9955080e+01
   1.0174720e+03   8.7919920e+01
   1.0179540e+03   9.8876950e+01
   1.0184360e+03   1.0940820e+02
   1.0189190e+03   1.1850980e+02
   1.0194010e+03   9.5865230e+01
   1.0198830e+03   4.1339840e+01
   1.0203650e+03   1.8515630e+00
   1.0208470e+03   1.1066410e+01
   1.0213290e+03   4.2746090e+01
   1.0218110e+03   8.4285160e+01
   1.0222930e+03   1.2681840e+02
   1.0227760e+03   1.4889840e+02
   1.0232580e+03   1.2850390e+02
   1.0237400e+03   1.1844730e+02
   1.0242220e+03   1.2912110e+02
   1.0247040e+03   1.4291800e+02
   1.0251860e+03   1.3016800e+02
   1.0256680e+03   9.9923830e+01
   1.0261500e+03   8.6095700e+01
   1.0266320e+03   9.4664060e+01
   1.0271150e+03   1.0117970e+02
   1.0275970e+03   9.0058590e+01
   1.0280790e+03   7.1333980e+01
   1.0285610e+03   4.5109380e+01
   1.0290430e+03   1.5339840e+01
   1.0295250e+03   2.3478520e+01
   1.0300070e+03   7.6818360e+01
   1.0304890e+03   1.1862700e+02
   1.0309720e+03   1.2091600e+02
   1.0314540e+03   1.0450780e+02
   1.0319360e+03   9.4388670e+01
   1.0324180e+03   8.7966800e+01
   1.0329000e+03   7.9500000e+01
   1.0333820e+03   4.6898440e+01
   1.0338640e+03   4.5359380e+01
   1.0343460e+03   1.0194920e+02
   1.0348280e+03   1.6111130e+02
   1.0353110e+03   1.4591600e+02
   1.0357930e+03   7.1625000e+01
   1.0362750e+03   4.0623050e+01
   1.0367570e+03   6.1199220e+01
   1.0372390e+03   7.8808590e+01
   1.0377210e+03   4.2871090e+01
   1.0382030e+03   5.2226560e+00
   1.0386850e+03   3.8398440e+00
   1.0391670e+03   3.6476560e+01
   1.0396500e+03   6.7617190e+01
   1.0401320e+03   9.7548830e+01
   1.0406140e+03   1.1802930e+02
   1.0410960e+03   1.2505270e+02
   1.0415780e+03   1.2259570e+02
   1.0420600e+03   1.1240820e+02
   1.0425420e+03   9.8187500e+01
   1.0430240e+03   8.6189450e+01
   1.0435070e+03   7.4917970e+01
   1.0439890e+03   7.4220700e+01
   1.0444710e+03   1.0501370e+02
   1.0449530e+03   1.2478710e+02
   1.0454350e+03   8.5794920e+01
   1.0459170e+03   3.4218750e+00
   1.0463990e+03   3.6244140e+01
   1.0468810e+03   1.1482420e+01
   1.0473640e+03   2.6781250e+01
   1.0478460e+03   6.6167970e+01
   1.0483280e+03   9.2804690e+01
   1.0488100e+03   8.7419920e+01
   1.0492920e+03   5.9318360e+01
   1.0497740e+03   5.2277340e+01
   1.0502560e+03   7.6462890e+01
   1.0507380e+03   8.5105470e+01
   1.0512200e+03   6.3810550e+01
   1.0517030e+03   3.7218750e+01
   1.0521850e+03   4.7816410e+01
   1.0526670e+03   7.5832030e+01
   1.0531490e+03   8.4492190e+01
   1.0536310e+03   6.1308590e+01
   1.0541130e+03   4.3328120e+01
   1.0545950e+03   4.4429690e+01
   1.0550770e+03   4.8626950e+01
   1.0555590e+03   5.0470700e+01
   1.0560420e+03   4.8855470e+01
   1.0565240e+03   3.0996090e+01
   1.0570060e+03   4.0625000e-01
   1.0574880e+03   2.3509770e+01
   1.0579700e+03   4.3714840e+01
   1.0584520e+03   3.3910160e+01
   1.0589340e+03   6.6179690e+01
   1.0594160e+03   1.9481250e+02
   1.0598990e+03   2.2881450e+02
   1.0603810e+03   1.2964060e+02
   1.0608630e+03   7.1441410e+01
   1.0613450e+03   7.4048830e+01
   1.0618270e+03   9.3300780e+01
   1.0623090e+03   8.7876950e+01
   1.0627910e+03   6.7091800e+01
   1.0632730e+03   4.1255860e+01
   1.0637550e+03   1.2230470e+01
   1.0642380e+03   8.3222660e+00
   1.0647200e+03   2.4207030e+01
   1.0652020e+03   2.1142580e+01
   1.0656840e+03   1.4583980e+01
   1.0661660e+03   6.5435550e+01
   1.0666480e+03   7.3707030e+01
   1.0671300e+03   4.9666020e+01
   1.0676120e+03   4.4984380e+01
   1.0680940e+03   8.7736330e+01
   1.0685770e+03   1.2551760e+02
   1.0690590e+03   1.1497070e+02
   1.0695410e+03   9.2474610e+01
   1.0700230e+03   9.8158200e+01
   1.0705050e+03   1.4325000e+02
   1.0709870e+03   1.4673630e+02
   1.0714690e+03   1.0407420e+02
   1.0719510e+03   6.5093750e+01
   1.0724340e+03   7.6031250e+01
   1.0729160e+03   1.0047660e+02
   1.0733980e+03   9.1062500e+01
   1.0738800e+03   5.7419920e+01
   1.0743620e+03   3.5119140e+01
   1.0748440e+03   2.3144530e+01
   1.0753260e+03   4.0894530e+01
   1.0758080e+03   1.0424410e+02
   1.0762910e+03   1.7490040e+02
   1.0767730e+03   1.9603120e+02
   1.0772550e+03   1.8135940e+02
   1.0777370e+03   1.6741990e+02
   1.0782190e+03   1.5888090e+02
   1.0787010e+03   1.5172070e+02
   1.0791830e+03   1.3903120e+02
   1.0796650e+03   1.3210160e+02
   1.0801470e+03   1.4152150e+02
   1.0806300e+03   1.6158790e+02
   1.0811120e+03   1.5161910e+02
   1.0815940e+03   1.1307030e+02
   1.0820760e+03   9.3634770e+01
   1.0825580e+03   1.2645900e+02
   1.0830400e+03   1.5590620e+02
   1.0835220e+03   1.1979300e+02
   1.0840040e+03   5.5599610e+01
   1.0844860e+03   1.3658200e+01
   1.0849690e+03   3.0761720e+00
   1.0854510e+03   5.2988280e+00
   1.0859330e+03   2.5490230e+01
   1.0864150e+03   3.8701170e+01
   1.0868970e+03   7.2128910e+00
   1.0873790e+03   3.4468750e+01
   1.0878610e+03   1.0462890e+01
   1.0883430e+03   6.1771480e+01
   1.0888260e+03   1.0483590e+02
   1.0893080e+03   4.8982420e+01
   1.0897900e+03   1.7701170e+01
   1.0902720e+03   3.8742190e+01
   1.0907540e+03   8.6751950e+01
   1.0912360e+03   1.3246880e+02
   1.0917180e+03   1.7199410e+02
   1.0922000e+03   1.8454880e+02
   1.0926820e+03   1.6565820e+02
   1.0931650e+03   1.3326370e+02
   1.0936470e+03   8.1212890e+01
   1.0941290e+03   3.4960940e+01
   1.0946110e+03   1.2220700e+01
   1.0950930e+03   9.8906250e+00
   1.0955750e+03   4.3593750e+00
   1.0960570e+03   5.4628910e+00
   1.0965390e+03   1.2169920e+01
   1.0970220e+03   7.5484380e+01
   1.0975040e+03   1.3621290e+02
   1.0979860e+03   1.4454100e+02
   1.0984680e+03   1.2602340e+02
   1.0989500e+03   1.1631640e+02
   1.0994320e+03   1.2981450e+02
   1.0999140e+03   1.2556050e+02
   1.1003960e+03   9.8080080e+01
   1.1008790e+03   7.0742190e+01
   1.1013610e+03   6.6837890e+01
   1.1018430e+03   7.1814450e+01
   1.1023250e+03   4.6382810e+01
   1.1028070e+03   2.3828130e+00
   1.1032890e+03   1.5136720e+01
   1.1037710e+03   4.3359380e+01
   1.1042530e+03   8.2376950e+01
   1.1047350e+03   8.5671880e+01
   1.1052180e+03   7.1869140e+01
   1.1057000e+03   6.3736330e+01
   1.1061820e+03   6.0603520e+01
   1.1066640e+03   6.1947270e+01
   1.1071460e+03   6.7898440e+01
   1.1076280e+03   6.9140620e+01
   1.1081100e+03   4.2976560e+01
   1.1085920e+03   2.8080080e+01
   1.1090740e+03   5.5781250e+01
   1.1095570e+03   1.1203910e+02
   1.1100390e+03   1.4000200e+02
   1.1105210e+03   1.3959570e+02
   1.1110030e+03   1.3285160e+02
   1.1114850e+03   1.2383010e+02
   1.1119670e+03   1.1779490e+02
   1.1124490e+03   1.2647270e+02
   1.1129310e+03   1.3710550e+02
   1.1134140e+03   1.3347850e+02
   1.1138960e+03   1.0944530e+02
   1.1143780e+03   9.5941410e+01
   1.1148600e+03   9.3388670e+01
   1.1153420e+03   9.7091800e+01
   1.1158240e+03   1.1264650e+02
   1.1163060e+03   1.2890040e+02
   1.1167880e+03   1.2220510e+02
   1.1172710e+03   9.9931640e+01
   1.1177530e+03   8.4259770e+01
   1.1182350e+03   7.8425780e+01
   1.1187170e+03   8.4228520e+01
   1.1191990e+03   1.0598050e+02
   1.1196810e+03   1.3082030e+02
   1.1201630e+03   1.5322660e+02
   1.1206450e+03   1.6742580e+02
   1.1211270e+03   1.4749610e+02
   1.1216090e+03   9.6619140e+01
   1.1220920e+03   5.4412110e+01
   1.1225740e+03   4.9861330e+01
   1.1230560e+03   4.6876950e+01
   1.1235380e+03   3.0011720e+01
   1.1240200e+03   1.0015620e+01
   1.1245020e+03   1.0980470e+01
   1.1249840e+03   3.1341800e+01
   1.1254660e+03   6.2242190e+01
   1.1259490e+03   1.0408010e+02
   1.1264310e+03   1.3397070e+02
   1.1269130e+03   1.2784570e+02
   1.1273950e+03   1.1016210e+02
   1.1278770e+03   9.1478520e+01
   1.1283590e+03   7.4939450e+01
   1.1288410e+03   9.6542970e+01
   1.1293230e+03   1.6030080e+02
   1.1298060e+03   1.8632030e+02
   1.1302880e+03   1.2746090e+02
   1.1307700e+03   5.8541020e+01
   1.1312520e+03   6.4730470e+01
   1.1317340e+03   1.0229690e+02
   1.1322160e+03   1.0928910e+02
   1.1326980e+03   5.8851560e+01
   1.1331800e+03   6.0160160e+01
   1.1336620e+03   1.2798830e+02
   1.1341450e+03   1.8456450e+02
   1.1346270e+03   1.6911520e+02
   1.1351090e+03   1.1977150e+02
   1.1355910e+03   8.6283200e+01
   1.1360730e+03   6.8322270e+01
   1.1365550e+03   6.5744140e+01
   1.1370370e+03   9.8078120e+01
   1.1375190e+03   1.1480660e+02
   1.1380010e+03   1.0636130e+02
   1.1384840e+03   9.6117190e+01
   1.1389660e+03   1.1603120e+02
   1.1394480e+03   1.5089260e+02
   1.1399300e+03   1.6492580e+02
   1.1404120e+03   1.5681640e+02
   1.1408940e+03   1.3424410e+02
   1.1413760e+03   6.5472660e+01
   1.1418580e+03   3.0582030e+01
   1.1423410e+03   6.5078120e+01
   1.1428230e+03   1.2666020e+02
   1.1433050e+03   1.3458010e+02
   1.1437870e+03   1.0031640e+02
   1.1442690e+03   7.2634770e+01
   1.1447510e+03   5.8728520e+01
   1.1452330e+03   5.8371090e+01
   1.1457150e+03   9.8230470e+01
   1.1461980e+03   1.3240620e+02
   1.1466800e+03   1.3602540e+02
   1.1471620e+03   1.1454880e+02
   1.1476440e+03   8.5605470e+01
   1.1481260e+03   5.0345700e+01
   1.1486080e+03   2.2156250e+01
   1.1490900e+03   2.0839840e+00
   1.1495720e+03   2.1777340e+00
   1.1500540e+03   3.1148440e+01
   1.1505360e+03   7.1751950e+01
   1.1510190e+03   8.9587890e+01
   1.1515010e+03   8.2349610e+01
   1.1519830e+03   8.3699220e+01
   1.1524650e+03   9.7183590e+01
   1.1529470e+03   8.6679690e+01
   1.1534290e+03   5.5585940e+00
   1.1539110e+03   6.8458980e+01
   1.1543930e+03   5.2343750e+01
   1.1548760e+03   2.0654300e+01
   1.1553580e+03   9.9162110e+01
   1.1558400e+03   1.9721680e+02
   1.1563220e+03   2.3301950e+02
   1.1568040e+03   1.9428120e+02
   1.1572860e+03   1.5263670e+02
   1.1577680e+03   1.7828520e+02
   1.1582500e+03   2.2540620e+02
   1.1587330e+03   2.3786330e+02
   1.1592150e+03   2.2094140e+02
   1.1596970e+03   2.0103520e+02
   1.1601790e+03   1.8190040e+02
   1.1606610e+03   1.5965040e+02
   1.1611430e+03   1.3017970e+02
   1.1616250e+03   1.0710550e+02
   1.1621070e+03   1.0901950e+02
   1.1625890e+03   1.2227730e+02
   1.1630720e+03   1.2099410e+02
   1.1635540e+03   1.0460160e+02
   1.1640360e+03   9.8818360e+01
   1.1645180e+03   1.2441990e+02
   1.1650000e+03   1.3366210e+02
   1.1654820e+03   1.1038480e+02
   1.1659640e+03   7.2666020e+01
   1.1664460e+03   4.6597660e+01
   1.1669280e+03   3.3263670e+01
   1.1674110e+03   3.5814450e+01
   1.1678930e+03   5.5882810e+01
   1.1683750e+03   8.5363280e+01
   1.1688570e+03   1.4704880e+02
   1.1693390e+03   1.8482230e+02
   1.1698210e+03   1.7163670e+02
   1.1703030e+03   1.2302340e+02
   1.1707850e+03   6.9457030e+01
   1.1712680e+03   1.6589840e+01
   1.1717500e+03   3.0175780e+00
   1.1722320e+03   6.2658200e+01
   1.1727140e+03   1.1222850e+02
   1.1731960e+03   1.1999410e+02
   1.1736780e+03   1.0363280e+02
   1.1741600e+03   6.1931640e+01
   1.1746420e+03   2.9746090e+00
   1.1751250e+03   1.0232420e+01
   1.1756070e+03   1.5828120e+01
   1.1760890e+03   3.9138670e+01
   1.1765710e+03   3.4375000e+01
   1.1770530e+03   3.3576170e+01
   1.1775350e+03   5.8212890e+01
   1.1780170e+03   8.7820310e+01
   1.1784990e+03   1.0390430e+02
   1.1789810e+03   1.0676950e+02
   1.1794640e+03   1.0740230e+02
   1.1799460e+03   1.0540820e+02
   1.1804280e+03   9.4640620e+01
   1.1809100e+03   4.2400390e+01
   1.1813920e+03   1.1718750e+01
   1.1818740e+03   6.5000000e+01
   1.1823560e+03   1.4703520e+02
   1.1828380e+03   1.6730080e+02
   1.1833200e+03   1.2304690e+02
   1.1838030e+03   1.0712110e+02
   1.1842850e+03   1.2752150e+02
   1.1847670e+03   1.5118360e+02
   1.1852490e+03   1.5330470e+02
   1.1857310e+03   1.5020310e+02
   1.1862130e+03   1.5478120e+02
   1.1866950e+03   1.6258010e+02
   1.1871770e+03   1.5974410e+02
   1.1876600e+03   1.4592190e+02
   1.1881420e+03   1.2985940e+02
   1.1886240e+03   1.1276370e+02
   1.1891060e+03   9.8685550e+01
   1.1895880e+03   9.4785160e+01
   1.1900700e+03   9.2556640e+01
   1.1905520e+03   8.6050780e+01
   1.1910340e+03   7.3259770e+01
   1.1915160e+03   5.7736330e+01
   1.1919990e+03   3.8343750e+01
   1.1924810e+03   2.8539060e+01
   1.1929630e+03   3.3787110e+01
   1.1934450e+03   4.1431640e+01
   1.1939270e+03   1.6535160e+01
   1.1944090e+03   2.7988280e+00
   1.1948910e+03   6.4400390e+01
   1.1953730e+03   2.0667380e+02
   1.1958550e+03   2.7715230e+02
   1.1963380e+03   2.7149220e+02
   1.1968200e+03   2.3177340e+02
   1.1973020e+03   1.6002340e+02
   1.1977840e+03   9.1300780e+01
   1.1982660e+03   6.4453120e+01
   1.1987480e+03   6.3425780e+01
   1.1992300e+03   7.1962890e+01
   1.1997120e+03   9.0923830e+01
   1.2001950e+03   9.9384770e+01
   1.2006770e+03   9.7062500e+01
   1.2011590e+03   8.5691410e+01
   1.2016410e+03   6.1564450e+01
   1.2021230e+03   3.4687500e+01
   1.2026050e+03   8.2851560e+00
   1.2030870e+03   9.8535160e+00
   1.2035690e+03   4.9921880e+00
   1.2040520e+03   3.4246090e+01
   1.2045340e+03   6.4244140e+01
   1.2050160e+03   8.4410160e+01
   1.2054980e+03   1.0041990e+02
   1.2059800e+03   1.2105080e+02
   1.2064620e+03   1.3610740e+02
   1.2069440e+03   1.2966020e+02
   1.2074260e+03   1.0928320e+02
   1.2079080e+03   9.3484380e+01
   1.2083910e+03   9.1640620e+01
   1.2088730e+03   6.5521480e+01
   1.2093550e+03   5.4921880e+00
   1.2098370e+03   3.6318360e+01
   1.2103190e+03   7.3730470e+00
   1.2108010e+03   7.5660160e+01
   1.2112830e+03   9.1593750e+01
   1.2117650e+03   6.7054690e+01
   1.2122470e+03   7.3937500e+01
   1.2127300e+03   1.4070310e+02
   1.2132120e+03   1.6490230e+02
   1.2136940e+03   1.2926370e+02
   1.2141760e+03   8.3572270e+01
   1.2146580e+03   7.5259770e+01
   1.2151400e+03   8.3757810e+01
   1.2156220e+03   9.1646480e+01
   1.2161040e+03   9.5580080e+01
   1.2165870e+03   8.1755860e+01
   1.2170690e+03   3.7041020e+01
   1.2175510e+03   2.3675780e+01
   1.2180330e+03   5.8708980e+01
   1.2185150e+03   9.6921880e+01
   1.2189970e+03   8.2740230e+01
   1.2194790e+03   4.7455080e+01
   1.2199610e+03   2.3828120e+01
   1.2204430e+03   1.4660160e+01
   1.2209260e+03   7.2734380e+00
   1.2214080e+03   4.9238280e+00
   1.2218900e+03   1.5125000e+01
   1.2223720e+03   8.7931640e+01
   1.2228540e+03   1.5379880e+02
   1.2233360e+03   1.2611520e+02
   1.2238180e+03   6.1080080e+01
   1.2243000e+03   2.1076170e+01
   1.2247820e+03   1.4757810e+01
   1.2252650e+03   9.6914060e+00
   1.2257470e+03   4.3105470e+00
   1.2262290e+03   9.1406250e+00
   1.2267110e+03   3.3822270e+01
   1.2271930e+03   5.2279300e+01
   1.2276750e+03   3.8164060e+00
   1.2281570e+03   5.1773440e+01
   1.2286390e+03   2.4664060e+01
   1.2291220e+03   1.0676370e+02
   1.2296040e+03   1.4361520e+02
   1.2300860e+03   6.9808590e+01
   1.2305680e+03   1.3250000e+01
   1.2310500e+03   3.3621090e+01
   1.2315320e+03   7.0212890e+01
   1.2320140e+03   4.6613280e+01
   1.2324960e+03   1.9414060e+00
   1.2329790e+03   1.3958980e+01
   1.2334610e+03   7.2675780e+00
   1.2339430e+03   2.7183590e+01
   1.2344250e+03   4.6400390e+01
   1.2349070e+03   5.6507810e+01
   1.2353890e+03   4.5763670e+01
   1.2358710e+03   3.0199220e+01
   1.2363530e+03   9.3378910e+00
   1.2368350e+03   7.8320300e-01
   1.2373180e+03   4.0550780e+01
   1.2378000e+03   1.4365040e+02
   1.2382820e+03   1.6617190e+02
   1.2387640e+03   1.0403320e+02
   1.2392460e+03   4.2259770e+01
   1.2397280e+03   2.8394530e+01
   1.2402100e+03   3.4470700e+01
   1.2406920e+03   4.5082030e+01
   1.2411750e+03   5.7822270e+01
   1.2416570e+03   6.8375000e+01
   1.2421390e+03   7.5333980e+01
   1.2426210e+03   9.6882810e+01
   1.2431030e+03   1.3349610e+02
   1.2435850e+03   1.4618950e+02
   1.2440670e+03   8.4505860e+01
   1.2445490e+03   1.9949220e+01
   1.2450310e+03   1.8203130e+00
   1.2455140e+03   5.5019530e+00
   1.2459960e+03   2.5230470e+01
   1.2464780e+03   6.0939450e+01
   1.2469600e+03   5.2480470e+01
   1.2474420e+03   2.3808590e+00
   1.2479240e+03   1.5460940e+01
   1.2484060e+03   1.0190430e+02
   1.2488880e+03   2.0368360e+02
   1.2493700e+03   1.8423630e+02
   1.2498530e+03   1.1131050e+02
   1.2503350e+03   6.8984380e+01
   1.2508170e+03   5.7123050e+01
   1.2512990e+03   5.4380860e+01
   1.2517810e+03   6.0546880e+01
   1.2522630e+03   8.1480470e+01
   1.2527450e+03   1.5808200e+02
   1.2532270e+03   2.0516410e+02
   1.2537100e+03   1.5150390e+02
   1.2541920e+03   7.4851560e+01
   1.2546740e+03   9.0529300e+01
   1.2551560e+03   1.7867580e+02
   1.2556380e+03   1.8032620e+02
   1.2561200e+03   9.5822270e+01
   1.2566020e+03   2.8898440e+01
   1.2570840e+03   4.7681640e+01
   1.2575670e+03   8.0396480e+01
   1.2580490e+03   1.1344340e+02
   1.2585310e+03   1.3518550e+02
   1.2590130e+03   1.1528910e+02
   1.2594950e+03   7.3425780e+01
   1.2599770e+03   5.8828120e+01
   1.2604590e+03   7.3181640e+01
   1.2609410e+03   8.7746090e+01
   1.2614230e+03   8.9562500e+01
   1.2619060e+03   8.8939450e+01
   1.2623880e+03   1.8125000e+01
   1.2628700e+03   7.4660160e+01
   1.2633520e+03   1.0701950e+02
   1.2638340e+03   1.1646880e+02
   1.2643160e+03   3.4453120e+01
   1.2647980e+03   6.9941410e+01
   1.2652800e+03   5.8691410e+01
   1.2657620e+03   4.5507810e+01
   1.2662450e+03   9.8246090e+01
   1.2667270e+03   2.9486330e+01
   1.2672090e+03   8.1035160e+01
   1.2676910e+03   8.4662110e+01
   1.2681730e+03   1.0530860e+02
   1.2686550e+03   8.0798830e+01
   1.2691370e+03   7.3412110e+01
   1.2696190e+03   1.1364060e+02
   1.2701020e+03   1.2753320e+02
   1.2705840e+03   9.8347660e+01
   1.2710660e+03   1.2521680e+02
   1.2715480e+03   5.4738280e+01
   1.2720300e+03   6.9710940e+01
   1.2725120e+03   1.2131450e+02
   1.2729940e+03   9.6103520e+01
   1.2734760e+03   1.2385940e+02
   1.2739580e+03   1.3144530e+02
   1.2744410e+03   4.7337890e+01
   1.2749230e+03   1.2268950e+02
   1.2754050e+03   1.2908200e+02
   1.2758870e+03   6.4650390e+01
   1.2763690e+03   1.3453710e+02
   1.2768510e+03   7.9259770e+01
   1.2773330e+03   1.0558400e+02
   1.2778150e+03   1.2672070e+02
   1.2782970e+03   1.2160350e+02
   1.2787800e+03   9.2798830e+01
   1.2792620e+03   7.7884770e+01
   1.2797440e+03   8.8044920e+01
   1.2802260e+03   1.0033980e+02
   1.2807080e+03   8.4605470e+01
   1.2811900e+03   7.5611330e+01
   1.2816720e+03   1.1267970e+02
   1.2821540e+03   1.7454490e+02
   1.2826370e+03   1.7417970e+02
   1.2831190e+03   1.1922850e+02
   1.2836010e+03   8.3027340e+01
   1.2840830e+03   8.2203120e+01
   1.2845650e+03   9.1101560e+01
   1.2850470e+03   1.1211910e+02
   1.2855290e+03   1.1633980e+02
   1.2860110e+03   7.8017580e+01
   1.2864940e+03   2.3560550e+01
   1.2869760e+03   4.0332030e+01
   1.2874580e+03   1.0560940e+02
   1.2879400e+03   1.4280860e+02
   1.2884220e+03   1.3454100e+02
   1.2889040e+03   1.1363090e+02
   1.2893860e+03   7.1873050e+01
   1.2898680e+03   5.0019530e+01
   1.2903500e+03   7.2671880e+01
   1.2908330e+03   1.0702150e+02
   1.2913150e+03   7.2355470e+01
   1.2917970e+03   4.8125000e+00
   1.2922790e+03   2.0822270e+01
   1.2927610e+03   1.4308590e+01
   1.2932430e+03   4.4980470e+01
   1.2937250e+03   6.8416020e+01
   1.2942070e+03   6.9894530e+01
   1.2946890e+03   3.4664060e+01
   1.2951720e+03   1.0058590e+00
   1.2956540e+03   2.6458980e+01
   1.2961360e+03   8.0105470e+01
   1.2966180e+03   1.1202730e+02
   1.2971000e+03   1.1333790e+02
   1.2975820e+03   1.0968750e+02
   1.2980640e+03   1.0053120e+02
   1.2985460e+03   8.8734380e+01
   1.2990290e+03   7.0968750e+01
   1.2995110e+03   6.4703120e+01
   1.2999930e+03   1.0394730e+02
   1.3004750e+03   1.4234380e+02
   1.3009570e+03   1.6472460e+02
   1.3014390e+03   1.6238090e+02
   1.3019210e+03   1.2940230e+02
   1.3024030e+03   6.8802730e+01
   1.3028850e+03   3.4759770e+01
   1.3033680e+03   4.6115230e+01
   1.3038500e+03   6.9160160e+01
   1.3043320e+03   1.0298630e+02
   1.3048140e+03   1.1670310e+02
   1.3052960e+03   8.3492190e+01
   1.3057780e+03   2.2093750e+01
   1.3062600e+03   8.8671900e-01
   1.3067420e+03   7.4863280e+00
   1.3072240e+03   7.6621090e+00
   1.3077070e+03   0.0000000e+00
   1.5000000e+03   0.0000000e+00
