   1.0000000e+02   0.0000000e+00
   1.7617830e+02   0.0000000e+00
   1.7666040e+02   5.1210940e+00
   1.7714250e+02   2.0000000e+00
   1.7762460e+02   1.9765630e+00
   1.7810670e+02   1.6640630e+00
   1.7858880e+02   8.4570310e+00
   1.7907100e+02   1.0207030e+01
   1.7955310e+02   1.2222660e+01
   1.8003520e+02   2.7730470e+01
   1.8051730e+02   6.2214840e+01
   1.8099940e+02   1.0725390e+02
   1.8148150e+02   1.5587110e+02
   1.8196370e+02   2.0801950e+02
   1.8244580e+02   2.4183200e+02
   1.8292790e+02   2.2477340e+02
   1.8341000e+02   1.7057030e+02
   1.8389210e+02   1.3114060e+02
   1.8437420e+02   1.1882420e+02
   1.8485640e+02   1.3152340e+02
   1.8533850e+02   1.7193360e+02
   1.8582060e+02   2.4289060e+02
   1.8630270e+02   3.1505860e+02
   1.8678480e+02   3.4457420e+02
   1.8726690e+02   3.4001950e+02
   1.8774910e+02   3.7045700e+02
   1.8823120e+02   4.8167970e+02
   1.8871330e+02   6.4704690e+02
   1.8919540e+02   7.6672660e+02
   1.8967750e+02   8.3184380e+02
   1.9015960e+02   8.8046090e+02
   1.9064180e+02   9.5873440e+02
   1.9112390e+02   1.0653750e+03
   1.9160600e+02   1.1800160e+03
   1.9208810e+02   1.2966760e+03
   1.9257020e+02   1.4151170e+03
   1.9305240e+02   1.5354260e+03
   1.9353450e+02   1.6585310e+03
   1.9401660e+02   1.7801330e+03
   1.9449870e+02   1.8939570e+03
   1.9498080e+02   2.0005310e+03
   1.9546290e+02   2.0918870e+03
   1.9594510e+02   2.1599960e+03
   1.9642720e+02   2.2066840e+03
   1.9690930e+02   2.2473010e+03
   1.9739140e+02   2.2842660e+03
   1.9787350e+02   2.3121520e+03
   1.9835560e+02   2.3168710e+03
   1.9883780e+02   2.2951560e+03
   1.9931990e+02   2.2700620e+03
   1.9980200e+02   2.2660230e+03
   2.0028410e+02   2.2874840e+03
   2.0076620e+02   2.2497190e+03
   2.0124830e+02   2.1376990e+03
   2.0173050e+02   1.9998320e+03
   2.0221260e+02   1.9152700e+03
   2.0269470e+02   1.9154140e+03
   2.0317680e+02   1.9415270e+03
   2.0365890e+02   1.9412230e+03
   2.0414100e+02   1.9041990e+03
   2.0462320e+02   1.8871450e+03
   2.0510530e+02   1.8829100e+03
   2.0558740e+02   1.8792700e+03
   2.0606950e+02   1.8563120e+03
   2.0655160e+02   1.8049610e+03
   2.0703370e+02   1.7740940e+03
   2.0751590e+02   1.7995620e+03
   2.0799800e+02   1.8979300e+03
   2.0848010e+02   1.9727540e+03
   2.0896220e+02   1.9991250e+03
   2.0944430e+02   1.9930270e+03
   2.0992640e+02   2.0373590e+03
   2.1040860e+02   2.1479020e+03
   2.1089070e+02   2.2779140e+03
   2.1137280e+02   2.3969880e+03
   2.1185490e+02   2.5143870e+03
   2.1233700e+02   2.5926680e+03
   2.1281910e+02   2.6214140e+03
   2.1330130e+02   2.6045510e+03
   2.1378340e+02   2.5818550e+03
   2.1426550e+02   2.5595550e+03
   2.1474760e+02   2.5212730e+03
   2.1522970e+02   2.4518670e+03
   2.1571180e+02   2.3455270e+03
   2.1619400e+02   2.2225510e+03
   2.1667610e+02   2.0836450e+03
   2.1715820e+02   1.9290900e+03
   2.1764030e+02   1.7724730e+03
   2.1812240e+02   1.6116370e+03
   2.1860450e+02   1.4533280e+03
   2.1908670e+02   1.3028630e+03
   2.1956880e+02   1.1586600e+03
   2.2005090e+02   1.0282580e+03
   2.2053300e+02   9.1772660e+02
   2.2101510e+02   8.2661720e+02
   2.2149720e+02   7.3543360e+02
   2.2197940e+02   6.4578520e+02
   2.2246150e+02   5.5387110e+02
   2.2294360e+02   4.5076170e+02
   2.2342570e+02   3.1901170e+02
   2.2390780e+02   2.1270700e+02
   2.2438990e+02   1.5414450e+02
   2.2487210e+02   1.4890230e+02
   2.2535420e+02   1.1050000e+02
   2.2583630e+02   1.1332030e+01
   2.2631840e+02   9.4703120e+01
   2.2680050e+02   1.3977730e+02
   2.2728270e+02   9.1972660e+01
   2.2776480e+02   4.3671880e+01
   2.2824690e+02   1.6617190e+01
   2.2872900e+02   1.2914060e+01
   2.2921110e+02   1.7320310e+01
   2.2969320e+02   3.9394530e+01
   2.3017540e+02   6.2425780e+01
   2.3065750e+02   6.0292970e+01
   2.3113960e+02   1.0660160e+01
   2.3162170e+02   2.3585940e+01
   2.3210380e+02   1.8496090e+01
   2.3258590e+02   3.7992190e+01
   2.3306810e+02   6.7648440e+01
   2.3355020e+02   6.1140620e+01
   2.3403230e+02   3.7515620e+01
   2.3451440e+02   1.6406250e+01
   2.3499650e+02   3.8281300e-01
   2.3547860e+02   1.7046880e+01
   2.3596080e+02   4.1972660e+01
   2.3644290e+02   8.0281250e+01
   2.3692500e+02   8.9261720e+01
   2.3740710e+02   3.3472660e+01
   2.3788920e+02   2.9898440e+01
   2.3837130e+02   2.1757810e+00
   2.3885350e+02   1.7500390e+02
   2.3933560e+02   3.4564840e+02
   2.3981770e+02   4.5757810e+02
   2.4029980e+02   4.9416020e+02
   2.4078190e+02   5.3526560e+02
   2.4126400e+02   5.7822270e+02
   2.4174620e+02   6.2855080e+02
   2.4222830e+02   6.9719530e+02
   2.4271040e+02   7.9053120e+02
   2.4319250e+02   8.9169140e+02
   2.4367460e+02   9.9442580e+02
   2.4415670e+02   1.0962700e+03
   2.4463890e+02   1.2098360e+03
   2.4512100e+02   1.3318550e+03
   2.4560310e+02   1.4669610e+03
   2.4608520e+02   1.6207810e+03
   2.4656730e+02   1.7878630e+03
   2.4704940e+02   1.9835430e+03
   2.4753160e+02   2.2232930e+03
   2.4801370e+02   2.5332540e+03
   2.4849580e+02   2.7944100e+03
   2.4897790e+02   2.9697810e+03
   2.4946000e+02   3.1157580e+03
   2.4994210e+02   3.3337070e+03
   2.5042430e+02   3.6517540e+03
   2.5090640e+02   3.9941450e+03
   2.5138850e+02   4.3321520e+03
   2.5187060e+02   4.6579300e+03
   2.5235270e+02   5.0099530e+03
   2.5283480e+02   5.3821840e+03
   2.5331700e+02   5.7829840e+03
   2.5379910e+02   6.2322030e+03
   2.5428120e+02   6.7446950e+03
   2.5476330e+02   7.2665900e+03
   2.5524540e+02   7.7711370e+03
   2.5572750e+02   8.2318120e+03
   2.5620970e+02   8.7636800e+03
   2.5669180e+02   9.3996990e+03
   2.5717390e+02   1.0077730e+04
   2.5765600e+02   1.0691720e+04
   2.5813810e+02   1.1231630e+04
   2.5862020e+02   1.1730400e+04
   2.5910240e+02   1.2204560e+04
   2.5958450e+02   1.2648330e+04
   2.6006660e+02   1.3079660e+04
   2.6054870e+02   1.3535040e+04
   2.6103080e+02   1.3948870e+04
   2.6151290e+02   1.4226320e+04
   2.6199510e+02   1.4366170e+04
   2.6247720e+02   1.4365120e+04
   2.6295930e+02   1.4205730e+04
   2.6344140e+02   1.3862950e+04
   2.6392350e+02   1.3472720e+04
   2.6440560e+02   1.3024160e+04
   2.6488780e+02   1.2533800e+04
   2.6536990e+02   1.2023250e+04
   2.6585200e+02   1.1492570e+04
   2.6633410e+02   1.0929630e+04
   2.6681620e+02   1.0309390e+04
   2.6729830e+02   9.6216210e+03
   2.6778050e+02   8.9760860e+03
   2.6826260e+02   8.3861290e+03
   2.6874470e+02   7.8291990e+03
   2.6922680e+02   7.2562070e+03
   2.6970890e+02   6.6485230e+03
   2.7019100e+02   6.0936370e+03
   2.7067320e+02   5.6300550e+03
   2.7115530e+02   5.2686170e+03
   2.7163740e+02   4.9138160e+03
   2.7211950e+02   4.5634100e+03
   2.7260160e+02   4.2222230e+03
   2.7308370e+02   3.9081330e+03
   2.7356590e+02   3.6212270e+03
   2.7404800e+02   3.3538480e+03
   2.7453010e+02   3.0943830e+03
   2.7501220e+02   2.8439450e+03
   2.7549430e+02   2.6495660e+03
   2.7597640e+02   2.5232270e+03
   2.7645860e+02   2.4283670e+03
   2.7694070e+02   2.3062500e+03
   2.7742280e+02   2.1531090e+03
   2.7790490e+02   2.0139730e+03
   2.7838700e+02   1.9095700e+03
   2.7886910e+02   1.8385550e+03
   2.7935130e+02   1.7728980e+03
   2.7983340e+02   1.7153630e+03
   2.8031550e+02   1.6555740e+03
   2.8079760e+02   1.5777150e+03
   2.8127980e+02   1.4815860e+03
   2.8176190e+02   1.3818480e+03
   2.8224400e+02   1.2714140e+03
   2.8272610e+02   1.1563480e+03
   2.8320820e+02   1.0965040e+03
   2.8369030e+02   1.1061560e+03
   2.8417250e+02   1.1201600e+03
   2.8465460e+02   1.0450000e+03
   2.8513670e+02   8.8925000e+02
   2.8561880e+02   7.7029300e+02
   2.8610090e+02   7.4935550e+02
   2.8658300e+02   7.9872270e+02
   2.8706520e+02   8.0032810e+02
   2.8754730e+02   7.4851170e+02
   2.8802940e+02   6.7468750e+02
   2.8851150e+02   6.0156640e+02
   2.8899360e+02   5.3573440e+02
   2.8947570e+02   5.0476950e+02
   2.8995790e+02   5.4037110e+02
   2.9044000e+02   6.0628910e+02
   2.9092210e+02   6.0186330e+02
   2.9140420e+02   5.2409770e+02
   2.9188630e+02   4.3853120e+02
   2.9236840e+02   4.0799220e+02
   2.9285060e+02   4.2465230e+02
   2.9333270e+02   4.5789840e+02
   2.9381480e+02   5.1939450e+02
   2.9429690e+02   5.7903120e+02
   2.9477900e+02   5.6182030e+02
   2.9526110e+02   4.6762500e+02
   2.9574330e+02   3.7405080e+02
   2.9622540e+02   3.6361330e+02
   2.9670750e+02   4.1262110e+02
   2.9718960e+02   4.5525780e+02
   2.9767170e+02   4.7989450e+02
   2.9815380e+02   4.8430080e+02
   2.9863600e+02   4.4654690e+02
   2.9911810e+02   3.7142580e+02
   2.9960020e+02   3.1535160e+02
   3.0008230e+02   3.4844920e+02
   3.0056440e+02   4.2830470e+02
   3.0104650e+02   4.7139060e+02
   3.0152870e+02   4.3375780e+02
   3.0201080e+02   3.7829690e+02
   3.0249290e+02   3.8495310e+02
   3.0297500e+02   4.4339060e+02
   3.0345710e+02   4.9167580e+02
   3.0393920e+02   4.6938280e+02
   3.0442140e+02   4.1789060e+02
   3.0490350e+02   3.9783200e+02
   3.0538560e+02   4.4268750e+02
   3.0586770e+02   4.9102730e+02
   3.0634980e+02   4.8204300e+02
   3.0683190e+02   4.2837500e+02
   3.0731410e+02   3.7517190e+02
   3.0779620e+02   3.4852730e+02
   3.0827830e+02   3.3548440e+02
   3.0876040e+02   3.2299220e+02
   3.0924250e+02   3.0536720e+02
   3.0972460e+02   2.9370700e+02
   3.1020680e+02   3.0436330e+02
   3.1068890e+02   3.2780470e+02
   3.1117100e+02   3.3988280e+02
   3.1165310e+02   3.2616410e+02
   3.1213520e+02   2.9844530e+02
   3.1261730e+02   2.5646480e+02
   3.1309950e+02   1.8456250e+02
   3.1358160e+02   1.4467190e+02
   3.1406370e+02   1.9473440e+02
   3.1454580e+02   2.9546880e+02
   3.1502790e+02   3.7354300e+02
   3.1551000e+02   3.9495310e+02
   3.1599220e+02   3.9078910e+02
   3.1647430e+02   3.7582030e+02
   3.1695640e+02   3.5135550e+02
   3.1743850e+02   3.1789060e+02
   3.1792060e+02   2.5182420e+02
   3.1840270e+02   1.8220700e+02
   3.1888490e+02   1.4954690e+02
   3.1936700e+02   2.0305860e+02
   3.1984910e+02   2.6166410e+02
   3.2033120e+02   2.9711720e+02
   3.2081330e+02   3.0564840e+02
   3.2129540e+02   3.0180860e+02
   3.2177760e+02   2.8691410e+02
   3.2225970e+02   2.6200390e+02
   3.2274180e+02   2.2820310e+02
   3.2322390e+02   1.5083590e+02
   3.2370600e+02   9.9363280e+01
   3.2418810e+02   1.0727730e+02
   3.2467030e+02   1.8293750e+02
   3.2515240e+02   2.2037890e+02
   3.2563450e+02   1.7230080e+02
   3.2611660e+02   1.0365230e+02
   3.2659870e+02   6.6730470e+01
   3.2708080e+02   9.5863280e+01
   3.2756300e+02   1.1672660e+02
   3.2804510e+02   1.1942970e+02
   3.2852720e+02   1.0472660e+02
   3.2900930e+02   8.7656250e+01
   3.2949140e+02   6.1617190e+01
   3.2997350e+02   3.8738280e+01
   3.3045570e+02   2.8472660e+01
   3.3093780e+02   4.6703120e+01
   3.3141990e+02   4.9109380e+01
   3.3190200e+02   2.4914060e+01
   3.3238410e+02   1.8843750e+01
   3.3286620e+02   4.9617190e+01
   3.3334840e+02   7.2945310e+01
   3.3383050e+02   7.5054690e+01
   3.3431260e+02   3.7445310e+01
   3.3479470e+02   6.8019530e+01
   3.3527680e+02   1.2110940e+02
   3.3575890e+02   9.9867190e+01
   3.3624110e+02   3.1652340e+01
   3.3672320e+02   1.5371090e+01
   3.3720530e+02   3.6996090e+01
   3.3768740e+02   4.9496090e+01
   3.3816950e+02   6.2437500e+01
   3.3865160e+02   7.8074220e+01
   3.3913380e+02   7.1425780e+01
   3.3961590e+02   3.2894530e+01
   3.4009800e+02   1.2886720e+01
   3.4058010e+02   1.6726560e+01
   3.4106220e+02   2.5843750e+01
   3.4154430e+02   6.4898440e+01
   3.4202650e+02   8.0515620e+01
   3.4250860e+02   7.4359380e+01
   3.4299070e+02   5.5574220e+01
   3.4347280e+02   2.1250000e+01
   3.4395490e+02   1.2382810e+01
   3.4443700e+02   2.5835940e+01
   3.4491920e+02   1.9707030e+01
   3.4540130e+02   9.2187500e-01
   3.4588340e+02   5.2007810e+01
   3.4636550e+02   1.1176950e+02
   3.4684760e+02   1.1356640e+02
   3.4732970e+02   5.6113280e+01
   3.4781190e+02   1.5371090e+01
   3.4829400e+02   6.7398440e+01
   3.4877610e+02   1.0027340e+02
   3.4925820e+02   1.1137500e+02
   3.4974030e+02   8.9667970e+01
   3.5022250e+02   5.7835940e+01
   3.5070460e+02   4.1253910e+01
   3.5118670e+02   4.0886720e+01
   3.5166880e+02   6.3054690e+01
   3.5215090e+02   1.4857420e+02
   3.5263310e+02   2.5036720e+02
   3.5311520e+02   2.8987500e+02
   3.5359730e+02   2.2232810e+02
   3.5407940e+02   1.4013280e+02
   3.5456150e+02   1.2619530e+02
   3.5504360e+02   1.6558200e+02
   3.5552580e+02   2.1283590e+02
   3.5600790e+02   2.3479300e+02
   3.5649000e+02   2.5823050e+02
   3.5697210e+02   3.1585550e+02
   3.5745420e+02   4.2913280e+02
   3.5793630e+02   5.2095310e+02
   3.5841850e+02   5.2194920e+02
   3.5890060e+02   4.7499220e+02
   3.5938270e+02   4.5423050e+02
   3.5986480e+02   4.8583980e+02
   3.6034690e+02   5.5324220e+02
   3.6082900e+02   6.7183200e+02
   3.6131120e+02   8.5787110e+02
   3.6179330e+02   9.8442970e+02
   3.6227540e+02   9.5742190e+02
   3.6275750e+02   8.7180470e+02
   3.6323960e+02   8.3078910e+02
   3.6372170e+02   8.9117190e+02
   3.6420390e+02   9.6488280e+02
   3.6468600e+02   1.0366990e+03
   3.6516810e+02   1.1062890e+03
   3.6565020e+02   1.1604410e+03
   3.6613230e+02   1.1785980e+03
   3.6661440e+02   1.1930980e+03
   3.6709660e+02   1.2264610e+03
   3.6757870e+02   1.2832810e+03
   3.6806080e+02   1.3537970e+03
   3.6854290e+02   1.4496800e+03
   3.6902500e+02   1.5631910e+03
   3.6950710e+02   1.6527970e+03
   3.6998930e+02   1.7209450e+03
   3.7047140e+02   1.7621250e+03
   3.7095350e+02   1.7633400e+03
   3.7143560e+02   1.6733950e+03
   3.7191770e+02   1.6653520e+03
   3.7239980e+02   1.7803980e+03
   3.7288200e+02   1.9591680e+03
   3.7336410e+02   2.0611410e+03
   3.7384620e+02   2.0547150e+03
   3.7432830e+02   2.0528520e+03
   3.7481040e+02   2.1028010e+03
   3.7529250e+02   2.2103750e+03
   3.7577470e+02   2.3049960e+03
   3.7625680e+02   2.3766800e+03
   3.7673890e+02   2.4573160e+03
   3.7722100e+02   2.6263550e+03
   3.7770310e+02   2.8971680e+03
   3.7818520e+02   3.0565780e+03
   3.7866740e+02   2.9910430e+03
   3.7914950e+02   2.7649920e+03
   3.7963160e+02   2.6535660e+03
   3.8011370e+02   2.6634570e+03
   3.8059580e+02   2.7333520e+03
   3.8107790e+02   2.8420310e+03
   3.8156010e+02   2.9749180e+03
   3.8204220e+02   3.0423590e+03
   3.8252430e+02   2.9994020e+03
   3.8300640e+02   2.9170620e+03
   3.8348850e+02   2.9250000e+03
   3.8397060e+02   3.0119650e+03
   3.8445280e+02   3.0920080e+03
   3.8493490e+02   3.0836680e+03
   3.8541700e+02   3.0366990e+03
   3.8589910e+02   3.0371800e+03
   3.8638120e+02   3.1059340e+03
   3.8686330e+02   3.1980660e+03
   3.8734550e+02   3.2707460e+03
   3.8782760e+02   3.3343400e+03
   3.8830970e+02   3.4146250e+03
   3.8879180e+02   3.5362070e+03
   3.8927390e+02   3.6711130e+03
   3.8975600e+02   3.8043010e+03
   3.9023820e+02   3.9350390e+03
   3.9072030e+02   4.0407850e+03
   3.9120240e+02   4.0930470e+03
   3.9168450e+02   4.1210740e+03
   3.9216660e+02   4.1620350e+03
   3.9264870e+02   4.2204340e+03
   3.9313090e+02   4.2880700e+03
   3.9361300e+02   4.3626330e+03
   3.9409510e+02   4.4445390e+03
   3.9457720e+02   4.5342700e+03
   3.9505930e+02   4.6506560e+03
   3.9554140e+02   4.7639730e+03
   3.9602360e+02   4.8539260e+03
   3.9650570e+02   4.9084020e+03
   3.9698780e+02   4.9517070e+03
   3.9746990e+02   4.9736130e+03
   3.9795200e+02   4.9849920e+03
   3.9843410e+02   5.0185660e+03
   3.9891630e+02   5.0894770e+03
   3.9939840e+02   5.1630470e+03
   3.9988050e+02   5.2281480e+03
   4.0036260e+02   5.2811990e+03
   4.0084470e+02   5.3508240e+03
   4.0132680e+02   5.4533200e+03
   4.0180900e+02   5.5546990e+03
   4.0229110e+02   5.6045390e+03
   4.0277320e+02   5.5926910e+03
   4.0325530e+02   5.5522110e+03
   4.0373740e+02   5.4800350e+03
   4.0421950e+02   5.3781170e+03
   4.0470170e+02   5.3019960e+03
   4.0518380e+02   5.2625780e+03
   4.0566590e+02   5.2302070e+03
   4.0614800e+02   5.1702540e+03
   4.0663010e+02   5.0817930e+03
   4.0711220e+02   5.0076840e+03
   4.0759440e+02   4.9641410e+03
   4.0807650e+02   4.9305900e+03
   4.0855860e+02   4.8546330e+03
   4.0904070e+02   4.7368590e+03
   4.0952280e+02   4.6089610e+03
   4.1000490e+02   4.4821800e+03
   4.1048710e+02   4.3620900e+03
   4.1096920e+02   4.2715160e+03
   4.1145130e+02   4.2206370e+03
   4.1193340e+02   4.1667730e+03
   4.1241550e+02   4.0428550e+03
   4.1289760e+02   3.8721990e+03
   4.1337980e+02   3.7257730e+03
   4.1386190e+02   3.6638320e+03
   4.1434400e+02   3.6241170e+03
   4.1482610e+02   3.5366020e+03
   4.1530820e+02   3.3996640e+03
   4.1579030e+02   3.2582070e+03
   4.1627250e+02   3.1213320e+03
   4.1675460e+02   3.0030080e+03
   4.1723670e+02   2.9190700e+03
   4.1771880e+02   2.9288790e+03
   4.1820090e+02   2.9157660e+03
   4.1868300e+02   2.8062420e+03
   4.1916520e+02   2.6240200e+03
   4.1964730e+02   2.4590430e+03
   4.2012940e+02   2.3304300e+03
   4.2061150e+02   2.2339260e+03
   4.2109370e+02   2.1746680e+03
   4.2157580e+02   2.1912420e+03
   4.2205790e+02   2.1644140e+03
   4.2254000e+02   2.0353160e+03
   4.2302210e+02   1.8626600e+03
   4.2350420e+02   1.7411880e+03
   4.2398640e+02   1.7246090e+03
   4.2446850e+02   1.7031760e+03
   4.2495060e+02   1.6476800e+03
   4.2543270e+02   1.5544020e+03
   4.2591480e+02   1.4794300e+03
   4.2639690e+02   1.4267070e+03
   4.2687910e+02   1.3877580e+03
   4.2736120e+02   1.3580040e+03
   4.2784330e+02   1.3420080e+03
   4.2832540e+02   1.3236290e+03
   4.2880750e+02   1.3105660e+03
   4.2928960e+02   1.2895230e+03
   4.2977180e+02   1.1940900e+03
   4.3025390e+02   1.0035740e+03
   4.3073600e+02   8.4659380e+02
   4.3121810e+02   8.2282810e+02
   4.3170020e+02   9.2162890e+02
   4.3218230e+02   9.8562110e+02
   4.3266450e+02   1.0050940e+03
   4.3314660e+02   9.9687110e+02
   4.3362870e+02   9.9076560e+02
   4.3411080e+02   9.8043750e+02
   4.3459290e+02   9.3113670e+02
   4.3507500e+02   7.8748440e+02
   4.3555720e+02   6.1373440e+02
   4.3603930e+02   5.2567580e+02
   4.3652140e+02   5.2093750e+02
   4.3700350e+02   5.4930470e+02
   4.3748560e+02   6.0217190e+02
   4.3796770e+02   6.5330860e+02
   4.3844990e+02   6.6151170e+02
   4.3893200e+02   6.0114060e+02
   4.3941410e+02   5.2205470e+02
   4.3989620e+02   4.4388280e+02
   4.4037830e+02   3.7479300e+02
   4.4086040e+02   3.3305860e+02
   4.4134260e+02   3.7129690e+02
   4.4182470e+02   4.0738670e+02
   4.4230680e+02   3.8672270e+02
   4.4278890e+02   2.8595310e+02
   4.4327100e+02   2.1137110e+02
   4.4375310e+02   2.2210160e+02
   4.4423530e+02   2.6046090e+02
   4.4471740e+02   2.6466410e+02
   4.4519950e+02   1.7458980e+02
   4.4568160e+02   1.0573830e+02
   4.4616370e+02   8.7957030e+01
   4.4664580e+02   1.1454690e+02
   4.4712800e+02   1.3222660e+02
   4.4761010e+02   1.5482030e+02
   4.4809220e+02   1.5419530e+02
   4.4857430e+02   1.0320310e+02
   4.4905640e+02   4.4773440e+01
   4.4953850e+02   1.1153520e+02
   4.5002070e+02   6.4167970e+01
   4.5050280e+02   4.4406250e+01
   4.5098490e+02   1.1303910e+02
   4.5146700e+02   1.3461330e+02
   4.5194910e+02   1.3738670e+02
   4.5243120e+02   1.2426950e+02
   4.5291340e+02   1.0001560e+02
   4.5339550e+02   9.9148440e+01
   4.5387760e+02   1.2635160e+02
   4.5435970e+02   1.4680860e+02
   4.5484180e+02   1.1300390e+02
   4.5532390e+02   3.9863280e+01
   4.5580610e+02   7.8164060e+00
   4.5628820e+02   9.8554690e+00
   4.5677030e+02   2.2734380e+00
   4.5725240e+02   2.5128910e+01
   4.5773450e+02   7.5671880e+01
   4.5821660e+02   9.6277340e+01
   4.5869880e+02   2.1816410e+01
   4.5918090e+02   8.3339840e+01
   4.5966300e+02   1.4485550e+02
   4.6014510e+02   1.5055080e+02
   4.6062720e+02   1.4051560e+02
   4.6110930e+02   1.3873830e+02
   4.6159150e+02   1.3769920e+02
   4.6207360e+02   1.2650780e+02
   4.6255570e+02   8.0375000e+01
   4.6303780e+02   4.5816410e+01
   4.6351990e+02   4.8757810e+01
   4.6400200e+02   8.3039060e+01
   4.6448420e+02   1.0671480e+02
   4.6496630e+02   8.7812500e+01
   4.6544840e+02   7.4382810e+01
   4.6593050e+02   9.4640620e+01
   4.6641260e+02   1.8686330e+02
   4.6689470e+02   2.4727730e+02
   4.6737690e+02   2.5966020e+02
   4.6785900e+02   2.4676560e+02
   4.6834110e+02   2.4744530e+02
   4.6882320e+02   2.7284770e+02
   4.6930530e+02   2.9064450e+02
   4.6978740e+02   2.9414060e+02
   4.7026960e+02   2.8247270e+02
   4.7075170e+02   2.4530080e+02
   4.7123380e+02   1.6920700e+02
   4.7171590e+02   1.1076170e+02
   4.7219800e+02   1.3877730e+02
   4.7268010e+02   2.5043750e+02
   4.7316230e+02   3.1447660e+02
   4.7364440e+02   2.9948830e+02
   4.7412650e+02   1.5716410e+02
   4.7460860e+02   2.8559380e+02
   4.7509070e+02   3.6005470e+02
   4.7557280e+02   3.8395700e+02
   4.7605500e+02   2.0387110e+02
   4.7653710e+02   2.8762890e+02
   4.7701920e+02   2.6489840e+02
   4.7750130e+02   2.3759380e+02
   4.7798340e+02   3.5762500e+02
   4.7846550e+02   2.0616800e+02
   4.7894770e+02   3.2389450e+02
   4.7942980e+02   3.3419920e+02
   4.7991190e+02   3.9368750e+02
   4.8039400e+02   3.4669530e+02
   4.8087610e+02   3.3258200e+02
   4.8135820e+02   4.2497660e+02
   4.8184040e+02   4.5887890e+02
   4.8232250e+02   3.9983980e+02
   4.8280460e+02   4.6240620e+02
   4.8328670e+02   3.0721090e+02
   4.8376880e+02   3.4307420e+02
   4.8425090e+02   4.6137110e+02
   4.8473310e+02   4.2164060e+02
   4.8521520e+02   5.4520700e+02
   4.8569730e+02   6.0325780e+02
   4.8617940e+02   5.6678520e+02
   4.8666150e+02   5.1190230e+02
   4.8714360e+02   4.4059770e+02
   4.8762580e+02   3.5839840e+02
   4.8810790e+02   2.8532810e+02
   4.8859000e+02   2.1150780e+02
   4.8907210e+02   1.7603910e+02
   4.8955420e+02   2.2835550e+02
   4.9003630e+02   3.7020700e+02
   4.9051850e+02   4.2235160e+02
   4.9100060e+02   3.6434380e+02
   4.9148270e+02   2.6739450e+02
   4.9196480e+02   2.2012500e+02
   4.9244700e+02   2.1525390e+02
   4.9292910e+02   2.1320310e+02
   4.9341120e+02   1.9206640e+02
   4.9389330e+02   1.7335160e+02
   4.9437540e+02   1.2171090e+02
   4.9485750e+02   2.4068360e+02
   4.9533970e+02   3.0555470e+02
   4.9582180e+02   3.1921480e+02
   4.9630390e+02   1.2833200e+02
   4.9678600e+02   2.0151950e+02
   4.9726810e+02   1.6884380e+02
   4.9775020e+02   1.3180860e+02
   4.9823240e+02   2.4209380e+02
   4.9871450e+02   8.1769530e+01
   4.9919660e+02   1.9220700e+02
   4.9967870e+02   1.9422660e+02
   5.0016080e+02   2.4379690e+02
   5.0064290e+02   1.8686720e+02
   5.0112510e+02   1.6281250e+02
   5.0160720e+02   2.4524220e+02
   5.0208930e+02   2.6866800e+02
   5.0257140e+02   1.9938670e+02
   5.0305350e+02   2.5195310e+02
   5.0353560e+02   1.1492970e+02
   5.0401780e+02   1.3971090e+02
   5.0449990e+02   2.0315620e+02
   5.0498200e+02   2.7073050e+02
   5.0546410e+02   2.9023830e+02
   5.0594620e+02   2.5648440e+02
   5.0642830e+02   1.9913670e+02
   5.0691050e+02   1.1366020e+02
   5.0739260e+02   1.0812500e+01
   5.0787470e+02   5.1652340e+01
   5.0835680e+02   7.4226560e+01
   5.0883890e+02   7.2546880e+01
   5.0932100e+02   4.2152340e+01
   5.0980320e+02   4.4453130e+00
   5.1028530e+02   3.2808590e+01
   5.1076740e+02   3.7363280e+01
   5.1124950e+02   2.9250000e+01
   5.1173160e+02   1.7464840e+01
   5.1221370e+02   1.5937500e+00
   5.1269590e+02   1.9394530e+01
   5.1317800e+02   7.5750000e+01
   5.1366010e+02   1.1276950e+02
   5.1414220e+02   7.0535160e+01
   5.1462430e+02   3.6851560e+01
   5.1510640e+02   1.0919920e+02
   5.1558860e+02   7.9390620e+01
   5.1607070e+02   2.0554690e+01
   5.1655280e+02   2.1246090e+01
   5.1703490e+02   4.8179690e+01
   5.1751700e+02   5.3402340e+01
   5.1799910e+02   2.3707030e+01
   5.1848130e+02   2.3218750e+01
   5.1896340e+02   6.7117190e+01
   5.1944550e+02   1.1745700e+02
   5.1992760e+02   1.4685550e+02
   5.2040970e+02   1.3828910e+02
   5.2089180e+02   1.0085160e+02
   5.2137400e+02   1.0929690e+02
   5.2185610e+02   1.7958590e+02
   5.2233820e+02   2.4077730e+02
   5.2282030e+02   2.3930860e+02
   5.2330240e+02   1.8114450e+02
   5.2378450e+02   1.4850000e+02
   5.2426670e+02   1.4196480e+02
   5.2474880e+02   1.5115230e+02
   5.2523090e+02   1.6859770e+02
   5.2571300e+02   1.8944140e+02
   5.2619510e+02   1.9478520e+02
   5.2667720e+02   1.5984770e+02
   5.2715940e+02   1.2257030e+02
   5.2764150e+02   1.3870700e+02
   5.2812360e+02   1.9555080e+02
   5.2860570e+02   2.3837500e+02
   5.2908780e+02   2.1676950e+02
   5.2956990e+02   1.8103520e+02
   5.3005210e+02   1.7195700e+02
   5.3053420e+02   2.0220700e+02
   5.3101630e+02   2.2544140e+02
   5.3149840e+02   2.2849220e+02
   5.3198050e+02   2.2152730e+02
   5.3246260e+02   2.0951560e+02
   5.3294480e+02   1.5994530e+02
   5.3342690e+02   1.3678520e+02
   5.3390900e+02   1.5720310e+02
   5.3439110e+02   2.1137110e+02
   5.3487320e+02   2.5819920e+02
   5.3535530e+02   3.0023830e+02
   5.3583750e+02   3.2930860e+02
   5.3631960e+02   3.4118750e+02
   5.3680170e+02   3.3636720e+02
   5.3728380e+02   3.3263670e+02
   5.3776590e+02   3.2765620e+02
   5.3824800e+02   3.1783980e+02
   5.3873020e+02   2.5376590e+02
   5.3921230e+02   2.7243740e+02
   5.3969440e+02   2.7910730e+02
   5.4017650e+02   2.7442170e+02
   5.4065860e+02   2.2436920e+02
   5.4114070e+02   2.3289970e+02
   5.4162290e+02   2.1794990e+02
   5.4210500e+02   2.0204080e+02
   5.4258710e+02   2.1881530e+02
   5.4306920e+02   1.7536140e+02
   5.4355130e+02   1.9161870e+02
   5.4403340e+02   1.9371480e+02
   5.4451560e+02   2.0273830e+02
   5.4499770e+02   2.1562500e+02
   5.4547980e+02   2.2955860e+02
   5.4596190e+02   2.4042580e+02
   5.4644400e+02   2.3760160e+02
   5.4692610e+02   2.4631250e+02
   5.4740830e+02   2.8113670e+02
   5.4789040e+02   3.2796480e+02
   5.4837250e+02   3.5972270e+02
   5.4885460e+02   3.6431640e+02
   5.4933670e+02   3.7576560e+02
   5.4981880e+02   4.1292970e+02
   5.5030100e+02   4.6992970e+02
   5.5078310e+02   4.7116800e+02
   5.5126520e+02   4.0307030e+02
   5.5174730e+02   3.2400780e+02
   5.5222940e+02   2.6842970e+02
   5.5271150e+02   2.3742580e+02
   5.5319370e+02   2.4092190e+02
   5.5367580e+02   2.8796090e+02
   5.5415790e+02   3.3454690e+02
   5.5464000e+02   3.2418360e+02
   5.5512210e+02   2.6986720e+02
   5.5560420e+02   2.0907810e+02
   5.5608640e+02   1.3298050e+02
   5.5656850e+02   7.8386720e+01
   5.5705060e+02   1.0481640e+02
   5.5753270e+02   1.9157810e+02
   5.5801480e+02   2.6585550e+02
   5.5849690e+02   2.8798050e+02
   5.5897910e+02   2.8906640e+02
   5.5946120e+02   2.8034380e+02
   5.5994330e+02   2.5553520e+02
   5.6042540e+02   2.5645700e+02
   5.6090750e+02   3.2456250e+02
   5.6138960e+02   4.0189840e+02
   5.6187180e+02   4.3932030e+02
   5.6235390e+02   3.9407420e+02
   5.6283600e+02   3.8492970e+02
   5.6331810e+02   4.4037890e+02
   5.6380020e+02   5.2704300e+02
   5.6428230e+02   5.5725780e+02
   5.6476450e+02   5.1486720e+02
   5.6524660e+02   4.8315230e+02
   5.6572870e+02   5.1377730e+02
   5.6621080e+02   5.8521880e+02
   5.6669290e+02   5.6459380e+02
   5.6717500e+02   4.4969920e+02
   5.6765720e+02   3.2942970e+02
   5.6813930e+02   2.7628910e+02
   5.6862140e+02   2.6890230e+02
   5.6910350e+02   2.7000000e+02
   5.6958560e+02   2.7573830e+02
   5.7006770e+02   2.8126170e+02
   5.7054990e+02   2.8644530e+02
   5.7103200e+02   2.8605470e+02
   5.7151410e+02   2.7666800e+02
   5.7199620e+02   2.4524610e+02
   5.7247830e+02   2.2838280e+02
   5.7296040e+02   2.4563670e+02
   5.7344260e+02   2.8631250e+02
   5.7392470e+02   3.0666800e+02
   5.7440680e+02   2.8234770e+02
   5.7488890e+02   2.5116020e+02
   5.7537100e+02   2.2551560e+02
   5.7585310e+02   2.0538670e+02
   5.7633530e+02   2.0927730e+02
   5.7681740e+02   2.5887110e+02
   5.7729950e+02   2.9637500e+02
   5.7778160e+02   2.4973440e+02
   5.7826370e+02   1.0675780e+02
   5.7874580e+02   8.0976560e+00
   5.7922800e+02   1.6472660e+01
   5.7971010e+02   2.7304690e+00
   5.8019220e+02   2.7890620e+01
   5.8067430e+02   8.0375000e+01
   5.8115640e+02   9.3195310e+01
   5.8163850e+02   1.9906250e+01
   5.8212070e+02   1.6126560e+02
   5.8260280e+02   1.8198050e+02
   5.8308490e+02   9.6707030e+01
   5.8356700e+02   2.3210940e+01
   5.8404910e+02   5.0269530e+01
   5.8453130e+02   1.0373050e+02
   5.8501340e+02   1.2387890e+02
   5.8549550e+02   9.0781250e+01
   5.8597760e+02   6.3886720e+01
   5.8645970e+02   5.7640620e+01
   5.8694180e+02   6.4507810e+01
   5.8742400e+02   7.7882810e+01
   5.8790610e+02   1.3388280e+02
   5.8838820e+02   1.3823440e+02
   5.8887030e+02   5.4015620e+01
   5.8935240e+02   8.1398440e+01
   5.8983450e+02   1.5404690e+02
   5.9031670e+02   1.5120310e+02
   5.9079880e+02   1.3528120e+02
   5.9128090e+02   1.3293750e+02
   5.9176300e+02   1.3915620e+02
   5.9224510e+02   1.2778120e+02
   5.9272720e+02   9.8195310e+01
   5.9320940e+02   7.5695310e+01
   5.9369150e+02   1.0500780e+02
   5.9417360e+02   1.5132030e+02
   5.9465570e+02   1.3636720e+02
   5.9513780e+02   3.3570310e+01
   5.9561990e+02   6.6625000e+01
   5.9610210e+02   8.0078120e+01
   5.9658420e+02   5.2062500e+01
   5.9706630e+02   4.6773440e+01
   5.9754850e+02   1.2819530e+02
   5.9803060e+02   1.9200780e+02
   5.9851270e+02   2.0053910e+02
   5.9899480e+02   1.6235940e+02
   5.9947690e+02   1.1628910e+02
   5.9995900e+02   4.7273440e+01
   6.0044120e+02   8.6250000e+00
   6.0092330e+02   4.4164060e+01
   6.0140540e+02   6.0468750e+01
   6.0188750e+02   2.8351560e+01
   6.0236960e+02   7.0000000e+01
   6.0285170e+02   1.7241410e+02
   6.0333390e+02   2.1683590e+02
   6.0381600e+02   2.0876560e+02
   6.0429810e+02   2.1490620e+02
   6.0478020e+02   2.4600780e+02
   6.0526230e+02   2.7964840e+02
   6.0574440e+02   2.6763280e+02
   6.0622660e+02   2.3331250e+02
   6.0670870e+02   2.3979690e+02
   6.0719080e+02   3.5246880e+02
   6.0767290e+02   4.7147660e+02
   6.0815500e+02   5.1270310e+02
   6.0863710e+02   4.9396880e+02
   6.0911930e+02   4.7594530e+02
   6.0960140e+02   4.8872660e+02
   6.1008350e+02   5.0256250e+02
   6.1056560e+02   4.9292190e+02
   6.1104770e+02   4.5018750e+02
   6.1152980e+02   4.5313280e+02
   6.1201200e+02   5.4131250e+02
   6.1249410e+02   6.3794530e+02
   6.1297620e+02   6.8500780e+02
   6.1345830e+02   6.5759380e+02
   6.1394040e+02   6.7485160e+02
   6.1442250e+02   7.5693750e+02
   6.1490470e+02   8.5767970e+02
   6.1538680e+02   8.9961720e+02
   6.1586890e+02   8.8728120e+02
   6.1635100e+02   8.9496880e+02
   6.1683310e+02   9.5139060e+02
   6.1731520e+02   1.0294450e+03
   6.1779740e+02   1.0982580e+03
   6.1827950e+02   1.1550780e+03
   6.1876160e+02   1.1947420e+03
   6.1924370e+02   1.2015940e+03
   6.1972580e+02   1.1992970e+03
   6.2020790e+02   1.1960160e+03
   6.2069010e+02   1.1929060e+03
   6.2117220e+02   1.2214140e+03
   6.2165430e+02   1.3326560e+03
   6.2213640e+02   1.4513280e+03
   6.2261850e+02   1.5251800e+03
   6.2310060e+02   1.5293360e+03
   6.2358280e+02   1.5383200e+03
   6.2406490e+02   1.5440000e+03
   6.2454700e+02   1.5619610e+03
   6.2502910e+02   1.6199690e+03
   6.2551120e+02   1.7304690e+03
   6.2599330e+02   1.8122030e+03
   6.2647550e+02   1.8427420e+03
   6.2695760e+02   1.8457500e+03
   6.2743970e+02   1.8719920e+03
   6.2792180e+02   1.9176020e+03
   6.2840390e+02   1.9532890e+03
   6.2888600e+02   1.9684060e+03
   6.2936820e+02   1.9434150e+03
   6.2985030e+02   1.9856050e+03
   6.3033240e+02   2.0125490e+03
   6.3081450e+02   2.0248890e+03
   6.3129660e+02   1.9886140e+03
   6.3177870e+02   2.0076730e+03
   6.3226090e+02   2.0000070e+03
   6.3274300e+02   1.9881310e+03
   6.3322510e+02   2.0056910e+03
   6.3370720e+02   1.9597740e+03
   6.3418930e+02   1.9703220e+03
   6.3467140e+02   1.9537840e+03
   6.3515360e+02   1.9449020e+03
   6.3563570e+02   1.9091570e+03
   6.3611780e+02   1.8774580e+03
   6.3659990e+02   1.8661410e+03
   6.3708200e+02   1.8330230e+03
   6.3756410e+02   1.7738050e+03
   6.3804630e+02   1.7215230e+03
   6.3852840e+02   1.6931410e+03
   6.3901050e+02   1.6834530e+03
   6.3949260e+02   1.7019840e+03
   6.3997470e+02   1.7357270e+03
   6.4045680e+02   1.7358520e+03
   6.4093900e+02   1.6358830e+03
   6.4142110e+02   1.5130230e+03
   6.4190320e+02   1.4476880e+03
   6.4238530e+02   1.4449450e+03
   6.4286740e+02   1.4333750e+03
   6.4334950e+02   1.3833830e+03
   6.4383170e+02   1.3153360e+03
   6.4431380e+02   1.2379450e+03
   6.4479590e+02   1.1128360e+03
   6.4527800e+02   1.0612270e+03
   6.4576010e+02   1.1292660e+03
   6.4624220e+02   1.2302500e+03
   6.4672440e+02   1.2596480e+03
   6.4720650e+02   1.1986880e+03
   6.4768860e+02   1.1337890e+03
   6.4817070e+02   1.0859300e+03
   6.4865280e+02   1.0428750e+03
   6.4913490e+02   9.6017190e+02
   6.4961710e+02   8.4756250e+02
   6.5009920e+02   7.7574220e+02
   6.5058130e+02   8.2578120e+02
   6.5106340e+02   9.0532030e+02
   6.5154550e+02   8.9531250e+02
   6.5202760e+02   8.0686720e+02
   6.5250980e+02   7.0633590e+02
   6.5299190e+02   6.0243750e+02
   6.5347400e+02   5.2053910e+02
   6.5395610e+02   4.8324220e+02
   6.5443820e+02   5.0101560e+02
   6.5492030e+02   5.1351560e+02
   6.5540250e+02   5.2703120e+02
   6.5588460e+02   5.2190620e+02
   6.5636670e+02   4.7299220e+02
   6.5684880e+02   3.3939840e+02
   6.5733090e+02   2.9917190e+02
   6.5781300e+02   3.9377340e+02
   6.5829520e+02   5.1786720e+02
   6.5877730e+02   4.9610160e+02
   6.5925940e+02   3.4494530e+02
   6.5974150e+02   2.6593750e+02
   6.6022360e+02   3.4601560e+02
   6.6070570e+02   4.6207030e+02
   6.6118790e+02   4.0935160e+02
   6.6167000e+02   2.4529690e+02
   6.6215210e+02   1.3049220e+02
   6.6263420e+02   1.8541410e+02
   6.6311630e+02   2.7763280e+02
   6.6359840e+02   3.3200780e+02
   6.6408060e+02   3.4998440e+02
   6.6456270e+02   3.6358590e+02
   6.6504480e+02   3.9057030e+02
   6.6552690e+02   4.0462500e+02
   6.6600900e+02   3.9207030e+02
   6.6649110e+02   3.4871880e+02
   6.6697330e+02   3.1130470e+02
   6.6745540e+02   2.8670310e+02
   6.6793750e+02   2.5431250e+02
   6.6841960e+02   1.7535940e+02
   6.6890170e+02   5.3593750e+01
   6.6938390e+02   2.4000000e+01
   6.6986600e+02   1.1323440e+02
   6.7034810e+02   2.2530470e+02
   6.7083020e+02   2.2734380e+02
   6.7131230e+02   1.6957030e+02
   6.7179440e+02   1.6677340e+02
   6.7227660e+02   2.9723440e+02
   6.7275870e+02   4.2155470e+02
   6.7324080e+02   4.3163280e+02
   6.7372290e+02   3.7255470e+02
   6.7420500e+02   3.3349220e+02
   6.7468710e+02   3.2596880e+02
   6.7516930e+02   3.5626560e+02
   6.7565140e+02   4.5936720e+02
   6.7613350e+02   6.1150780e+02
   6.7661560e+02   6.7793750e+02
   6.7709770e+02   6.1610160e+02
   6.7757980e+02   5.6542190e+02
   6.7806200e+02   5.9244530e+02
   6.7854410e+02   6.8885940e+02
   6.7902620e+02   7.6857030e+02
   6.7950830e+02   8.3118750e+02
   6.7999040e+02   8.9746090e+02
   6.8047250e+02   9.8460940e+02
   6.8095470e+02   1.0863360e+03
   6.8143680e+02   1.2010390e+03
   6.8191890e+02   1.3306410e+03
   6.8240100e+02   1.4415780e+03
   6.8288310e+02   1.4610160e+03
   6.8336520e+02   1.4735940e+03
   6.8384740e+02   1.5678050e+03
   6.8432950e+02   1.8328200e+03
   6.8481160e+02   2.0701800e+03
   6.8529370e+02   2.2487810e+03
   6.8577580e+02   2.3859300e+03
   6.8625790e+02   2.4955390e+03
   6.8674010e+02   2.5667970e+03
   6.8722220e+02   2.6339690e+03
   6.8770430e+02   2.6854920e+03
   6.8818640e+02   2.7521800e+03
   6.8866850e+02   2.9240860e+03
   6.8915060e+02   3.1955000e+03
   6.8963280e+02   3.4741330e+03
   6.9011490e+02   3.7237730e+03
   6.9059700e+02   3.9563830e+03
   6.9107910e+02   4.1968050e+03
   6.9156120e+02   4.4412270e+03
   6.9204330e+02   4.6626480e+03
   6.9252550e+02   4.8273750e+03
   6.9300760e+02   4.9858750e+03
   6.9348970e+02   5.1743200e+03
   6.9397180e+02   5.3985860e+03
   6.9445390e+02   5.6127340e+03
   6.9493600e+02   5.8157500e+03
   6.9541820e+02   6.0016020e+03
   6.9590030e+02   6.1635000e+03
   6.9638240e+02   6.2865470e+03
   6.9686450e+02   6.4530620e+03
   6.9734660e+02   6.6892660e+03
   6.9782870e+02   6.9000550e+03
   6.9831090e+02   6.9539380e+03
   6.9879300e+02   6.8817420e+03
   6.9927510e+02   6.8498520e+03
   6.9975720e+02   6.8935780e+03
   7.0023930e+02   6.9590230e+03
   7.0072140e+02   7.0071250e+03
   7.0120360e+02   7.0348120e+03
   7.0168570e+02   7.0379530e+03
   7.0216780e+02   7.0601560e+03
   7.0264990e+02   7.0048750e+03
   7.0313200e+02   6.7781480e+03
   7.0361410e+02   6.4483050e+03
   7.0409630e+02   6.1897420e+03
   7.0457840e+02   6.0838280e+03
   7.0506050e+02   5.9361640e+03
   7.0554260e+02   5.6953200e+03
   7.0602470e+02   5.3808200e+03
   7.0650680e+02   5.0907580e+03
   7.0698900e+02   4.8293670e+03
   7.0747110e+02   4.5453670e+03
   7.0795320e+02   4.1860390e+03
   7.0843530e+02   3.7914920e+03
   7.0891740e+02   3.4700700e+03
   7.0939950e+02   3.2183120e+03
   7.0988170e+02   3.0168590e+03
   7.1036380e+02   2.8984920e+03
   7.1084590e+02   2.7964060e+03
   7.1132800e+02   2.6526640e+03
   7.1181010e+02   2.4563830e+03
   7.1229220e+02   2.2511480e+03
   7.1277440e+02   2.0188980e+03
   7.1325650e+02   1.8033280e+03
   7.1373860e+02   1.6309300e+03
   7.1422070e+02   1.5135860e+03
   7.1470280e+02   1.4111410e+03
   7.1518490e+02   1.3286410e+03
   7.1566710e+02   1.2506640e+03
   7.1614920e+02   1.1534300e+03
   7.1663130e+02   1.0399920e+03
   7.1711340e+02   9.4163280e+02
   7.1759550e+02   8.7045310e+02
   7.1807760e+02   7.9639060e+02
   7.1855980e+02   6.5129690e+02
   7.1904190e+02   4.8157030e+02
   7.1952400e+02   3.8010940e+02
   7.2000610e+02   4.5838280e+02
   7.2048820e+02   5.1553910e+02
   7.2097030e+02   4.0985160e+02
   7.2145250e+02   2.1942190e+02
   7.2193460e+02   1.2243750e+02
   7.2241670e+02   2.5730470e+02
   7.2289880e+02   3.3569530e+02
   7.2338090e+02   2.6703120e+02
   7.2386300e+02   1.0061720e+02
   7.2434520e+02   7.1335940e+01
   7.2482730e+02   2.0400780e+02
   7.2530940e+02   3.0803910e+02
   7.2579150e+02   2.7304690e+02
   7.2627360e+02   1.5222660e+02
   7.2675570e+02   7.8367190e+01
   7.2723790e+02   4.8101560e+01
   7.2772000e+02   3.9281250e+01
   7.2820210e+02   3.7351560e+01
   7.2868420e+02   4.4992190e+01
   7.2916630e+02   8.8796880e+01
   7.2964840e+02   1.7240620e+02
   7.3013060e+02   2.1492190e+02
   7.3061270e+02   1.5028910e+02
   7.3109480e+02   7.3335940e+01
   7.3157690e+02   3.4218750e+01
   7.3205900e+02   3.5460940e+01
   7.3254110e+02   6.9875000e+01
   7.3302330e+02   1.4328910e+02
   7.3350540e+02   2.3210940e+02
   7.3398750e+02   3.3046090e+02
   7.3446960e+02   4.3897660e+02
   7.3495170e+02   5.1089060e+02
   7.3543380e+02   5.2592970e+02
   7.3591600e+02   5.2517190e+02
   7.3639810e+02   5.6460940e+02
   7.3688020e+02   6.3189060e+02
   7.3736230e+02   7.0622660e+02
   7.3784440e+02   7.7393750e+02
   7.3832660e+02   8.3436720e+02
   7.3880870e+02   9.0473440e+02
   7.3929080e+02   9.7708590e+02
   7.3977290e+02   1.0400160e+03
   7.4025510e+02   1.0552660e+03
   7.4073720e+02   1.1154380e+03
   7.4121930e+02   1.2615470e+03
   7.4170140e+02   1.4427970e+03
   7.4218350e+02   1.5368980e+03
   7.4266560e+02   1.5422730e+03
   7.4314780e+02   1.5769770e+03
   7.4362990e+02   1.7022660e+03
   7.4411200e+02   1.8486090e+03
   7.4459410e+02   1.8979690e+03
   7.4507620e+02   1.8739840e+03
   7.4555830e+02   1.8523360e+03
   7.4604050e+02   1.8671800e+03
   7.4652260e+02   1.8980080e+03
   7.4700470e+02   1.9469530e+03
   7.4748680e+02   2.0056720e+03
   7.4796890e+02   2.0326640e+03
   7.4845100e+02   1.9752660e+03
   7.4893320e+02   1.9494610e+03
   7.4941530e+02   2.0131560e+03
   7.4989740e+02   2.1455310e+03
   7.5037950e+02   2.1961250e+03
   7.5086160e+02   2.1571950e+03
   7.5134380e+02   2.1015780e+03
   7.5182590e+02   2.0655160e+03
   7.5230800e+02   2.0487810e+03
   7.5279010e+02   2.0716720e+03
   7.5327220e+02   2.1289770e+03
   7.5375430e+02   2.1431720e+03
   7.5423650e+02   2.0154380e+03
   7.5471860e+02   1.8559220e+03
   7.5520070e+02   1.7522340e+03
   7.5568280e+02   1.7187580e+03
   7.5616490e+02   1.7120700e+03
   7.5664700e+02   1.7667730e+03
   7.5712920e+02   1.8091560e+03
   7.5761130e+02   1.7889610e+03
   7.5809340e+02   1.6520350e+03
   7.5857550e+02   1.6418700e+03
   7.5905760e+02   1.6197050e+03
   7.5953970e+02   1.5861900e+03
   7.6002190e+02   1.5072920e+03
   7.6050400e+02   1.4869870e+03
   7.6098610e+02   1.4432090e+03
   7.6146820e+02   1.3984630e+03
   7.6195030e+02   1.3864030e+03
   7.6243240e+02   1.3141180e+03
   7.6291460e+02   1.3015300e+03
   7.6339670e+02   1.2235620e+03
   7.6387880e+02   1.0546090e+03
   7.6436090e+02   9.2725780e+02
   7.6484300e+02   9.0450000e+02
   7.6532510e+02   9.0970310e+02
   7.6580730e+02   8.4760160e+02
   7.6628940e+02   6.9117190e+02
   7.6677150e+02   5.7518750e+02
   7.6725360e+02   5.2239060e+02
   7.6773570e+02   5.1130470e+02
   7.6821780e+02   5.2252340e+02
   7.6870000e+02   5.5223440e+02
   7.6918210e+02   5.6811720e+02
   7.6966420e+02   5.6266410e+02
   7.7014630e+02   5.1878910e+02
   7.7062840e+02   3.7597660e+02
   7.7111050e+02   1.9353910e+02
   7.7159270e+02   8.4375000e+01
   7.7207480e+02   1.4531250e+02
   7.7255690e+02   2.1299220e+02
   7.7303900e+02   2.6871880e+02
   7.7352110e+02   3.0088280e+02
   7.7400320e+02   2.6016410e+02
   7.7448540e+02   1.1087500e+02
   7.7496750e+02   3.0625000e+01
   7.7544960e+02   1.0627340e+02
   7.7593170e+02   2.5457030e+02
   7.7641380e+02   2.4678910e+02
   7.7689590e+02   1.1035940e+02
   7.7737810e+02   6.1640630e+00
   7.7786020e+02   9.9218800e-01
   7.7834230e+02   3.7890620e+01
   7.7882440e+02   4.1515620e+01
   7.7930650e+02   1.5296880e+01
   7.7978860e+02   1.3234380e+01
   7.8027080e+02   6.7500000e+01
   7.8075290e+02   8.7140620e+01
   7.8123500e+02   3.5156250e+01
   7.8171710e+02   7.6476560e+01
   7.8219920e+02   1.3383590e+02
   7.8268130e+02   1.3235940e+02
   7.8316350e+02   9.9148440e+01
   7.8364560e+02   2.4171880e+01
   7.8412770e+02   7.1109380e+01
   7.8460980e+02   1.2392190e+02
   7.8509190e+02   1.3366410e+02
   7.8557400e+02   1.0408590e+02
   7.8605620e+02   5.3281250e+00
   7.8653830e+02   1.2191410e+02
   7.8702040e+02   1.8900780e+02
   7.8750250e+02   2.0328910e+02
   7.8798460e+02   1.8079690e+02
   7.8846670e+02   7.9664060e+01
   7.8894890e+02   1.3484380e+01
   7.8943100e+02   6.2562500e+01
   7.8991310e+02   6.5335940e+01
   7.9039520e+02   4.9968750e+01
   7.9087730e+02   7.1562500e+00
   7.9135940e+02   1.0726560e+01
   7.9184160e+02   8.4421880e+01
   7.9232370e+02   2.2976560e+02
   7.9280580e+02   2.2467190e+02
   7.9328790e+02   5.8539060e+01
   7.9377000e+02   8.2570310e+01
   7.9425210e+02   9.7734380e+00
   7.9473430e+02   1.0825780e+02
   7.9521640e+02   1.1727340e+02
   7.9569850e+02   4.0656250e+01
   7.9618060e+02   1.2055470e+02
   7.9666270e+02   3.4062500e+01
   7.9714480e+02   6.5101560e+01
   7.9762700e+02   7.1882810e+01
   7.9810910e+02   2.9742190e+01
   7.9859120e+02   9.8687500e+01
   7.9907330e+02   1.3317970e+02
   7.9955540e+02   1.4512500e+02
   8.0003750e+02   1.3643750e+02
   8.0051970e+02   1.1746880e+02
   8.0100180e+02   1.0159380e+02
   8.0148390e+02   8.8078120e+01
   8.0196600e+02   8.3828120e+01
   8.0244810e+02   1.1692970e+02
   8.0293020e+02   1.5155470e+02
   8.0341240e+02   1.5038280e+02
   8.0389450e+02   6.3117190e+01
   8.0437660e+02   5.5250000e+01
   8.0485870e+02   1.9221880e+02
   8.0534080e+02   3.2659380e+02
   8.0582290e+02   2.8418750e+02
   8.0630510e+02   6.5804690e+01
   8.0678720e+02   1.4945310e+01
   8.0726930e+02   8.5789060e+01
   8.0775140e+02   2.2402340e+02
   8.0823350e+02   2.6769530e+02
   8.0871560e+02   2.4664060e+02
   8.0919780e+02   1.9741410e+02
   8.0967990e+02   1.1314060e+02
   8.1016200e+02   4.9875000e+01
   8.1064410e+02   3.6070310e+01
   8.1112620e+02   5.2078120e+01
   8.1160830e+02   8.0335940e+01
   8.1209050e+02   1.3216410e+02
   8.1257260e+02   1.6589840e+02
   8.1305470e+02   1.7260940e+02
   8.1353680e+02   1.7810940e+02
   8.1401890e+02   2.2360940e+02
   8.1450100e+02   2.9717190e+02
   8.1498320e+02   3.3435160e+02
   8.1546530e+02   3.2416410e+02
   8.1594740e+02   2.9795310e+02
   8.1642950e+02   2.6744530e+02
   8.1691160e+02   2.4480470e+02
   8.1739370e+02   2.5168750e+02
   8.1787590e+02   3.3815620e+02
   8.1835800e+02   3.6484380e+02
   8.1884010e+02   2.1692970e+02
   8.1932220e+02   5.3898440e+01
   8.1980430e+02   4.1500000e+01
   8.2028640e+02   2.2543750e+02
   8.2076860e+02   3.4912500e+02
   8.2125070e+02   3.8446880e+02
   8.2173280e+02   3.6927340e+02
   8.2221490e+02   3.2941410e+02
   8.2269700e+02   2.7849220e+02
   8.2317910e+02   2.5649220e+02
   8.2366130e+02   2.8458590e+02
   8.2414340e+02   3.0225000e+02
   8.2462550e+02   2.6524220e+02
   8.2510760e+02   1.9763280e+02
   8.2558970e+02   1.2642190e+02
   8.2607180e+02   3.4375000e-01
   8.2655400e+02   4.2796880e+01
   8.2703610e+02   3.2101560e+01
   8.2751820e+02   1.5260160e+02
   8.2800030e+02   2.4441410e+02
   8.2848240e+02   3.0680470e+02
   8.2896450e+02   3.2910940e+02
   8.2944670e+02   3.0168750e+02
   8.2992880e+02   2.6631250e+02
   8.3041090e+02   2.8066410e+02
   8.3089300e+02   3.1537500e+02
   8.3137510e+02   3.2135160e+02
   8.3185720e+02   2.6567190e+02
   8.3233940e+02   2.2677340e+02
   8.3282150e+02   2.4191410e+02
   8.3330360e+02   2.8261720e+02
   8.3378570e+02   3.1689840e+02
   8.3426780e+02   3.4305470e+02
   8.3474990e+02   3.6604690e+02
   8.3523210e+02   3.8507810e+02
   8.3571420e+02   4.0241410e+02
   8.3619630e+02   4.3240620e+02
   8.3667840e+02   4.6425780e+02
   8.3716050e+02   4.5126560e+02
   8.3764260e+02   3.7609380e+02
   8.3812480e+02   2.8970310e+02
   8.3860690e+02   2.3225780e+02
   8.3908900e+02   1.9176560e+02
   8.3957110e+02   1.4867970e+02
   8.4005320e+02   6.8562500e+01
   8.4053530e+02   4.1992190e+01
   8.4101750e+02   1.0418750e+02
   8.4149960e+02   1.8859380e+02
   8.4198170e+02   2.1822660e+02
   8.4246380e+02   1.9142190e+02
   8.4294590e+02   1.8457810e+02
   8.4342800e+02   2.0884380e+02
   8.4391020e+02   2.4889060e+02
   8.4439230e+02   2.8103120e+02
   8.4487440e+02   3.0882030e+02
   8.4535650e+02   3.3912500e+02
   8.4583860e+02   3.7594530e+02
   8.4632070e+02   4.0637500e+02
   8.4680290e+02   4.4734380e+02
   8.4728500e+02   4.6078120e+02
   8.4776710e+02   4.1040620e+02
   8.4824920e+02   2.4975000e+02
   8.4873130e+02   1.6567190e+02
   8.4921340e+02   1.8092970e+02
   8.4969560e+02   2.0528120e+02
   8.5017770e+02   1.2176560e+02
   8.5065980e+02   1.9656250e+01
   8.5114190e+02   4.8710940e+01
   8.5162400e+02   5.8078120e+01
   8.5210610e+02   1.7007030e+02
   8.5258830e+02   1.9453910e+02
   8.5307040e+02   1.7636720e+02
   8.5355250e+02   1.5457030e+02
   8.5403460e+02   1.1327340e+02
   8.5451670e+02   1.0278120e+02
   8.5499880e+02   1.4769530e+02
   8.5548100e+02   1.8859380e+02
   8.5596310e+02   1.8186720e+02
   8.5644520e+02   1.2189840e+02
   8.5692730e+02   6.2273440e+01
   8.5740940e+02   3.2734380e+00
   8.5789150e+02   3.9476560e+01
   8.5837370e+02   5.5742190e+01
   8.5885580e+02   4.5343750e+01
   8.5933790e+02   9.1484380e+00
   8.5982000e+02   1.1435940e+02
   8.6030210e+02   1.8075000e+02
   8.6078420e+02   1.5222660e+02
   8.6126640e+02   9.1054690e+01
   8.6174850e+02   2.3328120e+01
   8.6223060e+02   5.6148440e+01
   8.6271270e+02   8.3656250e+01
   8.6319480e+02   5.2250000e+01
   8.6367690e+02   4.4843750e+00
   8.6415910e+02   3.5093750e+01
   8.6464120e+02   6.3445310e+01
   8.6512330e+02   8.9429690e+01
   8.6560540e+02   1.0978120e+02
   8.6608750e+02   1.2481250e+02
   8.6656960e+02   1.2592190e+02
   8.6705180e+02   1.3000000e+02
   8.6753390e+02   1.5525000e+02
   8.6801600e+02   2.0288280e+02
   8.6849810e+02   2.1908590e+02
   8.6898020e+02   1.9876560e+02
   8.6946230e+02   1.6123440e+02
   8.6994450e+02   1.0780470e+02
   8.7042660e+02   4.4187500e+01
   8.7090870e+02   7.4921880e+00
   8.7139080e+02   4.5664060e+01
   8.7187290e+02   4.9968750e+01
   8.7235500e+02   2.5585940e+01
   8.7283720e+02   1.1267970e+02
   8.7331930e+02   1.5130470e+02
   8.7380140e+02   1.4810160e+02
   8.7428350e+02   1.4670310e+02
   8.7476560e+02   1.5071880e+02
   8.7524770e+02   1.6627340e+02
   8.7572990e+02   2.0099220e+02
   8.7621200e+02   2.4708590e+02
   8.7669410e+02   2.7069530e+02
   8.7717620e+02   2.6876560e+02
   8.7765830e+02   2.7666410e+02
   8.7814040e+02   3.2908590e+02
   8.7862260e+02   3.8196090e+02
   8.7910470e+02   3.7721090e+02
   8.7958690e+02   3.2943750e+02
   8.8006900e+02   2.7646880e+02
   8.8055110e+02   2.1397660e+02
   8.8103320e+02   1.6985160e+02
   8.8151530e+02   1.5383590e+02
   8.8199740e+02   1.6071880e+02
   8.8247960e+02   1.8472660e+02
   8.8296170e+02   2.2875000e+02
   8.8344380e+02   2.7192190e+02
   8.8392590e+02   3.0614840e+02
   8.8440800e+02   3.3362500e+02
   8.8489010e+02   3.6171090e+02
   8.8537230e+02   3.8897660e+02
   8.8585440e+02   4.1196880e+02
   8.8633650e+02   4.3441410e+02
   8.8681860e+02   4.4303120e+02
   8.8730070e+02   4.1417190e+02
   8.8778280e+02   3.7517190e+02
   8.8826500e+02   3.6554690e+02
   8.8874710e+02   3.9907030e+02
   8.8922920e+02   4.2551560e+02
   8.8971130e+02   4.3928120e+02
   8.9019340e+02   4.4833590e+02
   8.9067550e+02   4.6584380e+02
   8.9115770e+02   4.8807810e+02
   8.9163980e+02   5.0071880e+02
   8.9212190e+02   4.9729690e+02
   8.9260400e+02   5.0305470e+02
   8.9308610e+02   5.3203120e+02
   8.9356820e+02   5.8024220e+02
   8.9405040e+02   6.4961720e+02
   8.9453250e+02   7.6584380e+02
   8.9501460e+02   8.3092970e+02
   8.9549670e+02   8.2177340e+02
   8.9597880e+02   8.0404690e+02
   8.9646090e+02   8.3637500e+02
   8.9694310e+02   9.1013280e+02
   8.9742520e+02   9.7473440e+02
   8.9790730e+02   1.0259220e+03
   8.9838940e+02   1.0646950e+03
   8.9887150e+02   1.0768590e+03
   8.9935360e+02   1.0931330e+03
   8.9983580e+02   1.1420550e+03
   9.0031790e+02   1.2277340e+03
   9.0080000e+02   1.3185940e+03
   9.0128210e+02   1.4346480e+03
   9.0176420e+02   1.5192580e+03
   9.0224630e+02   1.5309220e+03
   9.0272850e+02   1.4843120e+03
   9.0321060e+02   1.5016410e+03
   9.0369270e+02   1.5808360e+03
   9.0417480e+02   1.6666640e+03
   9.0465690e+02   1.7403670e+03
   9.0513900e+02   1.7941020e+03
   9.0562120e+02   1.8079840e+03
   9.0610330e+02   1.7916170e+03
   9.0658540e+02   1.7880230e+03
   9.0706750e+02   1.8115470e+03
   9.0754960e+02   1.8512500e+03
   9.0803170e+02   1.9223910e+03
   9.0851390e+02   1.9952580e+03
   9.0899600e+02   1.9648280e+03
   9.0947810e+02   1.8375000e+03
   9.0996020e+02   1.7926800e+03
   9.1044230e+02   1.9407420e+03
   9.1092440e+02   2.1220080e+03
   9.1140660e+02   2.1362030e+03
   9.1188870e+02   2.0441720e+03
   9.1237080e+02   1.9587730e+03
   9.1285290e+02   1.8877970e+03
   9.1333500e+02   1.8707030e+03
   9.1381710e+02   1.9632500e+03
   9.1429930e+02   2.0753050e+03
   9.1478140e+02   2.0715310e+03
   9.1526350e+02   1.9396560e+03
   9.1574560e+02   1.8489060e+03
   9.1622770e+02   1.8316480e+03
   9.1670980e+02   1.8337190e+03
   9.1719200e+02   1.7874220e+03
   9.1767410e+02   1.7243050e+03
   9.1815620e+02   1.6967190e+03
   9.1863830e+02   1.7337030e+03
   9.1912040e+02   1.7371640e+03
   9.1960250e+02   1.6505000e+03
   9.2008470e+02   1.5373830e+03
   9.2056680e+02   1.4380160e+03
   9.2104890e+02   1.3566090e+03
   9.2153100e+02   1.3276720e+03
   9.2201310e+02   1.3620000e+03
   9.2249520e+02   1.3796410e+03
   9.2297740e+02   1.2891330e+03
   9.2345950e+02   1.1530470e+03
   9.2394160e+02   1.0736560e+03
   9.2442370e+02   1.0548120e+03
   9.2490580e+02   1.0431800e+03
   9.2538790e+02   1.0449220e+03
   9.2587010e+02   1.0219060e+03
   9.2635220e+02   9.4778120e+02
   9.2683430e+02   8.3413280e+02
   9.2731640e+02   7.8389060e+02
   9.2779850e+02   8.0353910e+02
   9.2828060e+02   8.2146880e+02
   9.2876280e+02   8.0075780e+02
   9.2924490e+02   7.6142190e+02
   9.2972700e+02   7.4167190e+02
   9.3020910e+02   7.3664840e+02
   9.3069120e+02   7.1981250e+02
   9.3117330e+02   6.5274220e+02
   9.3165550e+02   6.0382810e+02
   9.3213760e+02   6.1207810e+02
   9.3261970e+02   6.4338280e+02
   9.3310180e+02   6.4151560e+02
   9.3358390e+02   6.0342190e+02
   9.3406600e+02   5.4653120e+02
   9.3454820e+02   4.6085160e+02
   9.3503030e+02   3.9743750e+02
   9.3551240e+02   4.4765620e+02
   9.3599450e+02   5.5916410e+02
   9.3647660e+02   6.3625000e+02
   9.3695870e+02   6.4110940e+02
   9.3744090e+02   6.5738280e+02
   9.3792300e+02   7.4156250e+02
   9.3840510e+02   8.2512500e+02
   9.3888720e+02   8.5450000e+02
   9.3936930e+02   8.2171880e+02
   9.3985140e+02   7.7399220e+02
   9.4033360e+02   7.0710160e+02
   9.4081570e+02   6.6064060e+02
   9.4129780e+02   6.8286720e+02
   9.4177990e+02   7.3871880e+02
   9.4226200e+02   7.8325780e+02
   9.4274410e+02   8.1271090e+02
   9.4322630e+02   8.2669530e+02
   9.4370840e+02   8.0165620e+02
   9.4419050e+02   7.8496880e+02
   9.4467260e+02   7.9764060e+02
   9.4515470e+02   8.3494530e+02
   9.4563680e+02   8.6607810e+02
   9.4611900e+02   8.9062500e+02
   9.4660110e+02   9.2261720e+02
   9.4708320e+02   9.7356250e+02
   9.4756530e+02   1.0297110e+03
   9.4804740e+02   1.0828520e+03
   9.4852950e+02   1.1268910e+03
   9.4901170e+02   1.1471950e+03
   9.4949380e+02   1.1039450e+03
   9.4997590e+02   1.0819530e+03
   9.5045800e+02   1.1061020e+03
   9.5094010e+02   1.1520160e+03
   9.5142220e+02   1.1862580e+03
   9.5190440e+02   1.2091410e+03
   9.5238650e+02   1.2119380e+03
   9.5286860e+02   1.1868520e+03
   9.5335070e+02   1.1726170e+03
   9.5383280e+02   1.2416250e+03
   9.5431490e+02   1.3313200e+03
   9.5479710e+02   1.3508440e+03
   9.5527920e+02   1.2512420e+03
   9.5576130e+02   1.2056410e+03
   9.5624340e+02   1.3038520e+03
   9.5672550e+02   1.3853670e+03
   9.5720760e+02   1.3422190e+03
   9.5768980e+02   1.1782030e+03
   9.5817190e+02   1.0286720e+03
   9.5865400e+02   8.9313280e+02
   9.5913610e+02   8.0879690e+02
   9.5961820e+02   8.7209380e+02
   9.6010030e+02   9.4158590e+02
   9.6058250e+02   8.4457030e+02
   9.6106460e+02   6.1659380e+02
   9.6154670e+02   4.9514060e+02
   9.6202880e+02   6.1367970e+02
   9.6251090e+02   7.0443750e+02
   9.6299300e+02   7.0046880e+02
   9.6347520e+02   6.3331250e+02
   9.6395730e+02   5.6778910e+02
   9.6443940e+02   5.0602340e+02
   9.6492150e+02   4.6217970e+02
   9.6540360e+02   4.5580470e+02
   9.6588570e+02   4.3830470e+02
   9.6636790e+02   3.2872660e+02
   9.6685000e+02   2.0217190e+02
   9.6733210e+02   1.6105470e+02
   9.6781420e+02   3.0927340e+02
   9.6829630e+02   3.7300780e+02
   9.6877840e+02   3.2396090e+02
   9.6926060e+02   2.4401560e+02
   9.6974270e+02   2.1276560e+02
   9.7022480e+02   2.1793750e+02
   9.7070690e+02   2.5019530e+02
   9.7118900e+02   3.0829690e+02
   9.7167110e+02   3.2168750e+02
   9.7215330e+02   1.9471880e+02
   9.7263540e+02   4.7992190e+01
   9.7311750e+02   4.4132810e+01
   9.7359960e+02   7.7820310e+01
   9.7408170e+02   6.4765620e+01
   9.7456380e+02   1.2320310e+01
   9.7504600e+02   7.8742190e+01
   9.7552810e+02   9.7117190e+01
   9.7601020e+02   8.8062500e+01
   9.7649230e+02   1.0067190e+02
   9.7697440e+02   1.2148440e+02
   9.7745650e+02   1.2363280e+02
   9.7793870e+02   7.5265620e+01
   9.7842080e+02   9.6890620e+01
   9.7890290e+02   2.9382810e+01
   9.7938500e+02   1.0147660e+02
   9.7986710e+02   1.2227340e+02
   9.8034920e+02   6.1890620e+01
   9.8083140e+02   1.8617190e+01
   9.8131350e+02   6.9296880e+00
   9.8179560e+02   3.1656250e+01
   9.8227770e+02   9.1226560e+01
   9.8275980e+02   6.3109380e+01
   9.8324190e+02   5.2304690e+01
   9.8372410e+02   6.0054690e+01
   9.8420620e+02   1.1707810e+02
   9.8468830e+02   6.7382810e+01
   9.8517040e+02   5.0679690e+01
   9.8565250e+02   1.4351560e+02
   9.8613460e+02   1.7521880e+02
   9.8661680e+02   1.1331250e+02
   9.8709890e+02   1.7355470e+02
   9.8758100e+02   1.5609380e+01
   9.8806310e+02   4.9171880e+01
   9.8854520e+02   1.6535160e+02
   9.8902730e+02   1.0888280e+02
   9.8950950e+02   1.7114060e+02
   9.8999160e+02   1.9146880e+02
   9.9047370e+02   3.0312500e+00
   9.9095580e+02   1.7198440e+02
   9.9143790e+02   1.8639060e+02
   9.9192000e+02   4.2093750e+01
   9.9240220e+02   1.9882030e+02
   9.9288430e+02   7.6429690e+01
   9.9336640e+02   5.3664060e+01
   9.9384850e+02   1.0588280e+02
   9.9433060e+02   7.9945310e+01
   9.9481270e+02   1.7725780e+02
   9.9529490e+02   1.5584380e+02
   9.9577700e+02   1.2382030e+02
   9.9625910e+02   1.5605470e+02
   9.9674120e+02   1.3113280e+02
   9.9722330e+02   6.4218750e+01
   9.9770540e+02   2.0625000e+01
   9.9818760e+02   6.9078120e+01
   9.9866970e+02   1.5692190e+02
   9.9915180e+02   1.5418750e+02
   9.9963390e+02   8.2890620e+01
   1.0001160e+03   3.1445310e+01
   1.0005980e+03   4.9023440e+01
   1.0010800e+03   8.3695310e+01
   1.0015620e+03   1.2069530e+02
   1.0020440e+03   1.5854690e+02
   1.0025270e+03   1.9603910e+02
   1.0030090e+03   2.3367190e+02
   1.0034910e+03   2.6266410e+02
   1.0039730e+03   2.8552340e+02
   1.0044550e+03   2.7918750e+02
   1.0049370e+03   1.6458590e+02
   1.0054190e+03   3.1156250e+01
   1.0059010e+03   2.2187500e+00
   1.0063840e+03   1.2632810e+02
   1.0068660e+03   2.4231250e+02
   1.0073480e+03   3.4887500e+02
   1.0078300e+03   4.1521880e+02
   1.0083120e+03   4.1049220e+02
   1.0087940e+03   3.4871090e+02
   1.0092760e+03   3.0823440e+02
   1.0097580e+03   2.8835160e+02
   1.0102400e+03   2.8179690e+02
   1.0107230e+03   2.8207810e+02
   1.0112050e+03   2.9646090e+02
   1.0116870e+03   3.4236720e+02
   1.0121690e+03   4.0483590e+02
   1.0126510e+03   4.4559380e+02
   1.0131330e+03   4.6567970e+02
   1.0136150e+03   4.5574220e+02
   1.0140970e+03   4.0579690e+02
   1.0145800e+03   3.4822660e+02
   1.0150620e+03   3.3196880e+02
   1.0155440e+03   3.3981250e+02
   1.0160260e+03   3.3928910e+02
   1.0165080e+03   3.2332810e+02
   1.0169900e+03   3.0517190e+02
   1.0174720e+03   3.0016410e+02
   1.0179540e+03   2.8369530e+02
   1.0184360e+03   2.3095310e+02
   1.0189190e+03   1.4609380e+02
   1.0194010e+03   1.1438280e+02
   1.0198830e+03   1.3589840e+02
   1.0203650e+03   1.9160160e+02
   1.0208470e+03   3.1888280e+02
   1.0213290e+03   4.3500000e+02
   1.0218110e+03   4.4290620e+02
   1.0222930e+03   3.7562500e+02
   1.0227760e+03   3.1429690e+02
   1.0232580e+03   2.6776560e+02
   1.0237400e+03   2.4037500e+02
   1.0242220e+03   2.3646090e+02
   1.0247040e+03   2.4553120e+02
   1.0251860e+03   2.7441410e+02
   1.0256680e+03   3.0468750e+02
   1.0261500e+03   2.4965620e+02
   1.0266320e+03   8.8460940e+01
   1.0271150e+03   3.4789060e+01
   1.0275970e+03   2.4531250e+00
   1.0280790e+03   7.2585940e+01
   1.0285610e+03   1.1386720e+02
   1.0290430e+03   1.2179690e+02
   1.0295250e+03   1.5838280e+02
   1.0300070e+03   2.3011720e+02
   1.0304890e+03   2.7110940e+02
   1.0309720e+03   2.4695310e+02
   1.0314540e+03   1.7764840e+02
   1.0319360e+03   6.3867190e+01
   1.0324180e+03   6.7242190e+01
   1.0329000e+03   1.5946880e+02
   1.0333820e+03   1.9911720e+02
   1.0338640e+03   1.8669530e+02
   1.0343460e+03   1.0080470e+02
   1.0348280e+03   3.2734380e+00
   1.0353110e+03   6.4257810e+01
   1.0357930e+03   8.6906250e+01
   1.0362750e+03   9.1484380e+01
   1.0367570e+03   8.7710940e+01
   1.0372390e+03   7.9968750e+01
   1.0377210e+03   8.4265620e+01
   1.0382030e+03   7.6039060e+01
   1.0386850e+03   1.7953120e+01
   1.0391670e+03   7.8734380e+01
   1.0396500e+03   7.8195310e+01
   1.0401320e+03   4.7218750e+01
   1.0406140e+03   1.5685160e+02
   1.0410960e+03   2.1438280e+02
   1.0415780e+03   2.2130470e+02
   1.0420600e+03   1.4195310e+02
   1.0425420e+03   2.4117190e+01
   1.0430240e+03   4.1835940e+01
   1.0435070e+03   7.1718750e+00
   1.0439890e+03   3.9179690e+01
   1.0444710e+03   8.0601560e+01
   1.0449530e+03   1.2869530e+02
   1.0454350e+03   2.2081250e+02
   1.0459170e+03   3.4534380e+02
   1.0463990e+03   2.9917190e+02
   1.0468810e+03   9.0179690e+01
   1.0473640e+03   4.8781250e+01
   1.0478460e+03   1.3917970e+02
   1.0483280e+03   3.5921880e+02
   1.0488100e+03   3.9521090e+02
   1.0492920e+03   2.8371090e+02
   1.0497740e+03   2.3118750e+02
   1.0502560e+03   2.6430470e+02
   1.0507380e+03   2.6357810e+02
   1.0512200e+03   1.9610160e+02
   1.0517030e+03   1.1064060e+02
   1.0521850e+03   7.9843750e+01
   1.0526670e+03   8.0203120e+01
   1.0531490e+03   6.8585940e+01
   1.0536310e+03   2.8937500e+01
   1.0541130e+03   1.3937500e+01
   1.0545950e+03   3.8007810e+01
   1.0550770e+03   9.0757810e+01
   1.0555590e+03   1.7495310e+02
   1.0560420e+03   2.8489060e+02
   1.0565240e+03   4.2592970e+02
   1.0570060e+03   5.8147660e+02
   1.0574880e+03   6.1547660e+02
   1.0579700e+03   2.8156250e+02
   1.0584520e+03   1.9210940e+01
   1.0589340e+03   1.5203120e+01
   1.0594160e+03   2.4097660e+02
   1.0598990e+03   3.8396880e+02
   1.0603810e+03   4.3332030e+02
   1.0608630e+03   4.0071090e+02
   1.0613450e+03   2.6681250e+02
   1.0618270e+03   1.3695310e+02
   1.0623090e+03   1.4355470e+02
   1.0627910e+03   2.1139840e+02
   1.0632730e+03   2.1642190e+02
   1.0637550e+03   1.5042970e+02
   1.0642380e+03   1.2814840e+02
   1.0647200e+03   2.4789840e+02
   1.0652020e+03   3.2531250e+02
   1.0656840e+03   2.8646880e+02
   1.0661660e+03   1.8283590e+02
   1.0666480e+03   1.7066410e+02
   1.0671300e+03   2.2829690e+02
   1.0676120e+03   2.5100780e+02
   1.0680940e+03   1.8705470e+02
   1.0685770e+03   1.2531250e+02
   1.0690590e+03   1.0406250e+02
   1.0695410e+03   1.2242970e+02
   1.0700230e+03   1.9105470e+02
   1.0705050e+03   3.3307030e+02
   1.0709870e+03   3.7522660e+02
   1.0714690e+03   3.0948440e+02
   1.0719510e+03   2.2985940e+02
   1.0724340e+03   1.8067970e+02
   1.0729160e+03   1.6814840e+02
   1.0733980e+03   2.2984380e+02
   1.0738800e+03   3.3772660e+02
   1.0743620e+03   3.9371090e+02
   1.0748440e+03   3.3142970e+02
   1.0753260e+03   2.9492190e+02
   1.0758080e+03   3.0591410e+02
   1.0762910e+03   3.4117970e+02
   1.0767730e+03   3.6021090e+02
   1.0772550e+03   3.7767970e+02
   1.0777370e+03   4.5657030e+02
   1.0782190e+03   6.1032030e+02
   1.0787010e+03   7.0811720e+02
   1.0791830e+03   6.3376560e+02
   1.0796650e+03   5.3229690e+02
   1.0801470e+03   4.7393750e+02
   1.0806300e+03   4.5311720e+02
   1.0811120e+03   4.3561720e+02
   1.0815940e+03   4.2163280e+02
   1.0820760e+03   4.1996880e+02
   1.0825580e+03   4.4125780e+02
   1.0830400e+03   4.6178120e+02
   1.0835220e+03   4.3614060e+02
   1.0840040e+03   4.0760940e+02
   1.0844860e+03   4.4521880e+02
   1.0849690e+03   6.1335940e+02
   1.0854510e+03   6.6967970e+02
   1.0859330e+03   5.9014840e+02
   1.0864150e+03   4.8134380e+02
   1.0868970e+03   4.0742190e+02
   1.0873790e+03   3.6780470e+02
   1.0878610e+03   3.6854690e+02
   1.0883430e+03   4.0426560e+02
   1.0888260e+03   4.5304690e+02
   1.0893080e+03   5.1843750e+02
   1.0897900e+03   5.8185160e+02
   1.0902720e+03   6.4164840e+02
   1.0907540e+03   6.8482810e+02
   1.0912360e+03   6.9659380e+02
   1.0917180e+03   6.8232810e+02
   1.0922000e+03   6.3742970e+02
   1.0926820e+03   5.5552340e+02
   1.0931650e+03   5.2657810e+02
   1.0936470e+03   6.7414840e+02
   1.0941290e+03   8.3801560e+02
   1.0946110e+03   9.1992970e+02
   1.0950930e+03   9.2273440e+02
   1.0955750e+03   8.9428910e+02
   1.0960570e+03   8.3820310e+02
   1.0965390e+03   8.0670310e+02
   1.0970220e+03   8.0935940e+02
   1.0975040e+03   8.3203120e+02
   1.0979860e+03   8.9418750e+02
   1.0984680e+03   9.6078910e+02
   1.0989500e+03   9.8475780e+02
   1.0994320e+03   9.3844530e+02
   1.0999140e+03   8.9866410e+02
   1.1003960e+03   8.5522660e+02
   1.1008790e+03   8.5064840e+02
   1.1013610e+03   9.7078120e+02
   1.1018430e+03   1.1352580e+03
   1.1023250e+03   1.1724770e+03
   1.1028070e+03   1.1090080e+03
   1.1032890e+03   1.0532030e+03
   1.1037710e+03   9.8607030e+02
   1.1042530e+03   1.0288980e+03
   1.1047350e+03   1.2826170e+03
   1.1052180e+03   1.5416330e+03
   1.1057000e+03   1.4569300e+03
   1.1061820e+03   1.1164380e+03
   1.1066640e+03   9.8091410e+02
   1.1071460e+03   1.1026330e+03
   1.1076280e+03   1.2385230e+03
   1.1081100e+03   1.2372270e+03
   1.1085920e+03   1.2109610e+03
   1.1090740e+03   1.2307190e+03
   1.1095570e+03   1.2777970e+03
   1.1100390e+03   1.2545940e+03
   1.1105210e+03   1.1598200e+03
   1.1110030e+03   1.1131480e+03
   1.1114850e+03   1.1614610e+03
   1.1119670e+03   1.2292730e+03
   1.1124490e+03   1.2655160e+03
   1.1129310e+03   1.2693360e+03
   1.1134140e+03   1.2209450e+03
   1.1138960e+03   1.0905550e+03
   1.1143780e+03   1.0826800e+03
   1.1148600e+03   1.2282500e+03
   1.1153420e+03   1.3639450e+03
   1.1158240e+03   1.4112660e+03
   1.1163060e+03   1.3799450e+03
   1.1167880e+03   1.2351090e+03
   1.1172710e+03   1.0333520e+03
   1.1177530e+03   9.0238280e+02
   1.1182350e+03   9.3032810e+02
   1.1187170e+03   9.7057810e+02
   1.1191990e+03   1.0309060e+03
   1.1196810e+03   1.0710000e+03
   1.1201630e+03   1.0236170e+03
   1.1206450e+03   9.1986720e+02
   1.1211270e+03   8.6867190e+02
   1.1216090e+03   8.7248440e+02
   1.1220920e+03   8.8257810e+02
   1.1225740e+03   8.7070310e+02
   1.1230560e+03   8.6651560e+02
   1.1235380e+03   8.8381250e+02
   1.1240200e+03   9.1078910e+02
   1.1245020e+03   9.3385160e+02
   1.1249840e+03   9.4929690e+02
   1.1254660e+03   9.1513280e+02
   1.1259490e+03   8.1818750e+02
   1.1264310e+03   7.2303910e+02
   1.1269130e+03   6.6763280e+02
   1.1273950e+03   6.3768750e+02
   1.1278770e+03   6.3687500e+02
   1.1283590e+03   6.5693750e+02
   1.1288410e+03   6.2634380e+02
   1.1293230e+03   5.4100000e+02
   1.1298060e+03   4.7828910e+02
   1.1302880e+03   4.6721880e+02
   1.1307700e+03   4.8776560e+02
   1.1312520e+03   5.6299220e+02
   1.1317340e+03   6.3728910e+02
   1.1322160e+03   6.2710940e+02
   1.1326980e+03   4.9065620e+02
   1.1331800e+03   3.9541410e+02
   1.1336620e+03   3.4800000e+02
   1.1341450e+03   3.1625000e+02
   1.1346270e+03   2.7745310e+02
   1.1351090e+03   2.4283590e+02
   1.1355910e+03   2.3335940e+02
   1.1360730e+03   2.4239840e+02
   1.1365550e+03   2.5300780e+02
   1.1370370e+03   2.8278910e+02
   1.1375190e+03   2.7309380e+02
   1.1380010e+03   2.0145310e+02
   1.1384840e+03   1.3050780e+02
   1.1389660e+03   1.4037500e+02
   1.1394480e+03   1.9775000e+02
   1.1399300e+03   2.2032810e+02
   1.1404120e+03   2.0719530e+02
   1.1408940e+03   1.9250780e+02
   1.1413760e+03   1.8691410e+02
   1.1418580e+03   1.8749220e+02
   1.1423410e+03   1.9756250e+02
   1.1428230e+03   2.0857810e+02
   1.1433050e+03   1.9973440e+02
   1.1437870e+03   1.7739060e+02
   1.1442690e+03   1.7052340e+02
   1.1447510e+03   1.8545310e+02
   1.1452330e+03   2.0391410e+02
   1.1457150e+03   2.4588280e+02
   1.1461980e+03   2.6300780e+02
   1.1466800e+03   2.1647660e+02
   1.1471620e+03   1.2617190e+02
   1.1476440e+03   7.7484380e+01
   1.1481260e+03   7.1828120e+01
   1.1486080e+03   1.3241410e+02
   1.1490900e+03   3.0814060e+02
   1.1495720e+03   4.4267190e+02
   1.1500540e+03   3.9002340e+02
   1.1505360e+03   2.5314060e+02
   1.1510190e+03   1.1628910e+02
   1.1515010e+03   1.6796880e+01
   1.1519830e+03   6.7234380e+01
   1.1524650e+03   3.1578120e+01
   1.1529470e+03   5.4921880e+00
   1.1534290e+03   6.9054690e+01
   1.1539110e+03   1.3336720e+02
   1.1543930e+03   9.5554690e+01
   1.1548760e+03   5.1250000e+00
   1.1553580e+03   4.9429690e+01
   1.1558400e+03   4.3820310e+01
   1.1563220e+03   6.2593750e+01
   1.1568040e+03   1.1412500e+02
   1.1572860e+03   1.5344530e+02
   1.1577680e+03   1.3549220e+02
   1.1582500e+03   9.0953120e+01
   1.1587330e+03   3.5992190e+01
   1.1592150e+03   1.4195310e+01
   1.1596970e+03   2.5156250e+00
   1.1601790e+03   1.3415620e+02
   1.1606610e+03   2.0021880e+02
   1.1611430e+03   1.5127340e+02
   1.1616250e+03   9.0789060e+01
   1.1621070e+03   1.7602340e+02
   1.1625890e+03   3.1534380e+02
   1.1630720e+03   3.4305470e+02
   1.1635540e+03   2.5289840e+02
   1.1640360e+03   1.7072660e+02
   1.1645180e+03   1.2759380e+02
   1.1650000e+03   9.4289060e+01
   1.1654820e+03   5.6210940e+01
   1.1659640e+03   3.7523440e+01
   1.1664460e+03   1.2242970e+02
   1.1669280e+03   2.5185160e+02
   1.1674110e+03   2.7111720e+02
   1.1678930e+03   1.2893750e+02
   1.1683750e+03   4.9375000e+01
   1.1688570e+03   1.9178120e+02
   1.1693390e+03   2.9908590e+02
   1.1698210e+03   2.5551560e+02
   1.1703030e+03   1.2167190e+02
   1.1707850e+03   6.7804690e+01
   1.1712680e+03   7.5414060e+01
   1.1717500e+03   7.7570310e+01
   1.1722320e+03   3.2070310e+01
   1.1727140e+03   3.5570310e+01
   1.1731960e+03   1.8803910e+02
   1.1736780e+03   3.4182810e+02
   1.1741600e+03   4.0288280e+02
   1.1746420e+03   3.8641410e+02
   1.1751250e+03   4.0110940e+02
   1.1756070e+03   4.3232810e+02
   1.1760890e+03   3.9660160e+02
   1.1765710e+03   1.6965620e+02
   1.1770530e+03   2.0492190e+01
   1.1775350e+03   6.4273440e+01
   1.1780170e+03   2.8687500e+01
   1.1784990e+03   4.4828120e+01
   1.1789810e+03   1.5580470e+02
   1.1794640e+03   2.1500780e+02
   1.1799460e+03   2.2417970e+02
   1.1804280e+03   2.2079690e+02
   1.1809100e+03   2.3278120e+02
   1.1813920e+03   2.3400000e+02
   1.1818740e+03   1.9464840e+02
   1.1823560e+03   1.4442970e+02
   1.1828380e+03   1.2952340e+02
   1.1833200e+03   1.5069530e+02
   1.1838030e+03   1.6091410e+02
   1.1842850e+03   1.5632030e+02
   1.1847670e+03   1.5187500e+02
   1.1852490e+03   1.5245310e+02
   1.1857310e+03   1.6353910e+02
   1.1862130e+03   2.0321880e+02
   1.1866950e+03   2.5815620e+02
   1.1871770e+03   2.7749220e+02
   1.1876600e+03   2.5158590e+02
   1.1881420e+03   2.2739060e+02
   1.1886240e+03   2.1289060e+02
   1.1891060e+03   2.1757030e+02
   1.1895880e+03   2.7577340e+02
   1.1900700e+03   3.3523440e+02
   1.1905520e+03   3.4587500e+02
   1.1910340e+03   3.1402340e+02
   1.1915160e+03   3.0080470e+02
   1.1919990e+03   3.0790620e+02
   1.1924810e+03   3.1864840e+02
   1.1929630e+03   3.2959380e+02
   1.1934450e+03   3.4073440e+02
   1.1939270e+03   3.5632810e+02
   1.1944090e+03   3.6916410e+02
   1.1948910e+03   3.6250000e+02
   1.1953730e+03   3.3500000e+02
   1.1958550e+03   3.6841410e+02
   1.1963380e+03   4.7636720e+02
   1.1968200e+03   5.2539840e+02
   1.1973020e+03   4.4539060e+02
   1.1977840e+03   3.2265620e+02
   1.1982660e+03   2.2017190e+02
   1.1987480e+03   1.4357030e+02
   1.1992300e+03   1.5097660e+02
   1.1997120e+03   2.7225000e+02
   1.2001950e+03   2.9333590e+02
   1.2006770e+03   2.0100000e+02
   1.2011590e+03   9.4460940e+01
   1.2016410e+03   3.5859380e+00
   1.2021230e+03   4.5609380e+01
   1.2026050e+03   6.6406300e-01
   1.2030870e+03   9.8960940e+01
   1.2035690e+03   1.9750000e+02
   1.2040520e+03   3.2188280e+02
   1.2045340e+03   3.3080470e+02
   1.2050160e+03   2.0632810e+02
   1.2054980e+03   7.4851560e+01
   1.2059800e+03   2.7218750e+01
   1.2064620e+03   1.6437500e+01
   1.2069440e+03   2.5648440e+01
   1.2074260e+03   7.1742190e+01
   1.2079080e+03   5.1617190e+01
   1.2083910e+03   6.3039060e+01
   1.2088730e+03   1.7735940e+02
   1.2093550e+03   2.9125000e+02
   1.2098370e+03   3.7696880e+02
   1.2103190e+03   4.2142190e+02
   1.2108010e+03   4.2676560e+02
   1.2112830e+03   3.5207030e+02
   1.2117650e+03   2.3198440e+02
   1.2122470e+03   2.0564060e+02
   1.2127300e+03   3.4072660e+02
   1.2132120e+03   3.7279690e+02
   1.2136940e+03   2.5391410e+02
   1.2141760e+03   1.2440620e+02
   1.2146580e+03   1.2894530e+02
   1.2151400e+03   1.9023440e+02
   1.2156220e+03   2.2532810e+02
   1.2161040e+03   2.3434380e+02
   1.2165870e+03   2.5409380e+02
   1.2170690e+03   3.0578910e+02
   1.2175510e+03   2.8804690e+02
   1.2180330e+03   1.6696880e+02
   1.2185150e+03   4.9734380e+01
   1.2189970e+03   9.1921880e+01
   1.2194790e+03   1.8076560e+02
   1.2199610e+03   1.6687500e+02
   1.2204430e+03   5.2156250e+01
   1.2209260e+03   4.1578120e+01
   1.2214080e+03   1.7813280e+02
   1.2218900e+03   2.7422660e+02
   1.2223720e+03   2.8522660e+02
   1.2228540e+03   2.4496090e+02
   1.2233360e+03   1.5789840e+02
   1.2238180e+03   6.5132810e+01
   1.2243000e+03   1.6187500e+01
   1.2247820e+03   1.9179690e+01
   1.2252650e+03   2.9125000e+01
   1.2257470e+03   4.6273440e+01
   1.2262290e+03   6.8164060e+01
   1.2267110e+03   9.9468750e+01
   1.2271930e+03   1.2312500e+02
   1.2276750e+03   1.0597660e+02
   1.2281570e+03   7.7257810e+01
   1.2286390e+03   7.7914060e+01
   1.2291220e+03   1.1709380e+02
   1.2296040e+03   1.1582810e+02
   1.2300860e+03   6.2679690e+01
   1.2305680e+03   4.7765620e+01
   1.2310500e+03   1.2522660e+02
   1.2315320e+03   2.1557030e+02
   1.2320140e+03   2.2689840e+02
   1.2324960e+03   1.9844530e+02
   1.2329790e+03   1.7823440e+02
   1.2334610e+03   1.7180470e+02
   1.2339430e+03   1.6355470e+02
   1.2344250e+03   1.5400780e+02
   1.2349070e+03   1.3196880e+02
   1.2353890e+03   8.2570310e+01
   1.2358710e+03   4.2445310e+01
   1.2363530e+03   4.8500000e+01
   1.2368350e+03   7.8171880e+01
   1.2373180e+03   1.1046880e+02
   1.2378000e+03   1.5002340e+02
   1.2382820e+03   1.3857030e+02
   1.2387640e+03   7.3265620e+01
   1.2392460e+03   1.4281250e+01
   1.2397280e+03   1.4062500e+01
   1.2402100e+03   1.0507810e+01
   1.2406920e+03   6.0929690e+01
   1.2411750e+03   1.4696880e+02
   1.2416570e+03   1.7275780e+02
   1.2421390e+03   1.2906250e+02
   1.2426210e+03   8.0609380e+01
   1.2431030e+03   2.9093750e+01
   1.2435850e+03   1.7546880e+01
   1.2440670e+03   8.3695310e+01
   1.2445490e+03   1.1225780e+02
   1.2450310e+03   3.3375000e+01
   1.2455140e+03   9.0945310e+01
   1.2459960e+03   1.8025000e+02
   1.2464780e+03   2.3692970e+02
   1.2469600e+03   2.1737500e+02
   1.2474420e+03   1.2590620e+02
   1.2479240e+03   6.1312500e+01
   1.2484060e+03   1.1939060e+02
   1.2488880e+03   1.8713280e+02
   1.2493700e+03   1.9819530e+02
   1.2498530e+03   1.8329690e+02
   1.2503350e+03   1.8885940e+02
   1.2508170e+03   2.1224220e+02
   1.2512990e+03   1.8258590e+02
   1.2517810e+03   1.1679690e+02
   1.2522630e+03   9.1468750e+01
   1.2527450e+03   2.1183590e+02
   1.2532270e+03   3.0584380e+02
   1.2537100e+03   2.7647660e+02
   1.2541920e+03   1.8864060e+02
   1.2546740e+03   1.4757810e+02
   1.2551560e+03   1.3441410e+02
   1.2556380e+03   1.4589060e+02
   1.2561200e+03   7.3515630e+00
   1.2566020e+03   1.0650000e+02
   1.2570840e+03   1.5432810e+02
   1.2575670e+03   3.0859380e+00
   1.2580490e+03   1.0439840e+02
   1.2585310e+03   1.0583590e+02
   1.2590130e+03   1.0291410e+02
   1.2594950e+03   3.3085940e+02
   1.2599770e+03   3.3829690e+02
   1.2604590e+03   3.0589060e+02
   1.2609410e+03   2.6753910e+02
   1.2614230e+03   2.4405470e+02
   1.2619060e+03   2.0305470e+02
   1.2623880e+03   1.0924220e+02
   1.2628700e+03   3.8765620e+01
   1.2633520e+03   1.5678120e+02
   1.2638340e+03   3.6578120e+02
   1.2643160e+03   4.1504690e+02
   1.2647980e+03   2.9710160e+02
   1.2652800e+03   2.1923440e+02
   1.2657620e+03   2.8440620e+02
   1.2662450e+03   3.2837500e+02
   1.2667270e+03   3.1771090e+02
   1.2672090e+03   2.8432810e+02
   1.2676910e+03   2.6244530e+02
   1.2681730e+03   2.5187500e+02
   1.2686550e+03   2.5581250e+02
   1.2691370e+03   2.7457810e+02
   1.2696190e+03   2.9914840e+02
   1.2701020e+03   3.2780470e+02
   1.2705840e+03   3.5635940e+02
   1.2710660e+03   3.8432810e+02
   1.2715480e+03   4.1104690e+02
   1.2720300e+03   4.5454690e+02
   1.2725120e+03   4.6067970e+02
   1.2729940e+03   4.1341410e+02
   1.2734760e+03   3.0083590e+02
   1.2739580e+03   2.4647660e+02
   1.2744410e+03   2.6097660e+02
   1.2749230e+03   3.0213280e+02
   1.2754050e+03   3.6803910e+02
   1.2758870e+03   4.2115620e+02
   1.2763690e+03   4.2096880e+02
   1.2768510e+03   3.9010940e+02
   1.2773330e+03   3.2825000e+02
   1.2778150e+03   2.5064840e+02
   1.2782970e+03   2.2489060e+02
   1.2787800e+03   3.0121090e+02
   1.2792620e+03   3.5503910e+02
   1.2797440e+03   3.6182810e+02
   1.2802260e+03   3.5782030e+02
   1.2807080e+03   3.7572660e+02
   1.2811900e+03   3.9146090e+02
   1.2816720e+03   3.8632030e+02
   1.2821540e+03   3.6535160e+02
   1.2826370e+03   3.3725000e+02
   1.2831190e+03   3.0517190e+02
   1.2836010e+03   3.0660160e+02
   1.2840830e+03   3.5600780e+02
   1.2845650e+03   3.9102340e+02
   1.2850470e+03   3.7018750e+02
   1.2855290e+03   3.2710160e+02
   1.2860110e+03   2.7508590e+02
   1.2864940e+03   2.1836720e+02
   1.2869760e+03   1.5573440e+02
   1.2874580e+03   9.7929690e+01
   1.2879400e+03   9.6343750e+01
   1.2884220e+03   1.7095310e+02
   1.2889040e+03   2.1991410e+02
   1.2893860e+03   1.7947660e+02
   1.2898680e+03   1.4267190e+02
   1.2903500e+03   1.3947660e+02
   1.2908330e+03   1.5557030e+02
   1.2913150e+03   1.6296880e+02
   1.2917970e+03   1.6813280e+02
   1.2922790e+03   1.8947660e+02
   1.2927610e+03   2.3517190e+02
   1.2932430e+03   2.4907810e+02
   1.2937250e+03   2.1070310e+02
   1.2942070e+03   1.8454690e+02
   1.2946890e+03   1.9773440e+02
   1.2951720e+03   2.1921880e+02
   1.2956540e+03   2.0476560e+02
   1.2961360e+03   1.7024220e+02
   1.2966180e+03   1.3270310e+02
   1.2971000e+03   9.3921880e+01
   1.2975820e+03   7.1382810e+01
   1.2980640e+03   6.8601560e+01
   1.2985460e+03   5.5695310e+01
   1.2990290e+03   1.0921880e+01
   1.2995110e+03   1.8515630e+00
   1.2999930e+03   0.0000000e+00
   1.5000000e+03   0.0000000e+00
