   1.0000000e+02   0.0000000e+00
   1.5159030e+02   0.0000000e+00
   1.5207240e+02   5.9213870e+00
   1.5255450e+02   5.4174800e+00
   1.5303660e+02   3.6133790e+01
   1.5351880e+02   8.0370120e+01
   1.5400090e+02   1.4391210e+02
   1.5448300e+02   2.3765230e+02
   1.5496510e+02   3.3646680e+02
   1.5544720e+02   4.3000000e+02
   1.5592930e+02   5.0952730e+02
   1.5641150e+02   5.9023240e+02
   1.5689360e+02   6.8198540e+02
   1.5737570e+02   7.7824900e+02
   1.5785780e+02   8.6029790e+02
   1.5833990e+02   9.1091700e+02
   1.5882210e+02   9.5193950e+02
   1.5930420e+02   9.9807030e+02
   1.5978630e+02   1.0631670e+03
   1.6026840e+02   1.1227170e+03
   1.6075050e+02   1.1712140e+03
   1.6123260e+02   1.2086130e+03
   1.6171480e+02   1.2310970e+03
   1.6219690e+02   1.2202570e+03
   1.6267900e+02   1.2001560e+03
   1.6316110e+02   1.1948360e+03
   1.6364320e+02   1.2343180e+03
   1.6412530e+02   1.2752510e+03
   1.6460750e+02   1.2860050e+03
   1.6508960e+02   1.2648730e+03
   1.6557170e+02   1.2497800e+03
   1.6605380e+02   1.2679440e+03
   1.6653590e+02   1.3049520e+03
   1.6701800e+02   1.3400410e+03
   1.6750020e+02   1.3644150e+03
   1.6798230e+02   1.3841980e+03
   1.6846440e+02   1.4005530e+03
   1.6894650e+02   1.4119480e+03
   1.6942860e+02   1.4317080e+03
   1.6991070e+02   1.4771710e+03
   1.7039290e+02   1.5384010e+03
   1.7087500e+02   1.5958230e+03
   1.7135710e+02   1.6327130e+03
   1.7183920e+02   1.6629610e+03
   1.7232130e+02   1.7019880e+03
   1.7280340e+02   1.7529200e+03
   1.7328560e+02   1.8073350e+03
   1.7376770e+02   1.8565060e+03
   1.7424980e+02   1.9134870e+03
   1.7473190e+02   1.9749190e+03
   1.7521400e+02   2.0631180e+03
   1.7569610e+02   2.1727740e+03
   1.7617830e+02   2.2643630e+03
   1.7666040e+02   2.3151880e+03
   1.7714250e+02   2.3391040e+03
   1.7762460e+02   2.3686150e+03
   1.7810670e+02   2.4252240e+03
   1.7858880e+02   2.4592200e+03
   1.7907100e+02   2.4595220e+03
   1.7955310e+02   2.4428580e+03
   1.8003520e+02   2.4149740e+03
   1.8051730e+02   2.3795190e+03
   1.8099940e+02   2.3311200e+03
   1.8148150e+02   2.2515050e+03
   1.8196370e+02   2.1412370e+03
   1.8244580e+02   2.0364560e+03
   1.8292790e+02   1.9783870e+03
   1.8341000e+02   1.9539540e+03
   1.8389210e+02   1.9127930e+03
   1.8437420e+02   1.8365880e+03
   1.8485640e+02   1.7360300e+03
   1.8533850e+02   1.6327190e+03
   1.8582060e+02   1.5250390e+03
   1.8630270e+02   1.4242710e+03
   1.8678480e+02   1.3511190e+03
   1.8726690e+02   1.3005030e+03
   1.8774910e+02   1.2311040e+03
   1.8823120e+02   1.1159840e+03
   1.8871330e+02   9.7079690e+02
   1.8919540e+02   8.5279200e+02
   1.8967750e+02   7.6571090e+02
   1.9015960e+02   6.9234860e+02
   1.9064180e+02   6.1157910e+02
   1.9112390e+02   5.2394040e+02
   1.9160600e+02   4.3860550e+02
   1.9208810e+02   3.5657130e+02
   1.9257020e+02   2.7869920e+02
   1.9305240e+02   2.1282520e+02
   1.9353450e+02   1.5962210e+02
   1.9401660e+02   1.1689160e+02
   1.9449870e+02   8.5179690e+01
   1.9498080e+02   6.5197270e+01
   1.9546290e+02   4.5467770e+01
   1.9594510e+02  -5.0202950e+00
   1.9642720e+02   2.2265060e+01
   1.9690930e+02   3.7455320e+01
   1.9739140e+02   4.1200430e+01
   1.9787350e+02  -7.7911410e-01
   1.9835560e+02   1.6285240e+01
   1.9883780e+02   9.6874230e+00
   1.9931990e+02   2.1193930e+00
   1.9980200e+02   2.7493930e+01
   2.0028410e+02  -7.8350650e+00
   2.0076620e+02   1.7017060e+01
   2.0124830e+02   1.7845970e+01
   2.0173050e+02   2.9669650e+01
   2.0221260e+02   1.7685130e+01
   2.0269470e+02   1.3054230e+01
   2.0317680e+02   3.2239220e+01
   2.0365890e+02   3.8237150e+01
   2.0414100e+02   2.3511930e+01
   2.0462320e+02   3.6034500e+01
   2.0510530e+02  -1.2616730e-01
   2.0558740e+02   6.4334440e+00
   2.0606950e+02   4.5306640e+01
   2.0655160e+02   7.7812500e+01
   2.0703370e+02   1.0273630e+02
   2.0751590e+02   1.3081050e+02
   2.0799800e+02   1.6265140e+02
   2.0848010e+02   1.9085160e+02
   2.0896220e+02   2.0968650e+02
   2.0944430e+02   2.2194430e+02
   2.0992640e+02   2.5878420e+02
   2.1040860e+02   3.2967190e+02
   2.1089070e+02   4.0675100e+02
   2.1137280e+02   4.6546970e+02
   2.1185490e+02   4.9833890e+02
   2.1233700e+02   5.4104880e+02
   2.1281910e+02   6.0456540e+02
   2.1330130e+02   6.8426950e+02
   2.1378340e+02   7.4270800e+02
   2.1426550e+02   7.6668750e+02
   2.1474760e+02   7.9078610e+02
   2.1522970e+02   8.4571970e+02
   2.1571180e+02   9.4129880e+02
   2.1619400e+02   1.0422750e+03
   2.1667610e+02   1.1415810e+03
   2.1715820e+02   1.2400520e+03
   2.1764030e+02   1.3494590e+03
   2.1812240e+02   1.4756870e+03
   2.1860450e+02   1.6031890e+03
   2.1908670e+02   1.7105900e+03
   2.1956880e+02   1.7741500e+03
   2.2005090e+02   1.8743510e+03
   2.2053300e+02   2.0411380e+03
   2.2101510e+02   2.2791250e+03
   2.2149720e+02   2.4626760e+03
   2.2197940e+02   2.5687050e+03
   2.2246150e+02   2.6478750e+03
   2.2294360e+02   2.7593230e+03
   2.2342570e+02   2.9276780e+03
   2.2390780e+02   3.0796440e+03
   2.2438990e+02   3.1994230e+03
   2.2487210e+02   3.2885370e+03
   2.2535420e+02   3.3435280e+03
   2.2583630e+02   3.3438570e+03
   2.2631840e+02   3.3300360e+03
   2.2680050e+02   3.3512360e+03
   2.2728270e+02   3.4204480e+03
   2.2776480e+02   3.4997720e+03
   2.2824690e+02   3.5786910e+03
   2.2872900e+02   3.6546040e+03
   2.2921110e+02   3.7502120e+03
   2.2969320e+02   3.8814770e+03
   2.3017540e+02   4.0183240e+03
   2.3065750e+02   4.1235700e+03
   2.3113960e+02   4.1911930e+03
   2.3162170e+02   4.2360980e+03
   2.3210380e+02   4.2611730e+03
   2.3258590e+02   4.2656470e+03
   2.3306810e+02   4.2530830e+03
   2.3355020e+02   4.2163620e+03
   2.3403230e+02   4.1677120e+03
   2.3451440e+02   4.1270100e+03
   2.3499650e+02   4.1113950e+03
   2.3547860e+02   4.0749950e+03
   2.3596080e+02   3.9999220e+03
   2.3644290e+02   3.8786180e+03
   2.3692500e+02   3.7581120e+03
   2.3740710e+02   3.6363520e+03
   2.3788920e+02   3.5175160e+03
   2.3837130e+02   3.4111740e+03
   2.3885350e+02   3.3334790e+03
   2.3933560e+02   3.2409310e+03
   2.3981770e+02   3.1142340e+03
   2.4029980e+02   2.9382830e+03
   2.4078190e+02   2.7857840e+03
   2.4126400e+02   2.6616820e+03
   2.4174620e+02   2.5557700e+03
   2.4222830e+02   2.4507620e+03
   2.4271040e+02   2.3493930e+03
   2.4319250e+02   2.2442270e+03
   2.4367460e+02   2.1303730e+03
   2.4415670e+02   2.0008890e+03
   2.4463890e+02   1.8854640e+03
   2.4512100e+02   1.7882200e+03
   2.4560310e+02   1.7027640e+03
   2.4608520e+02   1.6185480e+03
   2.4656730e+02   1.5335620e+03
   2.4704940e+02   1.4531530e+03
   2.4753160e+02   1.3773270e+03
   2.4801370e+02   1.3019450e+03
   2.4849580e+02   1.2482560e+03
   2.4897790e+02   1.2257130e+03
   2.4946000e+02   1.2213710e+03
   2.4994210e+02   1.2094580e+03
   2.5042430e+02   1.1810140e+03
   2.5090640e+02   1.1561410e+03
   2.5138850e+02   1.1420890e+03
   2.5187060e+02   1.1407710e+03
   2.5235270e+02   1.1435620e+03
   2.5283480e+02   1.1526460e+03
   2.5331700e+02   1.1676750e+03
   2.5379910e+02   1.1810330e+03
   2.5428120e+02   1.1837600e+03
   2.5476330e+02   1.1836140e+03
   2.5524540e+02   1.1846130e+03
   2.5572750e+02   1.1863680e+03
   2.5620970e+02   1.2039930e+03
   2.5669180e+02   1.2426830e+03
   2.5717390e+02   1.2883540e+03
   2.5765600e+02   1.3153500e+03
   2.5813810e+02   1.3142610e+03
   2.5862020e+02   1.3174410e+03
   2.5910240e+02   1.3402780e+03
   2.5958450e+02   1.3902200e+03
   2.6006660e+02   1.4292880e+03
   2.6054870e+02   1.4526000e+03
   2.6103080e+02   1.4683570e+03
   2.6151290e+02   1.4915770e+03
   2.6199510e+02   1.5198710e+03
   2.6247720e+02   1.5545100e+03
   2.6295930e+02   1.5983900e+03
   2.6344140e+02   1.6549180e+03
   2.6392350e+02   1.7149090e+03
   2.6440560e+02   1.7782580e+03
   2.6488780e+02   1.8433860e+03
   2.6536990e+02   1.9091570e+03
   2.6585200e+02   1.9763430e+03
   2.6633410e+02   2.0437220e+03
   2.6681620e+02   2.1145550e+03
   2.6729830e+02   2.1911440e+03
   2.6778050e+02   2.2497440e+03
   2.6826260e+02   2.2817840e+03
   2.6874470e+02   2.3047700e+03
   2.6922680e+02   2.3532220e+03
   2.6970890e+02   2.4363570e+03
   2.7019100e+02   2.5114640e+03
   2.7067320e+02   2.5595220e+03
   2.7115530e+02   2.5768620e+03
   2.7163740e+02   2.5991740e+03
   2.7211950e+02   2.6249010e+03
   2.7260160e+02   2.6580210e+03
   2.7308370e+02   2.7051670e+03
   2.7356590e+02   2.7683220e+03
   2.7404800e+02   2.8362440e+03
   2.7453010e+02   2.9066750e+03
   2.7501220e+02   2.9794310e+03
   2.7549430e+02   3.0483660e+03
   2.7597640e+02   3.1098870e+03
   2.7645860e+02   3.1742840e+03
   2.7694070e+02   3.2630080e+03
   2.7742280e+02   3.3786000e+03
   2.7790490e+02   3.4862950e+03
   2.7838700e+02   3.5683670e+03
   2.7886910e+02   3.6261060e+03
   2.7935130e+02   3.6875110e+03
   2.7983340e+02   3.7515990e+03
   2.8031550e+02   3.8218450e+03
   2.8079760e+02   3.9121760e+03
   2.8127980e+02   4.0235050e+03
   2.8176190e+02   4.1155570e+03
   2.8224400e+02   4.1731990e+03
   2.8272610e+02   4.1981520e+03
   2.8320820e+02   4.2018660e+03
   2.8369030e+02   4.1833070e+03
   2.8417250e+02   4.1473120e+03
   2.8465460e+02   4.1031910e+03
   2.8513670e+02   4.0506590e+03
   2.8561880e+02   3.9724730e+03
   2.8610090e+02   3.8553610e+03
   2.8658300e+02   3.7069770e+03
   2.8706520e+02   3.5597380e+03
   2.8754730e+02   3.4158140e+03
   2.8802940e+02   3.2678480e+03
   2.8851150e+02   3.1036870e+03
   2.8899360e+02   2.9250530e+03
   2.8947570e+02   2.7530440e+03
   2.8995790e+02   2.5921820e+03
   2.9044000e+02   2.4427530e+03
   2.9092210e+02   2.3063340e+03
   2.9140420e+02   2.1841930e+03
   2.9188630e+02   2.0590000e+03
   2.9236840e+02   1.9033850e+03
   2.9285060e+02   1.7265600e+03
   2.9333270e+02   1.5666140e+03
   2.9381480e+02   1.4390690e+03
   2.9429690e+02   1.3326630e+03
   2.9477900e+02   1.2226400e+03
   2.9526110e+02   1.1085640e+03
   2.9574330e+02   9.9971000e+02
   2.9622540e+02   9.0473730e+02
   2.9670750e+02   8.1979200e+02
   2.9718960e+02   7.3649900e+02
   2.9767170e+02   6.4403320e+02
   2.9815380e+02   5.5695020e+02
   2.9863600e+02   5.0629690e+02
   2.9911810e+02   4.8877340e+02
   2.9960020e+02   4.7056930e+02
   3.0008230e+02   4.2297560e+02
   3.0056440e+02   3.5635160e+02
   3.0104650e+02   2.8868750e+02
   3.0152870e+02   2.1960350e+02
   3.0201080e+02   1.5783790e+02
   3.0249290e+02   1.1755270e+02
   3.0297500e+02   9.5946290e+01
   3.0345710e+02   7.8948240e+01
   3.0393920e+02   5.7352540e+01
   3.0442140e+02   3.4354490e+01
   3.0490350e+02   1.4316410e+01
   3.0538560e+02   6.6503900e-01
   3.0586770e+02   1.3035160e+01
   3.0634980e+02   3.8108400e+01
   3.0683190e+02   6.9541990e+01
   3.0731410e+02   8.9884770e+01
   3.0779620e+02   8.6696290e+01
   3.0827830e+02   6.8205080e+01
   3.0876040e+02   3.6429690e+01
   3.0924250e+02   2.2049800e+01
   3.0972460e+02   6.1647460e+01
   3.1020680e+02   3.0794920e+01
   3.1068890e+02   4.4530270e+01
   3.1117100e+02   9.7219730e+01
   3.1165310e+02   7.0847660e+01
   3.1213520e+02   2.4165040e+01
   3.1261730e+02   2.6171880e+00
   3.1309950e+02   2.2418950e+01
   3.1358160e+02   4.2008790e+01
   3.1406370e+02   4.3056640e+01
   3.1454580e+02   3.0330080e+01
   3.1502790e+02   1.2938480e+01
   3.1551000e+02   1.8574220e+01
   3.1599220e+02   4.4182620e+01
   3.1647430e+02   4.8710940e+01
   3.1695640e+02   2.3437500e+01
   3.1743850e+02   7.0625000e+00
   3.1792060e+02   1.8241210e+01
   3.1840270e+02   4.4652340e+01
   3.1888490e+02   6.8510740e+01
   3.1936700e+02   8.6035160e+01
   3.1984910e+02   1.0000680e+02
   3.2033120e+02   1.1215820e+02
   3.2081330e+02   1.2413090e+02
   3.2129540e+02   1.2957520e+02
   3.2177760e+02   1.1846780e+02
   3.2225970e+02   1.0183980e+02
   3.2274180e+02   9.1464840e+01
   3.2322390e+02   9.0397460e+01
   3.2370600e+02   9.9013670e+01
   3.2418810e+02   1.2493460e+02
   3.2467030e+02   1.7122460e+02
   3.2515240e+02   1.9699610e+02
   3.2563450e+02   1.8113090e+02
   3.2611660e+02   1.5309670e+02
   3.2659870e+02   1.3647950e+02
   3.2708080e+02   1.4359380e+02
   3.2756300e+02   1.4779390e+02
   3.2804510e+02   1.4444820e+02
   3.2852720e+02   1.3405660e+02
   3.2900930e+02   1.2681740e+02
   3.2949140e+02   1.2272270e+02
   3.2997350e+02   1.2187210e+02
   3.3045570e+02   1.2363280e+02
   3.3093780e+02   1.2238960e+02
   3.3141990e+02   1.3526950e+02
   3.3190200e+02   1.7687110e+02
   3.3238410e+02   2.3591700e+02
   3.3286620e+02   2.5385550e+02
   3.3334840e+02   2.0891800e+02
   3.3383050e+02   1.5554390e+02
   3.3431260e+02   1.2150290e+02
   3.3479470e+02   1.0890330e+02
   3.3527680e+02   1.1223830e+02
   3.3575890e+02   1.4035640e+02
   3.3624110e+02   1.7919630e+02
   3.3672320e+02   1.9022950e+02
   3.3720530e+02   1.6354590e+02
   3.3768740e+02   1.3766500e+02
   3.3816950e+02   1.3498630e+02
   3.3865160e+02   1.6000100e+02
   3.3913380e+02   1.6533790e+02
   3.3961590e+02   1.4185640e+02
   3.4009800e+02   1.1169820e+02
   3.4058010e+02   1.1874220e+02
   3.4106220e+02   1.6786040e+02
   3.4154430e+02   2.1013960e+02
   3.4202650e+02   2.2237110e+02
   3.4250860e+02   2.0797460e+02
   3.4299070e+02   1.9792090e+02
   3.4347280e+02   1.9122950e+02
   3.4395490e+02   1.9292870e+02
   3.4443700e+02   2.1784180e+02
   3.4491920e+02   2.6242480e+02
   3.4540130e+02   2.9305180e+02
   3.4588340e+02   2.8768160e+02
   3.4636550e+02   2.6231250e+02
   3.4684760e+02   2.5975590e+02
   3.4732970e+02   2.8039260e+02
   3.4781190e+02   3.1062600e+02
   3.4829400e+02   3.3838180e+02
   3.4877610e+02   3.6559180e+02
   3.4925820e+02   3.9719040e+02
   3.4974030e+02   4.3536620e+02
   3.5022250e+02   4.7861040e+02
   3.5070460e+02   5.3124320e+02
   3.5118670e+02   5.9135740e+02
   3.5166880e+02   6.4042380e+02
   3.5215090e+02   6.5672660e+02
   3.5263310e+02   6.5575290e+02
   3.5311520e+02   6.5942680e+02
   3.5359730e+02   6.7005660e+02
   3.5407940e+02   6.9130960e+02
   3.5456150e+02   7.3392380e+02
   3.5504360e+02   7.9147360e+02
   3.5552580e+02   8.4441890e+02
   3.5600790e+02   8.8901270e+02
   3.5649000e+02   9.2042870e+02
   3.5697210e+02   9.3255860e+02
   3.5745420e+02   9.2115430e+02
   3.5793630e+02   9.0168070e+02
   3.5841850e+02   8.6963090e+02
   3.5890060e+02   8.3674510e+02
   3.5938270e+02   8.2337110e+02
   3.5986480e+02   8.6466500e+02
   3.6034690e+02   9.0588960e+02
   3.6082900e+02   9.1526070e+02
   3.6131120e+02   8.8576660e+02
   3.6179330e+02   8.5612600e+02
   3.6227540e+02   8.4615230e+02
   3.6275750e+02   8.3933400e+02
   3.6323960e+02   8.1740920e+02
   3.6372170e+02   7.6482030e+02
   3.6420390e+02   7.0724320e+02
   3.6468600e+02   6.4825590e+02
   3.6516810e+02   5.8849320e+02
   3.6565020e+02   5.3626860e+02
   3.6613230e+02   4.9997750e+02
   3.6661440e+02   4.6874020e+02
   3.6709660e+02   4.3524220e+02
   3.6757870e+02   3.9041210e+02
   3.6806080e+02   3.4831350e+02
   3.6854290e+02   3.0153320e+02
   3.6902500e+02   2.5337990e+02
   3.6950710e+02   2.2769630e+02
   3.6998930e+02   2.5011230e+02
   3.7047140e+02   2.6637700e+02
   3.7095350e+02   2.4530760e+02
   3.7143560e+02   1.6328610e+02
   3.7191770e+02   9.9410160e+01
   3.7239980e+02   5.9375980e+01
   3.7288200e+02   3.6984380e+01
   3.7336410e+02   1.8460940e+01
   3.7384620e+02   1.1728520e+00
   3.7432830e+02   9.5800780e+00
   3.7481040e+02   8.5283200e+00
   3.7529250e+02   5.9218750e+00
   3.7577470e+02   9.7011720e+00
   3.7625680e+02   1.2011700e-01
   3.7673890e+02   1.5087890e+01
   3.7722100e+02   2.1799800e+01
   3.7770310e+02   1.9260740e+01
   3.7818520e+02   2.4117190e+01
   3.7866740e+02   5.0904300e+01
   3.7914950e+02   8.8734380e+01
   3.7963160e+02   8.3369140e+01
   3.8011370e+02   3.0594730e+01
   3.8059580e+02   2.6738280e+01
   3.8107790e+02   4.4247070e+01
   3.8156010e+02   2.9783200e+01
   3.8204220e+02   2.0966800e+01
   3.8252430e+02   2.7625980e+01
   3.8300640e+02   4.2191410e+01
   3.8348850e+02   5.3905270e+01
   3.8397060e+02   6.2866210e+01
   3.8445280e+02   6.8872070e+01
   3.8493490e+02   6.8736330e+01
   3.8541700e+02   6.6397460e+01
   3.8589910e+02   6.7335940e+01
   3.8638120e+02   7.1340820e+01
   3.8686330e+02   8.2222660e+01
   3.8734550e+02   1.1282030e+02
   3.8782760e+02   1.5340720e+02
   3.8830970e+02   1.8218850e+02
   3.8879180e+02   1.7225680e+02
   3.8927390e+02   1.5591210e+02
   3.8975600e+02   1.6014450e+02
   3.9023820e+02   1.8828220e+02
   3.9072030e+02   2.2175680e+02
   3.9120240e+02   2.5936720e+02
   3.9168450e+02   2.9371290e+02
   3.9216660e+02   3.1673730e+02
   3.9264870e+02   3.0152540e+02
   3.9313090e+02   2.9693070e+02
   3.9361300e+02   3.3083300e+02
   3.9409510e+02   3.9957030e+02
   3.9457720e+02   4.5752440e+02
   3.9505930e+02   4.9046390e+02
   3.9554140e+02   5.1070900e+02
   3.9602360e+02   5.2550980e+02
   3.9650570e+02   5.2167770e+02
   3.9698780e+02   5.2938960e+02
   3.9746990e+02   5.6165920e+02
   3.9795200e+02   6.0885350e+02
   3.9843410e+02   6.4012210e+02
   3.9891630e+02   6.4098830e+02
   3.9939840e+02   6.4093850e+02
   3.9988050e+02   6.5215530e+02
   4.0036260e+02   6.8266800e+02
   4.0084470e+02   6.9865530e+02
   4.0132680e+02   6.8568650e+02
   4.0180900e+02   6.6887400e+02
   4.0229110e+02   6.8957710e+02
   4.0277320e+02   7.6817580e+02
   4.0325530e+02   8.2973240e+02
   4.0373740e+02   8.4749610e+02
   4.0421950e+02   8.2471780e+02
   4.0470170e+02   8.2102250e+02
   4.0518380e+02   8.3857030e+02
   4.0566590e+02   8.7348240e+02
   4.0614800e+02   9.2863570e+02
   4.0663010e+02   1.0037400e+03
   4.0711220e+02   1.0594090e+03
   4.0759440e+02   1.0830810e+03
   4.0807650e+02   1.0905950e+03
   4.0855860e+02   1.1215950e+03
   4.0904070e+02   1.1759360e+03
   4.0952280e+02   1.2283920e+03
   4.1000490e+02   1.2565880e+03
   4.1048710e+02   1.2691050e+03
   4.1096920e+02   1.2897140e+03
   4.1145130e+02   1.3208200e+03
   4.1193340e+02   1.3631400e+03
   4.1241550e+02   1.4283010e+03
   4.1289760e+02   1.5071250e+03
   4.1337980e+02   1.5715500e+03
   4.1386190e+02   1.6027030e+03
   4.1434400e+02   1.6170510e+03
   4.1482610e+02   1.6254220e+03
   4.1530820e+02   1.6300340e+03
   4.1579030e+02   1.6525620e+03
   4.1627250e+02   1.7320200e+03
   4.1675460e+02   1.8264400e+03
   4.1723670e+02   1.8899320e+03
   4.1771880e+02   1.8741440e+03
   4.1820090e+02   1.8605120e+03
   4.1868300e+02   1.8940350e+03
   4.1916520e+02   1.9621870e+03
   4.1964730e+02   2.0183770e+03
   4.2012940e+02   2.0410840e+03
   4.2061150e+02   2.0532110e+03
   4.2109370e+02   2.0683950e+03
   4.2157580e+02   2.0934620e+03
   4.2205790e+02   2.1127260e+03
   4.2254000e+02   2.1210250e+03
   4.2302210e+02   2.1224690e+03
   4.2350420e+02   2.1191480e+03
   4.2398640e+02   2.0986460e+03
   4.2446850e+02   2.0876650e+03
   4.2495060e+02   2.0988760e+03
   4.2543270e+02   2.1355630e+03
   4.2591480e+02   2.1482800e+03
   4.2639690e+02   2.1281910e+03
   4.2687910e+02   2.0943090e+03
   4.2736120e+02   2.0637370e+03
   4.2784330e+02   2.0406530e+03
   4.2832540e+02   2.0070940e+03
   4.2880750e+02   1.9571310e+03
   4.2928960e+02   1.8963440e+03
   4.2977180e+02   1.8440470e+03
   4.3025390e+02   1.8004810e+03
   4.3073600e+02   1.7631500e+03
   4.3121810e+02   1.7370410e+03
   4.3170020e+02   1.7201680e+03
   4.3218230e+02   1.6836310e+03
   4.3266450e+02   1.6236650e+03
   4.3314660e+02   1.5550370e+03
   4.3362870e+02   1.4955430e+03
   4.3411080e+02   1.4438200e+03
   4.3459290e+02   1.3937330e+03
   4.3507500e+02   1.3452540e+03
   4.3555720e+02   1.2977350e+03
   4.3603930e+02   1.2481210e+03
   4.3652140e+02   1.1952420e+03
   4.3700350e+02   1.1406790e+03
   4.3748560e+02   1.0970430e+03
   4.3796770e+02   1.0565890e+03
   4.3844990e+02   1.0002130e+03
   4.3893200e+02   9.0506930e+02
   4.3941410e+02   8.1807620e+02
   4.3989620e+02   7.7895020e+02
   4.4037830e+02   7.7496780e+02
   4.4086040e+02   7.7204000e+02
   4.4134260e+02   7.6225390e+02
   4.4182470e+02   7.4385740e+02
   4.4230680e+02   7.1236130e+02
   4.4278890e+02   6.6320900e+02
   4.4327100e+02   6.2073540e+02
   4.4375310e+02   6.0157420e+02
   4.4423530e+02   5.8853420e+02
   4.4471740e+02   5.6229390e+02
   4.4519950e+02   5.0341600e+02
   4.4568160e+02   4.4979980e+02
   4.4616370e+02   4.0467380e+02
   4.4664580e+02   3.6879980e+02
   4.4712800e+02   3.4836620e+02
   4.4761010e+02   3.5157520e+02
   4.4809220e+02   3.6124610e+02
   4.4857430e+02   3.6862700e+02
   4.4905640e+02   3.7408980e+02
   4.4953850e+02   3.7787500e+02
   4.5002070e+02   3.8487210e+02
   4.5050280e+02   3.8583980e+02
   4.5098490e+02   3.5792090e+02
   4.5146700e+02   2.9484180e+02
   4.5194910e+02   2.3542580e+02
   4.5243120e+02   1.9172270e+02
   4.5291340e+02   1.6393070e+02
   4.5339550e+02   1.5771090e+02
   4.5387760e+02   1.7620210e+02
   4.5435970e+02   1.9389750e+02
   4.5484180e+02   1.8001460e+02
   4.5532390e+02   1.4225290e+02
   4.5580610e+02   1.1339360e+02
   4.5628820e+02   1.0255660e+02
   4.5677030e+02   1.0077150e+02
   4.5725240e+02   9.7481450e+01
   4.5773450e+02   9.2691410e+01
   4.5821660e+02   8.6535160e+01
   4.5869880e+02   7.9542970e+01
   4.5918090e+02   7.0971680e+01
   4.5966300e+02   5.8433590e+01
   4.6014510e+02   4.0668950e+01
   4.6062720e+02   2.6246090e+01
   4.6110930e+02   2.6505860e+01
   4.6159150e+02   3.1497070e+01
   4.6207360e+02   2.8741210e+01
   4.6255570e+02   6.2597700e-01
   4.6303780e+02   2.2754880e+01
   4.6351990e+02   2.6353520e+01
   4.6400200e+02   1.2922850e+01
   4.6448420e+02   3.8457030e+00
   4.6496630e+02   5.2666020e+00
   4.6544840e+02   1.0985350e+01
   4.6593050e+02   1.8065430e+01
   4.6641260e+02   2.8568360e+01
   4.6689470e+02   3.6422850e+01
   4.6737690e+02   3.9160160e+01
   4.6785900e+02   4.0332030e+01
   4.6834110e+02   4.6588870e+01
   4.6882320e+02   6.2854490e+01
   4.6930530e+02   7.4483400e+01
   4.6978740e+02   7.8127930e+01
   4.7026960e+02   7.3843750e+01
   4.7075170e+02   5.9541020e+01
   4.7123380e+02   3.0719730e+01
   4.7171590e+02   5.8076170e+00
   4.7219800e+02   5.8994140e+00
   4.7268010e+02   3.0212890e+01
   4.7316230e+02   4.4705080e+01
   4.7364440e+02   4.2889650e+01
   4.7412650e+02   3.2715820e+01
   4.7460860e+02   2.7387700e+01
   4.7509070e+02   2.6102540e+01
   4.7557280e+02   2.3500980e+01
   4.7605500e+02   1.5267580e+01
   4.7653710e+02   4.3896480e+00
   4.7701920e+02   6.6103520e+00
   4.7750130e+02   1.7834960e+01
   4.7798340e+02   2.1277340e+01
   4.7846550e+02   8.2548830e+00
   4.7894770e+02   4.3416020e+01
   4.7942980e+02   4.6502930e+01
   4.7991190e+02   2.0371090e+01
   4.8039400e+02   8.8061520e+01
   4.8087610e+02   1.1783110e+02
   4.8135820e+02   1.1941600e+02
   4.8184040e+02   1.2014840e+02
   4.8232250e+02   1.2172950e+02
   4.8280460e+02   1.3041600e+02
   4.8328670e+02   1.5260160e+02
   4.8376880e+02   1.9618650e+02
   4.8425090e+02   2.2747750e+02
   4.8473310e+02   2.3480760e+02
   4.8521520e+02   2.3298440e+02
   4.8569730e+02   2.3540040e+02
   4.8617940e+02   2.4036430e+02
   4.8666150e+02   2.5281640e+02
   4.8714360e+02   2.7551660e+02
   4.8762580e+02   3.0640530e+02
   4.8810790e+02   3.3599410e+02
   4.8859000e+02   3.6359960e+02
   4.8907210e+02   3.9119340e+02
   4.8955420e+02   4.2354000e+02
   4.9003630e+02   4.6102050e+02
   4.9051850e+02   4.7615330e+02
   4.9100060e+02   4.6110940e+02
   4.9148270e+02   4.4695210e+02
   4.9196480e+02   4.8168950e+02
   4.9244700e+02   5.5679200e+02
   4.9292910e+02   6.2587300e+02
   4.9341120e+02   6.7409080e+02
   4.9389330e+02   7.0540720e+02
   4.9437540e+02   7.1706840e+02
   4.9485750e+02   7.1234670e+02
   4.9533970e+02   7.1079000e+02
   4.9582180e+02   7.3045310e+02
   4.9630390e+02   7.5765620e+02
   4.9678600e+02   7.7318160e+02
   4.9726810e+02   7.6807710e+02
   4.9775020e+02   7.7676370e+02
   4.9823240e+02   8.2915330e+02
   4.9871450e+02   9.0310250e+02
   4.9919660e+02   9.6965430e+02
   4.9967870e+02   1.0295880e+03
   5.0016080e+02   1.0707020e+03
   5.0064290e+02   1.0794870e+03
   5.0112510e+02   1.0586640e+03
   5.0160720e+02   1.0504350e+03
   5.0208930e+02   1.0650270e+03
   5.0257140e+02   1.0863200e+03
   5.0305350e+02   1.1074570e+03
   5.0353560e+02   1.1289350e+03
   5.0401780e+02   1.1489050e+03
   5.0449990e+02   1.1674090e+03
   5.0498200e+02   1.1841460e+03
   5.0546410e+02   1.2002640e+03
   5.0594620e+02   1.2169770e+03
   5.0642830e+02   1.2260540e+03
   5.0691050e+02   1.2222510e+03
   5.0739260e+02   1.2095370e+03
   5.0787470e+02   1.2048560e+03
   5.0835680e+02   1.2086470e+03
   5.0883890e+02   1.2121550e+03
   5.0932100e+02   1.2062380e+03
   5.0980320e+02   1.1950850e+03
   5.1028530e+02   1.1910640e+03
   5.1076740e+02   1.1967580e+03
   5.1124950e+02   1.2051580e+03
   5.1173160e+02   1.2132150e+03
   5.1221370e+02   1.2184860e+03
   5.1269590e+02   1.2158820e+03
   5.1317800e+02   1.1969010e+03
   5.1366010e+02   1.1747800e+03
   5.1414220e+02   1.1559100e+03
   5.1462430e+02   1.1406970e+03
   5.1510640e+02   1.1307940e+03
   5.1558860e+02   1.1301750e+03
   5.1607070e+02   1.1327740e+03
   5.1655280e+02   1.1361300e+03
   5.1703490e+02   1.1457620e+03
   5.1751700e+02   1.1441000e+03
   5.1799910e+02   1.1218630e+03
   5.1848130e+02   1.0902710e+03
   5.1896340e+02   1.0625930e+03
   5.1944550e+02   1.0352150e+03
   5.1992760e+02   1.0187780e+03
   5.2040970e+02   1.0202710e+03
   5.2089180e+02   1.0344010e+03
   5.2137400e+02   1.0293920e+03
   5.2185610e+02   1.0008030e+03
   5.2233820e+02   9.7205660e+02
   5.2282030e+02   9.5929490e+02
   5.2330240e+02   9.6123240e+02
   5.2378450e+02   9.5824320e+02
   5.2426670e+02   9.4754100e+02
   5.2474880e+02   9.3781540e+02
   5.2523090e+02   9.4554000e+02
   5.2571300e+02   9.6469430e+02
   5.2619510e+02   9.7318260e+02
   5.2667720e+02   9.5938960e+02
   5.2715940e+02   9.3442480e+02
   5.2764150e+02   9.0951270e+02
   5.2812360e+02   8.8505860e+02
   5.2860570e+02   8.6085640e+02
   5.2908780e+02   8.3633790e+02
   5.2956990e+02   8.1333890e+02
   5.3005210e+02   7.9014060e+02
   5.3053420e+02   7.6277340e+02
   5.3101630e+02   7.4467380e+02
   5.3149840e+02   7.5273730e+02
   5.3198050e+02   7.6854000e+02
   5.3246260e+02   7.7174610e+02
   5.3294480e+02   7.3845610e+02
   5.3342690e+02   7.1784380e+02
   5.3390900e+02   7.2438870e+02
   5.3439110e+02   7.4903030e+02
   5.3487320e+02   7.5375490e+02
   5.3535530e+02   7.2798830e+02
   5.3583750e+02   7.0113480e+02
   5.3631960e+02   6.8740330e+02
   5.3680170e+02   6.8616800e+02
   5.3728380e+02   6.7538570e+02
   5.3776590e+02   6.5712300e+02
   5.3824800e+02   6.3244430e+02
   5.3873020e+02   5.9983200e+02
   5.3921230e+02   5.6173240e+02
   5.3969440e+02   5.3964060e+02
   5.4017650e+02   5.4530370e+02
   5.4065860e+02   5.5590230e+02
   5.4114070e+02   5.3044530e+02
   5.4162290e+02   4.8002540e+02
   5.4210500e+02   4.4410060e+02
   5.4258710e+02   4.6476170e+02
   5.4306920e+02   4.9570800e+02
   5.4355130e+02   4.8691110e+02
   5.4403340e+02   4.3632910e+02
   5.4451560e+02   4.0034380e+02
   5.4499770e+02   4.2384380e+02
   5.4547980e+02   4.6219040e+02
   5.4596190e+02   4.7942290e+02
   5.4644400e+02   4.5114160e+02
   5.4692610e+02   4.2786820e+02
   5.4740830e+02   4.1666020e+02
   5.4789040e+02   4.1473730e+02
   5.4837250e+02   4.1825100e+02
   5.4885460e+02   4.3670310e+02
   5.4933670e+02   4.4448050e+02
   5.4981880e+02   4.3074410e+02
   5.5030100e+02   3.9828320e+02
   5.5078310e+02   3.7988180e+02
   5.5126520e+02   3.7729590e+02
   5.5174730e+02   3.8294530e+02
   5.5222940e+02   3.9509280e+02
   5.5271150e+02   4.1261620e+02
   5.5319370e+02   4.2140620e+02
   5.5367580e+02   4.1828220e+02
   5.5415790e+02   4.1492480e+02
   5.5464000e+02   4.3412400e+02
   5.5512210e+02   4.6574900e+02
   5.5560420e+02   4.7941210e+02
   5.5608640e+02   4.4857130e+02
   5.5656850e+02   4.1130760e+02
   5.5705060e+02   4.0950980e+02
   5.5753270e+02   4.3404880e+02
   5.5801480e+02   4.5091500e+02
   5.5849690e+02   4.3303910e+02
   5.5897910e+02   4.1029790e+02
   5.5946120e+02   3.9894630e+02
   5.5994330e+02   4.0034960e+02
   5.6042540e+02   4.1490040e+02
   5.6090750e+02   4.6085940e+02
   5.6138960e+02   5.0966410e+02
   5.6187180e+02   5.3531740e+02
   5.6235390e+02   5.0999610e+02
   5.6283600e+02   5.1116410e+02
   5.6331810e+02   5.6034770e+02
   5.6380020e+02   6.3177050e+02
   5.6428230e+02   6.6138870e+02
   5.6476450e+02   6.4251560e+02
   5.6524660e+02   6.1481840e+02
   5.6572870e+02   5.8643360e+02
   5.6621080e+02   5.5953710e+02
   5.6669290e+02   5.5107420e+02
   5.6717500e+02   5.6238670e+02
   5.6765720e+02   5.8190620e+02
   5.6813930e+02   6.0628420e+02
   5.6862140e+02   6.3093950e+02
   5.6910350e+02   6.4329880e+02
   5.6958560e+02   6.3952830e+02
   5.7006770e+02   6.3228520e+02
   5.7054990e+02   6.3014940e+02
   5.7103200e+02   6.3224320e+02
   5.7151410e+02   6.3725200e+02
   5.7199620e+02   6.4436230e+02
   5.7247830e+02   6.5308200e+02
   5.7296040e+02   6.6699800e+02
   5.7344260e+02   6.8323050e+02
   5.7392470e+02   6.8797360e+02
   5.7440680e+02   6.5208590e+02
   5.7488890e+02   6.3094430e+02
   5.7537100e+02   6.5426460e+02
   5.7585310e+02   7.3469140e+02
   5.7633530e+02   7.8973240e+02
   5.7681740e+02   8.1220120e+02
   5.7729950e+02   8.1667680e+02
   5.7778160e+02   8.1574710e+02
   5.7826370e+02   8.0939840e+02
   5.7874580e+02   7.9981930e+02
   5.7922800e+02   7.8435840e+02
   5.7971010e+02   7.7230760e+02
   5.8019220e+02   7.8362990e+02
   5.8067430e+02   8.1441110e+02
   5.8115640e+02   8.4235160e+02
   5.8163850e+02   8.6238180e+02
   5.8212070e+02   8.7097750e+02
   5.8260280e+02   8.5666410e+02
   5.8308490e+02   8.2170120e+02
   5.8356700e+02   7.8700200e+02
   5.8404910e+02   7.6136910e+02
   5.8453130e+02   7.4512700e+02
   5.8501340e+02   7.4083010e+02
   5.8549550e+02   7.5457230e+02
   5.8597760e+02   7.6101170e+02
   5.8645970e+02   7.4304490e+02
   5.8694180e+02   7.1890330e+02
   5.8742400e+02   7.0998050e+02
   5.8790610e+02   7.3206740e+02
   5.8838820e+02   7.4536720e+02
   5.8887030e+02   7.4340720e+02
   5.8935240e+02   7.3057320e+02
   5.8983450e+02   7.2088670e+02
   5.9031670e+02   7.1686130e+02
   5.9079880e+02   7.0579980e+02
   5.9128090e+02   6.7791020e+02
   5.9176300e+02   6.3790920e+02
   5.9224510e+02   6.1245510e+02
   5.9272720e+02   6.0196390e+02
   5.9320940e+02   5.9566700e+02
   5.9369150e+02   5.8042190e+02
   5.9417360e+02   5.6382320e+02
   5.9465570e+02   5.6519040e+02
   5.9513780e+02   5.9334380e+02
   5.9561990e+02   6.1453030e+02
   5.9610210e+02   5.9614840e+02
   5.9658420e+02   5.5666110e+02
   5.9706630e+02   5.2228420e+02
   5.9754850e+02   5.0350980e+02
   5.9803060e+02   4.8985940e+02
   5.9851270e+02   4.7512990e+02
   5.9899480e+02   4.6208300e+02
   5.9947690e+02   4.6301860e+02
   5.9995900e+02   4.9468550e+02
   6.0044120e+02   5.2068550e+02
   6.0092330e+02   5.2639550e+02
   6.0140540e+02   5.0997750e+02
   6.0188750e+02   5.0636230e+02
   6.0236960e+02   5.2329690e+02
   6.0285170e+02   5.3392380e+02
   6.0333390e+02   5.0471190e+02
   6.0381600e+02   4.4015140e+02
   6.0429810e+02   4.0584180e+02
   6.0478020e+02   4.1387210e+02
   6.0526230e+02   4.3745700e+02
   6.0574440e+02   4.2326170e+02
   6.0622660e+02   3.6044820e+02
   6.0670870e+02   4.0000780e+02
   6.0719080e+02   4.1742680e+02
   6.0767290e+02   4.1390820e+02
   6.0815500e+02   3.2672070e+02
   6.0863710e+02   3.4760550e+02
   6.0911930e+02   3.2518950e+02
   6.0960140e+02   3.0101270e+02
   6.1008350e+02   3.3713770e+02
   6.1056560e+02   2.6217380e+02
   6.1104770e+02   2.9737210e+02
   6.1152980e+02   2.8860060e+02
   6.1201200e+02   2.9997070e+02
   6.1249410e+02   2.6778030e+02
   6.1297620e+02   2.4904880e+02
   6.1345830e+02   2.7392680e+02
   6.1394040e+02   2.7467480e+02
   6.1442250e+02   2.3750390e+02
   6.1490470e+02   2.5020120e+02
   6.1538680e+02   1.8909960e+02
   6.1586890e+02   1.9474710e+02
   6.1635100e+02   1.8965620e+02
   6.1683310e+02   1.6316110e+02
   6.1731520e+02   1.2621580e+02
   6.1779740e+02   8.5541990e+01
   6.1827950e+02   4.6435550e+01
   6.1876160e+02   2.7058590e+01
   6.1924370e+02   6.0221680e+01
   6.1972580e+02   1.0002640e+02
   6.2020790e+02   1.1303710e+02
   6.2069010e+02   9.7288090e+01
   6.2117220e+02   7.0715820e+01
   6.2165430e+02   2.0783200e+01
   6.2213640e+02   2.4935550e+01
   6.2261850e+02   4.7867190e+01
   6.2310060e+02   4.2579100e+01
   6.2358280e+02   2.3015620e+01
   6.2406490e+02   2.7274410e+01
   6.2454700e+02   7.6772460e+01
   6.2502910e+02   8.0626950e+01
   6.2551120e+02   2.7054690e+01
   6.2599330e+02   7.3369140e+00
   6.2647550e+02   3.0439450e+00
   6.2695760e+02   2.0375980e+01
   6.2743970e+02   2.3701170e+01
   6.2792180e+02   8.7539060e+00
   6.2840390e+02   1.0524410e+01
   6.2888600e+02   3.5836910e+01
   6.2936820e+02   5.7080080e+01
   6.2985030e+02   5.7534180e+01
   6.3033240e+02   3.9223630e+01
   6.3081450e+02   1.7230470e+01
   6.3129660e+02   1.6490230e+01
   6.3177870e+02   3.8794920e+01
   6.3226090e+02   2.4795900e+01
   6.3274300e+02   4.4216800e+01
   6.3322510e+02   8.7525390e+01
   6.3370720e+02   7.2582030e+01
   6.3418930e+02   3.5488280e+01
   6.3467140e+02   3.9863280e+00
   6.3515360e+02   2.7079100e+01
   6.3563570e+02   3.9720700e+01
   6.3611780e+02   2.6785160e+01
   6.3659990e+02   8.9453100e-01
   6.3708200e+02   1.4743160e+01
   6.3756410e+02   1.9600590e+01
   6.3804630e+02   2.5700200e+01
   6.3852840e+02   3.8650390e+01
   6.3901050e+02   5.3839840e+01
   6.3949260e+02   6.6094730e+01
   6.3997470e+02   7.4059570e+01
   6.4045680e+02   6.9958980e+01
   6.4093900e+02   4.2192380e+01
   6.4142110e+02   4.6064450e+00
   6.4190320e+02   3.5517580e+01
   6.4238530e+02   7.7450200e+01
   6.4286740e+02   1.0401660e+02
   6.4334950e+02   9.6605470e+01
   6.4383170e+02   7.9149410e+01
   6.4431380e+02   6.8165040e+01
   6.4479590e+02   6.9831050e+01
   6.4527800e+02   6.9474610e+01
   6.4576010e+02   6.4888670e+01
   6.4624220e+02   6.0209960e+01
   6.4672440e+02   5.8438480e+01
   6.4720650e+02   5.7646480e+01
   6.4768860e+02   7.1812500e+01
   6.4817070e+02   1.0862700e+02
   6.4865280e+02   1.5396880e+02
   6.4913490e+02   1.7929790e+02
   6.4961710e+02   1.8660450e+02
   6.5009920e+02   1.9095020e+02
   6.5058130e+02   2.0159180e+02
   6.5106340e+02   2.1174020e+02
   6.5154550e+02   2.0849610e+02
   6.5202760e+02   1.9517770e+02
   6.5250980e+02   1.8978420e+02
   6.5299190e+02   2.1671680e+02
   6.5347400e+02   2.4298830e+02
   6.5395610e+02   2.4145510e+02
   6.5443820e+02   2.0129690e+02
   6.5492030e+02   1.8441410e+02
   6.5540250e+02   2.1030660e+02
   6.5588460e+02   2.5197360e+02
   6.5636670e+02   2.9396780e+02
   6.5684880e+02   3.4068460e+02
   6.5733090e+02   3.7381840e+02
   6.5781300e+02   3.9040620e+02
   6.5829520e+02   3.9799020e+02
   6.5877730e+02   4.0375680e+02
   6.5925940e+02   4.0841890e+02
   6.5974150e+02   4.2036520e+02
   6.6022360e+02   4.4389450e+02
   6.6070570e+02   4.7228030e+02
   6.6118790e+02   4.9949410e+02
   6.6167000e+02   5.2388670e+02
   6.6215210e+02   5.4052050e+02
   6.6263420e+02   5.3272270e+02
   6.6311630e+02   5.2898340e+02
   6.6359840e+02   5.4947170e+02
   6.6408060e+02   5.9189550e+02
   6.6456270e+02   6.3537890e+02
   6.6504480e+02   6.7770210e+02
   6.6552690e+02   7.1680370e+02
   6.6600900e+02   7.5113280e+02
   6.6649110e+02   7.7949220e+02
   6.6697330e+02   8.0992580e+02
   6.6745540e+02   8.4379100e+02
   6.6793750e+02   8.7732320e+02
   6.6841960e+02   9.0772070e+02
   6.6890170e+02   9.3498930e+02
   6.6938390e+02   9.5500980e+02
   6.6986600e+02   9.6408790e+02
   6.7034810e+02   9.8122950e+02
   6.7083020e+02   1.0488850e+03
   6.7131230e+02   1.1397830e+03
   6.7179440e+02   1.1910430e+03
   6.7227660e+02   1.1569520e+03
   6.7275870e+02   1.1199470e+03
   6.7324080e+02   1.1396850e+03
   6.7372290e+02   1.1968620e+03
   6.7420500e+02   1.2484730e+03
   6.7468710e+02   1.2695620e+03
   6.7516930e+02   1.2933740e+03
   6.7565140e+02   1.3364650e+03
   6.7613350e+02   1.3923140e+03
   6.7661560e+02   1.4234090e+03
   6.7709770e+02   1.4214800e+03
   6.7757980e+02   1.4136050e+03
   6.7806200e+02   1.4135440e+03
   6.7854410e+02   1.4191610e+03
   6.7902620e+02   1.4078170e+03
   6.7950830e+02   1.3793230e+03
   6.7999040e+02   1.3441700e+03
   6.8047250e+02   1.2990720e+03
   6.8095470e+02   1.2550620e+03
   6.8143680e+02   1.2329050e+03
   6.8191890e+02   1.2367480e+03
   6.8240100e+02   1.2469400e+03
   6.8288310e+02   1.2786460e+03
   6.8336520e+02   1.2959620e+03
   6.8384740e+02   1.2588410e+03
   6.8432950e+02   1.1004440e+03
   6.8481160e+02   9.8162210e+02
   6.8529370e+02   9.5121580e+02
   6.8577580e+02   9.6169430e+02
   6.8625790e+02   9.5392380e+02
   6.8674010e+02   9.2282130e+02
   6.8722220e+02   8.8462010e+02
   6.8770430e+02   8.4215040e+02
   6.8818640e+02   7.9723730e+02
   6.8866850e+02   7.4899510e+02
   6.8915060e+02   6.9737110e+02
   6.8963280e+02   6.5348930e+02
   6.9011490e+02   6.2934770e+02
   6.9059700e+02   6.0999510e+02
   6.9107910e+02   5.7048140e+02
   6.9156120e+02   5.1908010e+02
   6.9204330e+02   4.8173240e+02
   6.9252550e+02   4.7877250e+02
   6.9300760e+02   4.8501460e+02
   6.9348970e+02   4.8550390e+02
   6.9397180e+02   4.7872950e+02
   6.9445390e+02   4.7308110e+02
   6.9493600e+02   4.7310640e+02
   6.9541820e+02   4.7100490e+02
   6.9590030e+02   4.6208500e+02
   6.9638240e+02   4.4580660e+02
   6.9686450e+02   4.2806740e+02
   6.9734660e+02   4.1047460e+02
   6.9782870e+02   3.8922360e+02
   6.9831090e+02   3.5197360e+02
   6.9879300e+02   3.0624220e+02
   6.9927510e+02   2.8589260e+02
   6.9975720e+02   2.9895210e+02
   7.0023930e+02   3.2383500e+02
   7.0072140e+02   3.4743160e+02
   7.0120360e+02   3.6604300e+02
   7.0168570e+02   3.7338090e+02
   7.0216780e+02   3.6215530e+02
   7.0264990e+02   3.4576370e+02
   7.0313200e+02   3.2808500e+02
   7.0361410e+02   3.0907130e+02
   7.0409630e+02   2.8777250e+02
   7.0457840e+02   2.5347660e+02
   7.0506050e+02   2.3361430e+02
   7.0554260e+02   2.4050590e+02
   7.0602470e+02   2.6586130e+02
   7.0650680e+02   2.7263960e+02
   7.0698900e+02   2.5974320e+02
   7.0747110e+02   2.3789940e+02
   7.0795320e+02   2.0845900e+02
   7.0843530e+02   1.7527250e+02
   7.0891740e+02   1.4389840e+02
   7.0939950e+02   1.1548730e+02
   7.0988170e+02   1.0300880e+02
   7.1036380e+02   1.3201560e+02
   7.1084590e+02   1.7026270e+02
   7.1132800e+02   1.8770510e+02
   7.1181010e+02   1.7912890e+02
   7.1229220e+02   1.7006640e+02
   7.1277440e+02   1.6751560e+02
   7.1325650e+02   1.6705660e+02
   7.1373860e+02   1.6548140e+02
   7.1422070e+02   1.6138090e+02
   7.1470280e+02   1.5965330e+02
   7.1518490e+02   1.6012790e+02
   7.1566710e+02   1.6329590e+02
   7.1614920e+02   1.7513380e+02
   7.1663130e+02   1.9363380e+02
   7.1711340e+02   1.9284770e+02
   7.1759550e+02   1.6380860e+02
   7.1807760e+02   1.2906150e+02
   7.1855980e+02   1.1994140e+02
   7.1904190e+02   1.2495700e+02
   7.1952400e+02   1.2148340e+02
   7.2000610e+02   8.9899410e+01
   7.2048820e+02   6.2152340e+01
   7.2097030e+02   5.5253910e+01
   7.2145250e+02   6.2621090e+01
   7.2193460e+02   6.9227540e+01
   7.2241670e+02   7.0302730e+01
   7.2289880e+02   7.4749020e+01
   7.2338090e+02   8.8509770e+01
   7.2386300e+02   1.0645210e+02
   7.2434520e+02   1.0430760e+02
   7.2482730e+02   7.8772460e+01
   7.2530940e+02   5.6745120e+01
   7.2579150e+02   5.0827150e+01
   7.2627360e+02   5.7585940e+01
   7.2675570e+02   7.4923830e+01
   7.2723790e+02   1.0043360e+02
   7.2772000e+02   1.1509080e+02
   7.2820210e+02   9.1518550e+01
   7.2868420e+02   6.2595700e+01
   7.2916630e+02   6.4070310e+01
   7.2964840e+02   1.0019340e+02
   7.3013060e+02   1.1150590e+02
   7.3061270e+02   4.1382810e+01
   7.3109480e+02   2.4856450e+01
   7.3157690e+02   3.6524410e+01
   7.3205900e+02   2.5036130e+01
   7.3254110e+02   6.2179690e+01
   7.3302330e+02   6.9850590e+01
   7.3350540e+02   6.4538090e+01
   7.3398750e+02   5.7235350e+01
   7.3446960e+02   4.9010740e+01
   7.3495170e+02   5.1771480e+01
   7.3543380e+02   6.9719730e+01
   7.3591600e+02   8.1383790e+01
   7.3639810e+02   5.3725590e+01
   7.3688020e+02   9.2431640e+00
   7.3736230e+02   1.7839840e+01
   7.3784440e+02   9.8222660e+00
   7.3832660e+02   4.8830002e-03
   7.3880870e+02   3.5214840e+00
   7.3929080e+02   1.1928710e+01
   7.3977290e+02   1.3168950e+01
   7.4025510e+02   8.0585940e+00
   7.4073720e+02   8.2021480e+00
   7.4121930e+02   4.5501950e+01
   7.4170140e+02   8.6448240e+01
   7.4218350e+02   8.8863280e+01
   7.4266560e+02   5.2224610e+01
   7.4314780e+02   1.8621090e+01
   7.4362990e+02   2.1289060e+00
   7.4411200e+02   4.9746090e+00
   7.4459410e+02   1.6078120e+01
   7.4507620e+02   2.8202150e+01
   7.4555830e+02   3.2333010e+01
   7.4604050e+02   2.2437500e+01
   7.4652260e+02   4.7119140e+00
   7.4700470e+02   2.5744140e+01
   7.4748680e+02   6.4242190e+01
   7.4796890e+02   8.3578120e+01
   7.4845100e+02   6.6719730e+01
   7.4893320e+02   4.7868160e+01
   7.4941530e+02   3.5330080e+01
   7.4989740e+02   2.9361330e+01
   7.5037950e+02   3.7587890e+01
   7.5086160e+02   6.3158200e+01
   7.5134380e+02   7.8423830e+01
   7.5182590e+02   4.7645510e+01
   7.5230800e+02   2.5761720e+00
   7.5279010e+02   3.2089840e+00
   7.5327220e+02   6.3136720e+01
   7.5375430e+02   1.1001760e+02
   7.5423650e+02   7.9937500e+01
   7.5471860e+02   3.1477540e+01
   7.5520070e+02   1.3089840e+01
   7.5568280e+02   3.5659180e+01
   7.5616490e+02   5.5370120e+01
   7.5664700e+02   6.9657230e+01
   7.5712920e+02   7.5054690e+01
   7.5761130e+02   6.4327150e+01
   7.5809340e+02   2.7546880e+01
   7.5857550e+02   2.0908200e+01
   7.5905760e+02   4.8069340e+01
   7.5953970e+02   9.3283200e+01
   7.6002190e+02   1.5690530e+02
   7.6050400e+02   2.2608980e+02
   7.6098610e+02   2.5196090e+02
   7.6146820e+02   2.2036330e+02
   7.6195030e+02   1.8034570e+02
   7.6243240e+02   1.7270610e+02
   7.6291460e+02   1.7757810e+02
   7.6339670e+02   1.7018850e+02
   7.6387880e+02   1.2394040e+02
   7.6436090e+02   9.9019530e+01
   7.6484300e+02   1.2073830e+02
   7.6532510e+02   1.5999510e+02
   7.6580730e+02   1.8514260e+02
   7.6628940e+02   1.9308890e+02
   7.6677150e+02   1.9939550e+02
   7.6725360e+02   2.0749320e+02
   7.6773570e+02   2.1199220e+02
   7.6821780e+02   1.9612790e+02
   7.6870000e+02   1.6680470e+02
   7.6918210e+02   1.5516110e+02
   7.6966420e+02   1.8354790e+02
   7.7014630e+02   2.1299610e+02
   7.7062840e+02   1.9805270e+02
   7.7111050e+02   1.6152930e+02
   7.7159270e+02   1.4799120e+02
   7.7207480e+02   1.8833890e+02
   7.7255690e+02   2.3217680e+02
   7.7303900e+02   2.7467480e+02
   7.7352110e+02   3.1087110e+02
   7.7400320e+02   3.2523050e+02
   7.7448540e+02   3.1276560e+02
   7.7496750e+02   3.0051370e+02
   7.7544960e+02   2.9240330e+02
   7.7593170e+02   2.8588670e+02
   7.7641380e+02   2.8155180e+02
   7.7689590e+02   2.7773050e+02
   7.7737810e+02   2.6758890e+02
   7.7786020e+02   2.3805470e+02
   7.7834230e+02   2.0948140e+02
   7.7882440e+02   1.9733110e+02
   7.7930650e+02   1.9949410e+02
   7.7978860e+02   2.0691110e+02
   7.8027080e+02   2.2798730e+02
   7.8075290e+02   2.4251070e+02
   7.8123500e+02   2.3775490e+02
   7.8171710e+02   2.1701660e+02
   7.8219920e+02   2.1303710e+02
   7.8268130e+02   2.2623540e+02
   7.8316350e+02   2.5500880e+02
   7.8364560e+02   3.1946390e+02
   7.8412770e+02   3.9914160e+02
   7.8460980e+02   4.1159180e+02
   7.8509190e+02   3.5944530e+02
   7.8557400e+02   3.0238570e+02
   7.8605620e+02   2.7008790e+02
   7.8653830e+02   2.5751660e+02
   7.8702040e+02   2.6811430e+02
   7.8750250e+02   3.0186130e+02
   7.8798460e+02   3.2837600e+02
   7.8846670e+02   3.5014550e+02
   7.8894890e+02   3.4799020e+02
   7.8943100e+02   3.0669240e+02
   7.8991310e+02   2.2842680e+02
   7.9039520e+02   1.8054690e+02
   7.9087730e+02   1.6576950e+02
   7.9135940e+02   1.6867770e+02
   7.9184160e+02   1.8116020e+02
   7.9232370e+02   2.0090720e+02
   7.9280580e+02   2.2693460e+02
   7.9328790e+02   2.5925980e+02
   7.9377000e+02   2.8385550e+02
   7.9425210e+02   2.8937210e+02
   7.9473430e+02   2.8327930e+02
   7.9521640e+02   2.6571290e+02
   7.9569850e+02   2.3156840e+02
   7.9618060e+02   2.2445700e+02
   7.9666270e+02   2.6902640e+02
   7.9714480e+02   3.1582620e+02
   7.9762700e+02   3.3226460e+02
   7.9810910e+02   3.1457620e+02
   7.9859120e+02   3.0065040e+02
   7.9907330e+02   2.9090620e+02
   7.9955540e+02   2.8271190e+02
   8.0003750e+02   2.6380660e+02
   8.0051970e+02   2.4661720e+02
   8.0100180e+02   2.6278610e+02
   8.0148390e+02   3.2117480e+02
   8.0196600e+02   3.7358010e+02
   8.0244810e+02   3.9246880e+02
   8.0293020e+02   3.9103710e+02
   8.0341240e+02   3.7821580e+02
   8.0389450e+02   3.4134670e+02
   8.0437660e+02   3.2970120e+02
   8.0485870e+02   3.5558300e+02
   8.0534080e+02   3.8966800e+02
   8.0582290e+02   4.0093550e+02
   8.0630510e+02   3.8933790e+02
   8.0678720e+02   4.0168950e+02
   8.0726930e+02   4.4691500e+02
   8.0775140e+02   4.8636430e+02
   8.0823350e+02   4.6232520e+02
   8.0871560e+02   4.1349610e+02
   8.0919780e+02   4.0338960e+02
   8.0967990e+02   4.5903910e+02
   8.1016200e+02   5.0419920e+02
   8.1064410e+02   5.0380470e+02
   8.1112620e+02   4.8310350e+02
   8.1160830e+02   4.6444820e+02
   8.1209050e+02   4.4510060e+02
   8.1257260e+02   4.3596480e+02
   8.1305470e+02   4.4296000e+02
   8.1353680e+02   4.5057230e+02
   8.1401890e+02   4.3350390e+02
   8.1450100e+02   3.9731640e+02
   8.1498320e+02   3.7579980e+02
   8.1546530e+02   3.7533790e+02
   8.1594740e+02   3.8459470e+02
   8.1642950e+02   4.0779980e+02
   8.1691160e+02   4.2989940e+02
   8.1739370e+02   4.2925000e+02
   8.1787590e+02   3.8374220e+02
   8.1835800e+02   3.4758890e+02
   8.1884010e+02   3.3726370e+02
   8.1932220e+02   3.3782710e+02
   8.1980430e+02   3.3614650e+02
   8.2028640e+02   3.3134280e+02
   8.2076860e+02   3.3085840e+02
   8.2125070e+02   3.3882130e+02
   8.2173280e+02   3.4038280e+02
   8.2221490e+02   3.0803910e+02
   8.2269700e+02   2.5488480e+02
   8.2317910e+02   2.1277830e+02
   8.2366130e+02   1.8979100e+02
   8.2414340e+02   1.7635160e+02
   8.2462550e+02   1.7091890e+02
   8.2510760e+02   1.6959570e+02
   8.2558970e+02   1.6800100e+02
   8.2607180e+02   1.6405660e+02
   8.2655400e+02   1.6329000e+02
   8.2703610e+02   1.7457320e+02
   8.2751820e+02   1.7901460e+02
   8.2800030e+02   1.4080370e+02
   8.2848240e+02   6.1114260e+01
   8.2896450e+02   2.6434570e+01
   8.2944670e+02   5.6379880e+01
   8.2992880e+02   1.0538380e+02
   8.3041090e+02   1.3994820e+02
   8.3089300e+02   1.5331150e+02
   8.3137510e+02   1.2948540e+02
   8.3185720e+02   4.0469730e+01
   8.3233940e+02   3.0867190e+01
   8.3282150e+02   4.9173830e+01
   8.3330360e+02   3.8558590e+01
   8.3378570e+02   2.5935550e+01
   8.3426780e+02   8.0693360e+00
   8.3474990e+02   2.4023400e-01
   8.3523210e+02   7.6113280e+00
   8.3571420e+02   1.5597660e+01
   8.3619630e+02   1.2763670e+00
   8.3667840e+02   3.4083010e+01
   8.3716050e+02   4.5799800e+01
   8.3764260e+02   2.4581050e+01
   8.3812480e+02   3.0927730e+00
   8.3860690e+02   1.0826170e+01
   8.3908900e+02   3.0145510e+01
   8.3957110e+02   4.2197270e+01
   8.4005320e+02   4.7582030e+01
   8.4053530e+02   3.4760740e+01
   8.4101750e+02   1.5708010e+01
   8.4149960e+02   6.4370120e+01
   8.4198170e+02   6.5330080e+01
   8.4246380e+02   1.6382810e+01
   8.4294590e+02   2.5751950e+01
   8.4342800e+02   5.7418950e+01
   8.4391020e+02   7.3208980e+01
   8.4439230e+02   5.6175780e+01
   8.4487440e+02   2.2837890e+01
   8.4535650e+02   2.1669920e+00
   8.4583860e+02   1.6097660e+01
   8.4632070e+02   1.3848630e+01
   8.4680290e+02   3.1251950e+01
   8.4728500e+02   7.7533200e+01
   8.4776710e+02   8.6033200e+01
   8.4824920e+02   3.3741210e+01
   8.4873130e+02   6.3046880e+00
   8.4921340e+02   8.4189450e+00
   8.4969560e+02   2.3817380e+01
   8.5017770e+02   4.2723630e+01
   8.5065980e+02   6.1876950e+01
   8.5114190e+02   6.8667970e+01
   8.5162400e+02   6.0905270e+01
   8.5210610e+02   4.8101560e+01
   8.5258830e+02   3.0219730e+01
   8.5307040e+02   1.5174800e+01
   8.5355250e+02   9.9453130e+00
   8.5403460e+02   1.6278320e+01
   8.5451670e+02   3.2093750e+01
   8.5499880e+02   6.6196290e+01
   8.5548100e+02   9.8767580e+01
   8.5596310e+02   1.1136620e+02
   8.5644520e+02   9.8363280e+01
   8.5692730e+02   1.1016310e+02
   8.5740940e+02   1.5087300e+02
   8.5789150e+02   1.9188090e+02
   8.5837370e+02   2.1209770e+02
   8.5885580e+02   2.1570410e+02
   8.5933790e+02   1.9707230e+02
   8.5982000e+02   1.5274900e+02
   8.6030210e+02   1.3740140e+02
   8.6078420e+02   2.0211620e+02
   8.6126640e+02   2.7604590e+02
   8.6174850e+02   3.1813570e+02
   8.6223060e+02   3.2549410e+02
   8.6271270e+02   3.3384670e+02
   8.6319480e+02   3.4375780e+02
   8.6367690e+02   3.5279980e+02
   8.6415910e+02   3.4526660e+02
   8.6464120e+02   3.3898340e+02
   8.6512330e+02   3.9129300e+02
   8.6560540e+02   4.9879690e+02
   8.6608750e+02   5.8924410e+02
   8.6656960e+02   5.9075390e+02
   8.6705180e+02   5.8670410e+02
   8.6753390e+02   6.3962890e+02
   8.6801600e+02   7.5774320e+02
   8.6849810e+02   8.3779690e+02
   8.6898020e+02   8.6587500e+02
   8.6946230e+02   8.8440040e+02
   8.6994450e+02   9.1238770e+02
   8.7042660e+02   9.4694340e+02
   8.7090870e+02   9.7169430e+02
   8.7139080e+02   9.8836040e+02
   8.7187290e+02   1.0104710e+03
   8.7235500e+02   1.0352040e+03
   8.7283720e+02   1.0782130e+03
   8.7331930e+02   1.1710150e+03
   8.7380140e+02   1.3015930e+03
   8.7428350e+02   1.3980590e+03
   8.7476560e+02   1.4188710e+03
   8.7524770e+02   1.4327860e+03
   8.7572990e+02   1.4545660e+03
   8.7621200e+02   1.4825380e+03
   8.7669410e+02   1.5116430e+03
   8.7717620e+02   1.5417320e+03
   8.7765830e+02   1.5733340e+03
   8.7814040e+02   1.6116300e+03
   8.7862260e+02   1.6458520e+03
   8.7910470e+02   1.6562260e+03
   8.7958690e+02   1.6508660e+03
   8.8006900e+02   1.6511190e+03
   8.8055110e+02   1.6785290e+03
   8.8103320e+02   1.6969140e+03
   8.8151530e+02   1.6879240e+03
   8.8199740e+02   1.6655990e+03
   8.8247960e+02   1.6638780e+03
   8.8296170e+02   1.6912520e+03
   8.8344380e+02   1.6852930e+03
   8.8392590e+02   1.6178400e+03
   8.8440800e+02   1.5380340e+03
   8.8489010e+02   1.5404120e+03
   8.8537230e+02   1.5906080e+03
   8.8585440e+02   1.6071890e+03
   8.8633650e+02   1.5457460e+03
   8.8681860e+02   1.4714380e+03
   8.8730070e+02   1.4051990e+03
   8.8778280e+02   1.3475490e+03
   8.8826500e+02   1.2987640e+03
   8.8874710e+02   1.2568160e+03
   8.8922920e+02   1.2343560e+03
   8.8971130e+02   1.2423370e+03
   8.9019340e+02   1.2439840e+03
   8.9067550e+02   1.1876690e+03
   8.9115770e+02   1.0928950e+03
   8.9163980e+02   1.0147430e+03
   8.9212190e+02   9.6662210e+02
   8.9260400e+02   9.2379300e+02
   8.9308610e+02   8.6198340e+02
   8.9356820e+02   8.0104390e+02
   8.9405040e+02   7.6583790e+02
   8.9453250e+02   7.8482620e+02
   8.9501460e+02   7.5928420e+02
   8.9549670e+02   6.6989650e+02
   8.9597880e+02   5.7028030e+02
   8.9646090e+02   5.0651760e+02
   8.9694310e+02   4.7466210e+02
   8.9742520e+02   4.5227540e+02
   8.9790730e+02   4.3828220e+02
   8.9838940e+02   4.2988180e+02
   8.9887150e+02   4.2755860e+02
   8.9935360e+02   4.2342380e+02
   8.9983580e+02   4.1929200e+02
   9.0031790e+02   4.1948050e+02
   9.0080000e+02   3.9688380e+02
   9.0128210e+02   3.2845610e+02
   9.0176420e+02   2.6395410e+02
   9.0224630e+02   2.2580270e+02
   9.0272850e+02   2.1140040e+02
   9.0321060e+02   1.9715620e+02
   9.0369270e+02   1.8353320e+02
   9.0417480e+02   1.7756840e+02
   9.0465690e+02   2.0688960e+02
   9.0513900e+02   2.2888670e+02
   9.0562120e+02   1.8243750e+02
   9.0610330e+02   8.7023440e+01
   9.0658540e+02   2.6710940e+01
   9.0706750e+02   6.5915040e+01
   9.0754960e+02   9.6461910e+01
   9.0803170e+02   8.9469730e+01
   9.0851390e+02   5.7005860e+01
   9.0899600e+02   3.1956050e+01
   9.0947810e+02   1.4422850e+01
   9.0996020e+02   9.7548830e+00
   9.1044230e+02   2.4214840e+01
   9.1092440e+02   4.5128910e+01
   9.1140660e+02   7.1927730e+01
   9.1188870e+02   9.1599610e+01
   9.1237080e+02   7.9675780e+01
   9.1285290e+02   3.8741210e+01
   9.1333500e+02   1.0195210e+02
   9.1381710e+02   4.2405270e+01
   9.1429930e+02   5.6726560e+01
   9.1478140e+02   7.8705080e+01
   9.1526350e+02   1.6223630e+01
   9.1574560e+02   2.6081050e+01
   9.1622770e+02   3.2124020e+01
   9.1670980e+02   2.1036130e+01
   9.1719200e+02   1.5584960e+01
   9.1767410e+02   7.2285160e+00
   9.1815620e+02   2.2984380e+01
   9.1863830e+02   9.1536130e+01
   9.1912040e+02   1.3416500e+02
   9.1960250e+02   1.1177250e+02
   9.2008470e+02   7.2168950e+01
   9.2056680e+02   4.3053710e+01
   9.2104890e+02   2.3127930e+01
   9.2153100e+02   3.0989260e+01
   9.2201310e+02   7.0951170e+01
   9.2249520e+02   1.0241020e+02
   9.2297740e+02   8.1238280e+01
   9.2345950e+02   3.6046880e+01
   9.2394160e+02   8.3535160e+00
   9.2442370e+02   8.7890001e-03
   9.2490580e+02   4.5634770e+00
   9.2538790e+02   1.3669920e+01
   9.2587010e+02   1.7698240e+01
   9.2635220e+02   1.0169920e+01
   9.2683430e+02   6.7460940e+00
   9.2731640e+02   1.2112300e+01
   9.2779850e+02   3.9267580e+00
   9.2828060e+02   2.9433590e+00
   9.2876280e+02   1.8699220e+01
   9.2924490e+02   4.6935550e+01
   9.2972700e+02   9.8582030e+01
   9.3020910e+02   1.5781740e+02
   9.3069120e+02   1.8342480e+02
   9.3117330e+02   1.0897270e+02
   9.3165550e+02   5.5950200e+01
   9.3213760e+02   8.0738280e+01
   9.3261970e+02   1.4080760e+02
   9.3310180e+02   1.6274900e+02
   9.3358390e+02   1.3966020e+02
   9.3406600e+02   1.3543160e+02
   9.3454820e+02   1.6753520e+02
   9.3503030e+02   2.0364060e+02
   9.3551240e+02   1.9989550e+02
   9.3599450e+02   1.7166410e+02
   9.3647660e+02   1.4489160e+02
   9.3695870e+02   1.2371190e+02
   9.3744090e+02   1.0911430e+02
   9.3792300e+02   9.6978520e+01
   9.3840510e+02   9.5392580e+01
   9.3888720e+02   1.1605080e+02
   9.3936930e+02   1.6828030e+02
   9.3985140e+02   1.8248240e+02
   9.4033360e+02   1.5323340e+02
   9.4081570e+02   1.2420020e+02
   9.4129780e+02   1.3269820e+02
   9.4177990e+02   1.6382320e+02
   9.4226200e+02   2.0983690e+02
   9.4274410e+02   2.6665140e+02
   9.4322630e+02   2.8808690e+02
   9.4370840e+02   1.9897750e+02
   9.4419050e+02   1.3155960e+02
   9.4467260e+02   1.5133690e+02
   9.4515470e+02   2.3977730e+02
   9.4563680e+02   2.7578030e+02
   9.4611900e+02   2.5650590e+02
   9.4660110e+02   2.3884380e+02
   9.4708320e+02   2.5218460e+02
   9.4756530e+02   2.7651070e+02
   9.4804740e+02   2.8553320e+02
   9.4852950e+02   2.8452830e+02
   9.4901170e+02   2.8577440e+02
   9.4949380e+02   2.9627730e+02
   9.4997590e+02   3.0587210e+02
   9.5045800e+02   3.1203610e+02
   9.5094010e+02   3.1683400e+02
   9.5142220e+02   3.2293550e+02
   9.5190440e+02   3.3038480e+02
   9.5238650e+02   3.4111910e+02
   9.5286860e+02   3.5781740e+02
   9.5335070e+02   3.6750980e+02
   9.5383280e+02   3.4632230e+02
   9.5431490e+02   3.1591310e+02
   9.5479710e+02   3.0533690e+02
   9.5527920e+02   3.2593460e+02
   9.5576130e+02   3.4465620e+02
   9.5624340e+02   3.6189260e+02
   9.5672550e+02   3.6916110e+02
   9.5720760e+02   3.5377830e+02
   9.5768980e+02   3.1715330e+02
   9.5817190e+02   3.1669140e+02
   9.5865400e+02   3.5185350e+02
   9.5913610e+02   3.8510550e+02
   9.5961820e+02   3.8988480e+02
   9.6010030e+02   3.8179790e+02
   9.6058250e+02   3.6782810e+02
   9.6106460e+02   3.5161910e+02
   9.6154670e+02   3.5184380e+02
   9.6202880e+02   3.9075980e+02
   9.6251090e+02   4.1643070e+02
   9.6299300e+02   4.1128810e+02
   9.6347520e+02   3.8956640e+02
   9.6395730e+02   3.8722750e+02
   9.6443940e+02   4.0136620e+02
   9.6492150e+02   4.1388380e+02
   9.6540360e+02   4.1770700e+02
   9.6588570e+02   4.2042290e+02
   9.6636790e+02   4.3402440e+02
   9.6685000e+02   4.4779880e+02
   9.6733210e+02   4.4668650e+02
   9.6781420e+02   4.0716410e+02
   9.6829630e+02   3.9539060e+02
   9.6877840e+02   4.2349610e+02
   9.6926060e+02   4.5551270e+02
   9.6974270e+02   4.4890430e+02
   9.7022480e+02   4.1539550e+02
   9.7070690e+02   3.9909960e+02
   9.7118900e+02   4.0169340e+02
   9.7167110e+02   4.0341600e+02
   9.7215330e+02   3.7565040e+02
   9.7263540e+02   3.4822950e+02
   9.7311750e+02   3.4441110e+02
   9.7359960e+02   3.6383980e+02
   9.7408170e+02   3.8204390e+02
   9.7456380e+02   4.0143650e+02
   9.7504600e+02   4.1369140e+02
   9.7552810e+02   4.1850390e+02
   9.7601020e+02   4.1132230e+02
   9.7649230e+02   3.6664450e+02
   9.7697440e+02   3.0078220e+02
   9.7745650e+02   2.6174220e+02
   9.7793870e+02   3.0262010e+02
   9.7842080e+02   3.3620310e+02
   9.7890290e+02   3.1910160e+02
   9.7938500e+02   2.8352150e+02
   9.7986710e+02   2.7450780e+02
   9.8034920e+02   2.9795700e+02
   9.8083140e+02   3.1536130e+02
   9.8131350e+02   3.2360640e+02
   9.8179560e+02   3.2057910e+02
   9.8227770e+02   2.8716110e+02
   9.8275980e+02   2.4861040e+02
   9.8324190e+02   2.5030960e+02
   9.8372410e+02   3.0639260e+02
   9.8420620e+02   3.3874510e+02
   9.8468830e+02   3.0029790e+02
   9.8517040e+02   2.5626370e+02
   9.8565250e+02   2.3591210e+02
   9.8613460e+02   2.3649610e+02
   9.8661680e+02   2.2870020e+02
   9.8709890e+02   2.1275980e+02
   9.8758100e+02   1.9686230e+02
   9.8806310e+02   1.8140720e+02
   9.8854520e+02   1.7172850e+02
   9.8902730e+02   1.8064550e+02
   9.8950950e+02   1.9916890e+02
   9.8999160e+02   2.0404100e+02
   9.9047370e+02   1.8413870e+02
   9.9095580e+02   1.5884860e+02
   9.9143790e+02   1.2504200e+02
   9.9192000e+02   9.4617190e+01
   9.9240220e+02   9.0245120e+01
   9.9288430e+02   1.0644630e+02
   9.9336640e+02   1.1921880e+02
   9.9384850e+02   1.2342480e+02
   9.9433060e+02   1.2774220e+02
   9.9481270e+02   1.5384080e+02
   9.9529490e+02   1.7197360e+02
   9.9577700e+02   1.4496880e+02
   9.9625910e+02   6.0003910e+01
   9.9674120e+02   2.7311520e+01
   9.9722330e+02   6.2961910e+01
   9.9770540e+02   9.3054690e+01
   9.9818760e+02   5.3397460e+01
   9.9866970e+02   1.5367190e+01
   9.9915180e+02   1.2822270e+01
   9.9963390e+02   4.4052730e+01
   1.0001160e+03   8.7089840e+01
   1.0005980e+03   7.3407230e+01
   1.0010800e+03   5.5206050e+01
   1.0015620e+03   5.0556640e+01
   1.0020440e+03   5.2837890e+01
   1.0025270e+03   4.7020510e+01
   1.0030090e+03   3.1523440e+01
   1.0034910e+03   3.5157230e+01
   1.0039730e+03   6.7904300e+01
   1.0044550e+03   1.0015330e+02
   1.0049370e+03   9.2380860e+01
   1.0054190e+03   6.7521480e+01
   1.0059010e+03   5.4640620e+01
   1.0063840e+03   6.1761720e+01
   1.0068660e+03   6.8440430e+01
   1.0073480e+03   6.9950200e+01
   1.0078300e+03   7.4237300e+01
   1.0083120e+03   9.3626950e+01
   1.0087940e+03   1.2058590e+02
   1.0092760e+03   9.4414060e+01
   1.0097580e+03   2.3450200e+01
   1.0102400e+03   2.3832030e+01
   1.0107230e+03   7.1894530e+00
   1.0112050e+03   6.0194340e+01
   1.0116870e+03   1.1133500e+02
   1.0121690e+03   1.5565720e+02
   1.0126510e+03   1.7875100e+02
   1.0131330e+03   1.6234670e+02
   1.0136150e+03   1.8638090e+02
   1.0140970e+03   2.7714450e+02
   1.0145800e+03   3.7429880e+02
   1.0150620e+03   3.7693360e+02
   1.0155440e+03   3.2749800e+02
   1.0160260e+03   3.0848240e+02
   1.0165080e+03   3.4186330e+02
   1.0169900e+03   3.7454980e+02
   1.0174720e+03   3.7764650e+02
   1.0179540e+03   3.8011330e+02
   1.0184360e+03   3.9127440e+02
   1.0189190e+03   4.1283980e+02
   1.0194010e+03   4.7047460e+02
   1.0198830e+03   5.6442380e+02
   1.0203650e+03   6.4183590e+02
   1.0208470e+03   6.4897660e+02
   1.0213290e+03   6.4106840e+02
   1.0218110e+03   6.7889160e+02
   1.0222930e+03   7.4478220e+02
   1.0227760e+03   7.9490230e+02
   1.0232580e+03   8.0136820e+02
   1.0237400e+03   8.2935550e+02
   1.0242220e+03   8.9780760e+02
   1.0247040e+03   9.6881350e+02
   1.0251860e+03   9.8094630e+02
   1.0256680e+03   9.5135160e+02
   1.0261500e+03   9.3363480e+02
   1.0266320e+03   9.3427440e+02
   1.0271150e+03   9.6117190e+02
   1.0275970e+03   1.0563290e+03
   1.0280790e+03   1.1481830e+03
   1.0285610e+03   1.1788200e+03
   1.0290430e+03   1.1511760e+03
   1.0295250e+03   1.1542250e+03
   1.0300070e+03   1.1932930e+03
   1.0304890e+03   1.2268430e+03
   1.0309720e+03   1.2356530e+03
   1.0314540e+03   1.2284790e+03
   1.0319360e+03   1.2053570e+03
   1.0324180e+03   1.1774120e+03
   1.0329000e+03   1.1687640e+03
   1.0333820e+03   1.2377960e+03
   1.0338640e+03   1.2489790e+03
   1.0343460e+03   1.1602850e+03
   1.0348280e+03   1.0504310e+03
   1.0353110e+03   1.0134260e+03
   1.0357930e+03   1.0377930e+03
   1.0362750e+03   1.0512260e+03
   1.0367570e+03   1.0483670e+03
   1.0372390e+03   1.0457890e+03
   1.0377210e+03   1.0782990e+03
   1.0382030e+03   1.0955880e+03
   1.0386850e+03   1.0492050e+03
   1.0391670e+03   9.4642970e+02
   1.0396500e+03   8.6740620e+02
   1.0401320e+03   8.1456840e+02
   1.0406140e+03   7.7878120e+02
   1.0410960e+03   7.6222270e+02
   1.0415780e+03   7.5372660e+02
   1.0420600e+03   7.3988870e+02
   1.0425420e+03   7.2055860e+02
   1.0430240e+03   6.9406640e+02
   1.0435070e+03   6.5116600e+02
   1.0439890e+03   6.1982620e+02
   1.0444710e+03   6.1519140e+02
   1.0449530e+03   6.1129490e+02
   1.0454350e+03   5.8409770e+02
   1.0459170e+03   5.3687890e+02
   1.0463990e+03   5.0252150e+02
   1.0468810e+03   4.8083980e+02
   1.0473640e+03   4.6618160e+02
   1.0478460e+03   4.6253910e+02
   1.0483280e+03   4.5751370e+02
   1.0488100e+03   4.3450200e+02
   1.0492920e+03   4.0193950e+02
   1.0497740e+03   4.0020310e+02
   1.0502560e+03   4.4799220e+02
   1.0507380e+03   4.5648630e+02
   1.0512200e+03   3.9844530e+02
   1.0517030e+03   3.2042770e+02
   1.0521850e+03   2.9133790e+02
   1.0526670e+03   2.8946880e+02
   1.0531490e+03   2.7654690e+02
   1.0536310e+03   2.4016600e+02
   1.0541130e+03   2.1635350e+02
   1.0545950e+03   2.1874410e+02
   1.0550770e+03   2.3216020e+02
   1.0555590e+03   2.5708010e+02
   1.0560420e+03   2.8788280e+02
   1.0565240e+03   2.8129300e+02
   1.0570060e+03   2.4131050e+02
   1.0574880e+03   1.9916020e+02
   1.0579700e+03   1.6908010e+02
   1.0584520e+03   1.4472460e+02
   1.0589340e+03   1.2069530e+02
   1.0594160e+03   9.9964840e+01
   1.0598990e+03   8.8687500e+01
   1.0603810e+03   8.9982420e+01
   1.0608630e+03   8.5808590e+01
   1.0613450e+03   7.1218750e+01
   1.0618270e+03   6.8087890e+01
   1.0623090e+03   1.2376950e+02
   1.0627910e+03   1.9504490e+02
   1.0632730e+03   2.1407620e+02
   1.0637550e+03   1.7601950e+02
   1.0642380e+03   1.2687300e+02
   1.0647200e+03   5.0000000e+01
   1.0652020e+03   3.4667970e+00
   1.0656840e+03   1.4882810e+01
   1.0661660e+03   6.1160160e+01
   1.0666480e+03   8.1974610e+01
   1.0671300e+03   7.9648440e+01
   1.0676120e+03   6.4068360e+01
   1.0680940e+03   2.9125000e+01
   1.0685770e+03   3.3847660e+00
   1.0690590e+03   8.6914060e+00
   1.0695410e+03   2.7984380e+01
   1.0700230e+03   4.6810550e+01
   1.0705050e+03   6.7130860e+01
   1.0709870e+03   6.0978520e+01
   1.0714690e+03   2.5601560e+01
   1.0719510e+03   3.7558590e+00
   1.0724340e+03   1.0873050e+01
   1.0729160e+03   3.4693360e+01
   1.0733980e+03   2.4835940e+01
   1.0738800e+03   1.1681640e+01
   1.0743620e+03   4.8093750e+01
   1.0748440e+03   1.0718550e+02
   1.0753260e+03   1.1563960e+02
   1.0758080e+03   4.3109380e+01
   1.0762910e+03   4.7089840e+01
   1.0767730e+03   5.7400390e+01
   1.0772550e+03   1.3828120e+01
   1.0777370e+03   7.2226560e+00
   1.0782190e+03   6.4257810e+00
   1.0787010e+03   2.0757810e+01
   1.0791830e+03   7.1074220e+00
   1.0796650e+03   2.8496090e+00
   1.0801470e+03   3.6320310e+01
   1.0806300e+03   9.4949220e+01
   1.0811120e+03   1.0169140e+02
   1.0815940e+03   5.8294920e+01
   1.0820760e+03   1.8001950e+01
   1.0825580e+03   9.8437500e-01
   1.0830400e+03   5.6835940e+00
   1.0835220e+03   6.4199220e+00
   1.0840040e+03   7.0410160e+00
   1.0844860e+03   1.7554690e+01
   1.0849690e+03   5.1445310e+01
   1.0854510e+03   5.8421880e+01
   1.0859330e+03   3.4101560e+01
   1.0864150e+03   6.7773400e-01
   1.0868970e+03   3.5021480e+01
   1.0873790e+03   6.6662110e+01
   1.0878610e+03   9.7447270e+01
   1.0883430e+03   1.2316800e+02
   1.0888260e+03   1.2756250e+02
   1.0893080e+03   8.0423830e+01
   1.0897900e+03   4.4308590e+01
   1.0902720e+03   3.0894530e+01
   1.0907540e+03   2.9833980e+01
   1.0912360e+03   3.0416020e+01
   1.0917180e+03   3.2123050e+01
   1.0922000e+03   2.8423830e+01
   1.0926820e+03   1.7199220e+01
   1.0931650e+03   1.7529300e+01
   1.0936470e+03   6.3519530e+01
   1.0941290e+03   1.0416210e+02
   1.0946110e+03   1.0078710e+02
   1.0950930e+03   6.1476560e+01
   1.0955750e+03   4.3328120e+01
   1.0960570e+03   4.7005860e+01
   1.0965390e+03   5.5730470e+01
   1.0970220e+03   6.3843750e+01
   1.0975040e+03   7.3048830e+01
   1.0979860e+03   8.5654300e+01
   1.0984680e+03   1.0041800e+02
   1.0989500e+03   1.1550200e+02
   1.0994320e+03   1.3220900e+02
   1.0999140e+03   1.4430470e+02
   1.1003960e+03   1.5164650e+02
   1.1008790e+03   1.5600200e+02
   1.1013610e+03   1.6386910e+02
   1.1018430e+03   1.6480270e+02
   1.1023250e+03   1.2649410e+02
   1.1028070e+03   6.1636720e+01
   1.1032890e+03   1.8005860e+01
   1.1037710e+03   1.4771480e+01
   1.1042530e+03   3.5812500e+01
   1.1047350e+03   9.4869140e+01
   1.1052180e+03   1.5381450e+02
   1.1057000e+03   1.4465040e+02
   1.1061820e+03   8.4855470e+01
   1.1066640e+03   6.0755860e+01
   1.1071460e+03   8.0943360e+01
   1.1076280e+03   1.0547070e+02
   1.1081100e+03   1.1558790e+02
   1.1085920e+03   1.1697270e+02
   1.1090740e+03   1.1017190e+02
   1.1095570e+03   9.7572270e+01
   1.1100390e+03   8.6832030e+01
   1.1105210e+03   7.7826170e+01
   1.1110030e+03   7.2841800e+01
   1.1114850e+03   7.1636720e+01
   1.1119670e+03   8.0082030e+01
   1.1124490e+03   1.1226950e+02
   1.1129310e+03   1.4787500e+02
   1.1134140e+03   1.6282030e+02
   1.1138960e+03   1.4957620e+02
   1.1143780e+03   1.4713280e+02
   1.1148600e+03   1.5988670e+02
   1.1153420e+03   1.6082620e+02
   1.1158240e+03   1.1548440e+02
   1.1163060e+03   6.5035160e+01
   1.1167880e+03   9.9039060e+01
   1.1172710e+03   1.7663670e+02
   1.1177530e+03   2.0689450e+02
   1.1182350e+03   9.3570310e+01
   1.1187170e+03   3.4792970e+01
   1.1191990e+03   5.9466800e+01
   1.1196810e+03   1.0848050e+02
   1.1201630e+03   1.1850000e+02
   1.1206450e+03   1.1203910e+02
   1.1211270e+03   1.4490820e+02
   1.1216090e+03   2.0932620e+02
   1.1220920e+03   2.4987300e+02
   1.1225740e+03   2.1586520e+02
   1.1230560e+03   1.7622660e+02
   1.1235380e+03   1.4912500e+02
   1.1240200e+03   1.3540430e+02
   1.1245020e+03   1.4496480e+02
   1.1249840e+03   1.7253320e+02
   1.1254660e+03   1.7371880e+02
   1.1259490e+03   1.3836520e+02
   1.1264310e+03   9.7009770e+01
   1.1269130e+03   5.4941410e+01
   1.1273950e+03   2.9544920e+01
   1.1278770e+03   4.2041020e+01
   1.1283590e+03   8.5648440e+01
   1.1288410e+03   1.1115230e+02
   1.1293230e+03   1.1791410e+02
   1.1298060e+03   1.2128910e+02
   1.1302880e+03   1.3161910e+02
   1.1307700e+03   1.3456050e+02
   1.1312520e+03   9.4808590e+01
   1.1317340e+03   4.8078120e+01
   1.1322160e+03   5.0339840e+01
   1.1326980e+03   1.3496090e+02
   1.1331800e+03   1.5448630e+02
   1.1336620e+03   9.7730470e+01
   1.1341450e+03   4.6548830e+01
   1.1346270e+03   6.0375000e+01
   1.1351090e+03   1.0278910e+02
   1.1355910e+03   1.2358200e+02
   1.1360730e+03   1.2664060e+02
   1.1365550e+03   1.1665230e+02
   1.1370370e+03   5.7406250e+01
   1.1375190e+03   4.6529300e+01
   1.1380010e+03   1.0784570e+02
   1.1384840e+03   1.8143750e+02
   1.1389660e+03   2.0440820e+02
   1.1394480e+03   1.9193550e+02
   1.1399300e+03   1.7454490e+02
   1.1404120e+03   1.5483400e+02
   1.1408940e+03   1.4101170e+02
   1.1413760e+03   1.4471480e+02
   1.1418580e+03   1.4385740e+02
   1.1423410e+03   1.2760550e+02
   1.1428230e+03   1.0649410e+02
   1.1433050e+03   1.1183590e+02
   1.1437870e+03   1.3648630e+02
   1.1442690e+03   1.3470310e+02
   1.1447510e+03   9.4470700e+01
   1.1452330e+03   6.3404300e+01
   1.1457150e+03   9.1333980e+01
   1.1461980e+03   1.1207810e+02
   1.1466800e+03   7.8107420e+01
   1.1471620e+03   8.3847660e+00
   1.1476440e+03   2.0214840e+00
   1.1481260e+03   5.3878910e+01
   1.1486080e+03   9.4773440e+01
   1.1490900e+03   1.0144530e+02
   1.1495720e+03   9.6121090e+01
   1.1500540e+03   8.3625000e+01
   1.1505360e+03   7.5359380e+01
   1.1510190e+03   8.5529300e+01
   1.1515010e+03   1.1643750e+02
   1.1519830e+03   1.3654690e+02
   1.1524650e+03   1.4571480e+02
   1.1529470e+03   1.5069730e+02
   1.1534290e+03   1.5921090e+02
   1.1539110e+03   1.6061520e+02
   1.1543930e+03   1.3954300e+02
   1.1548760e+03   1.0614060e+02
   1.1553580e+03   7.6380860e+01
   1.1558400e+03   4.7107420e+01
   1.1563220e+03   4.0619140e+01
   1.1568040e+03   6.2511720e+01
   1.1572860e+03   7.9183590e+01
   1.1577680e+03   4.5177730e+01
   1.1582500e+03   3.7070310e+00
   1.1587330e+03   2.4833980e+01
   1.1592150e+03   8.8404300e+01
   1.1596970e+03   1.1105860e+02
   1.1601790e+03   5.3683590e+01
   1.1606610e+03   1.2287110e+01
   1.1611430e+03   5.0156250e+00
   1.1616250e+03   3.0156250e+00
   1.1621070e+03   6.7675780e+01
   1.1625890e+03   1.4486330e+02
   1.1630720e+03   1.4239060e+02
   1.1635540e+03   6.0582030e+01
   1.1640360e+03   1.9281250e+01
   1.1645180e+03   8.1775390e+01
   1.1650000e+03   1.2828710e+02
   1.1654820e+03   1.2326760e+02
   1.1659640e+03   1.0078120e+02
   1.1664460e+03   1.3787300e+02
   1.1669280e+03   2.0233790e+02
   1.1674110e+03   2.1934770e+02
   1.1678930e+03   1.6803710e+02
   1.1683750e+03   1.0795120e+02
   1.1688570e+03   3.2804690e+01
   1.1693390e+03   9.4472660e+00
   1.1698210e+03   1.3943360e+01
   1.1703030e+03   7.3521480e+01
   1.1707850e+03   7.3830080e+01
   1.1712680e+03   3.5746090e+01
   1.1717500e+03   3.1673830e+01
   1.1722320e+03   1.0096880e+02
   1.1727140e+03   1.6317970e+02
   1.1731960e+03   1.9604300e+02
   1.1736780e+03   1.9957810e+02
   1.1741600e+03   1.5981450e+02
   1.1746420e+03   8.7666020e+01
   1.1751250e+03   5.8843750e+01
   1.1756070e+03   6.8320310e+01
   1.1760890e+03   9.0542970e+01
   1.1765710e+03   1.5099610e+02
   1.1770530e+03   1.7183200e+02
   1.1775350e+03   5.1937500e+01
   1.1780170e+03   7.4357420e+01
   1.1784990e+03   6.3220700e+01
   1.1789810e+03   8.3203120e+01
   1.1794640e+03   1.4920900e+02
   1.1799460e+03   1.3558200e+02
   1.1804280e+03   9.7783200e+01
   1.1809100e+03   4.2994140e+01
   1.1813920e+03   3.8964840e+00
   1.1818740e+03   3.4882810e+00
   1.1823560e+03   2.7257810e+01
   1.1828380e+03   6.0193360e+01
   1.1833200e+03   1.0393360e+02
   1.1838030e+03   1.1361520e+02
   1.1842850e+03   8.2931640e+01
   1.1847670e+03   5.4042970e+01
   1.1852490e+03   5.4589840e+01
   1.1857310e+03   7.3597660e+01
   1.1862130e+03   1.1794730e+02
   1.1866950e+03   1.7166990e+02
   1.1871770e+03   1.9464650e+02
   1.1876600e+03   1.8558400e+02
   1.1881420e+03   1.6110350e+02
   1.1886240e+03   1.2061910e+02
   1.1891060e+03   9.2613280e+01
   1.1895880e+03   1.1309770e+02
   1.1900700e+03   1.4720120e+02
   1.1905520e+03   1.6751370e+02
   1.1910340e+03   1.7394920e+02
   1.1915160e+03   1.8171480e+02
   1.1919990e+03   1.9108200e+02
   1.1924810e+03   1.9821480e+02
   1.1929630e+03   2.0307810e+02
   1.1934450e+03   2.0149610e+02
   1.1939270e+03   1.9003710e+02
   1.1944090e+03   1.7340620e+02
   1.1948910e+03   1.5566410e+02
   1.1953730e+03   1.3718550e+02
   1.1958550e+03   1.0965820e+02
   1.1963380e+03   6.8128910e+01
   1.1968200e+03   5.5914060e+01
   1.1973020e+03   1.0096880e+02
   1.1977840e+03   1.5912500e+02
   1.1982660e+03   1.9188280e+02
   1.1987480e+03   2.0379880e+02
   1.1992300e+03   1.9549020e+02
   1.1997120e+03   1.6243950e+02
   1.2001950e+03   1.4710740e+02
   1.2006770e+03   1.5324020e+02
   1.2011590e+03   1.5031450e+02
   1.2016410e+03   1.0882620e+02
   1.2021230e+03   6.5048830e+01
   1.2026050e+03   6.0904300e+01
   1.2030870e+03   8.4615230e+01
   1.2035690e+03   1.2089650e+02
   1.2040520e+03   1.8402150e+02
   1.2045340e+03   2.0497660e+02
   1.2050160e+03   1.7699220e+02
   1.2054980e+03   1.4313670e+02
   1.2059800e+03   1.2835160e+02
   1.2064620e+03   1.2828520e+02
   1.2069440e+03   1.4594340e+02
   1.2074260e+03   1.7365230e+02
   1.2079080e+03   1.9404690e+02
   1.2083910e+03   2.0966020e+02
   1.2088730e+03   2.0492380e+02
   1.2093550e+03   1.7565820e+02
   1.2098370e+03   1.4465430e+02
   1.2103190e+03   1.3973240e+02
   1.2108010e+03   1.3737890e+02
   1.2112830e+03   9.7929690e+01
   1.2117650e+03   3.7142580e+01
   1.2122470e+03   1.7593750e+01
   1.2127300e+03   6.3296880e+01
   1.2132120e+03   8.0421880e+01
   1.2136940e+03   5.3710940e+01
   1.2141760e+03   2.4048830e+01
   1.2146580e+03   3.8525390e+01
   1.2151400e+03   6.6617190e+01
   1.2156220e+03   7.2017580e+01
   1.2161040e+03   5.6515620e+01
   1.2165870e+03   4.5779300e+01
   1.2170690e+03   3.8046880e+01
   1.2175510e+03   4.9638670e+01
   1.2180330e+03   8.8001950e+01
   1.2185150e+03   1.2410350e+02
   1.2189970e+03   1.1573050e+02
   1.2194790e+03   9.5361330e+01
   1.2199610e+03   1.0345310e+02
   1.2204430e+03   1.3925780e+02
   1.2209260e+03   1.5854100e+02
   1.2214080e+03   1.5986330e+02
   1.2218900e+03   1.3856640e+02
   1.2223720e+03   8.7646480e+01
   1.2228540e+03   3.8781250e+01
   1.2233360e+03   4.2537110e+01
   1.2238180e+03   6.2392580e+01
   1.2243000e+03   4.6328120e+01
   1.2247820e+03   1.2273440e+01
   1.2252650e+03   1.3630860e+01
   1.2257470e+03   5.7208980e+01
   1.2262290e+03   1.1283790e+02
   1.2267110e+03   1.2139650e+02
   1.2271930e+03   1.1552930e+02
   1.2276750e+03   1.4495510e+02
   1.2281570e+03   1.8108790e+02
   1.2286390e+03   1.8665430e+02
   1.2291220e+03   1.5437300e+02
   1.2296040e+03   1.2486130e+02
   1.2300860e+03   9.7558590e+01
   1.2305680e+03   7.8738280e+01
   1.2310500e+03   6.8548830e+01
   1.2315320e+03   7.3189450e+01
   1.2320140e+03   1.2821480e+02
   1.2324960e+03   1.8620900e+02
   1.2329790e+03   1.7868550e+02
   1.2334610e+03   9.1781250e+01
   1.2339430e+03   3.8093750e+01
   1.2344250e+03   1.9160160e+01
   1.2349070e+03   2.2064450e+01
   1.2353890e+03   5.1255860e+01
   1.2358710e+03   7.6945310e+01
   1.2363530e+03   7.8041020e+01
   1.2368350e+03   7.3738280e+01
   1.2373180e+03   8.0478520e+01
   1.2378000e+03   1.0209570e+02
   1.2382820e+03   1.0999610e+02
   1.2387640e+03   1.0376950e+02
   1.2392460e+03   9.0832030e+01
   1.2397280e+03   7.7402340e+01
   1.2402100e+03   6.0458980e+01
   1.2406920e+03   2.0021480e+01
   1.2411750e+03   1.6072270e+01
   1.2416570e+03   3.1953130e+00
   1.2421390e+03   7.3919920e+01
   1.2426210e+03   9.0751950e+01
   1.2431030e+03   4.7058590e+01
   1.2435850e+03   1.0017580e+01
   1.2440670e+03   3.0539060e+01
   1.2445490e+03   6.0863280e+01
   1.2450310e+03   7.2796880e+01
   1.2455140e+03   7.2410160e+01
   1.2459960e+03   6.8228520e+01
   1.2464780e+03   5.9607420e+01
   1.2469600e+03   5.6115230e+01
   1.2474420e+03   5.7574220e+01
   1.2479240e+03   6.1796880e+01
   1.2484060e+03   8.1917970e+01
   1.2488880e+03   8.8630860e+01
   1.2493700e+03   4.6326170e+01
   1.2498530e+03   7.6621090e+00
   1.2503350e+03   2.6152340e+01
   1.2508170e+03   9.8398440e+00
   1.2512990e+03   3.5187500e+01
   1.2517810e+03   1.0395900e+02
   1.2522630e+03   1.4359960e+02
   1.2527450e+03   8.2228520e+01
   1.2532270e+03   3.1062500e+01
   1.2537100e+03   5.4576170e+01
   1.2541920e+03   1.0194140e+02
   1.2546740e+03   1.0620120e+02
   1.2551560e+03   7.4875000e+01
   1.2556380e+03   6.0705080e+01
   1.2561200e+03   6.6873050e+01
   1.2566020e+03   8.1804690e+01
   1.2570840e+03   1.2912500e+02
   1.2575670e+03   1.4186520e+02
   1.2580490e+03   7.7951170e+01
   1.2585310e+03   1.3730470e+00
   1.2590130e+03   5.9199220e+00
   1.2594950e+03   4.6453120e+01
   1.2599770e+03   9.9750000e+01
   1.2604590e+03   1.4637110e+02
   1.2609410e+03   1.7238280e+02
   1.2614230e+03   1.4869920e+02
   1.2619060e+03   1.2981050e+02
   1.2623880e+03   1.2791210e+02
   1.2628700e+03   1.3514060e+02
   1.2633520e+03   1.4119140e+02
   1.2638340e+03   1.4876950e+02
   1.2643160e+03   1.7170900e+02
   1.2647980e+03   2.0793360e+02
   1.2652800e+03   2.2011720e+02
   1.2657620e+03   1.7813090e+02
   1.2662450e+03   1.4054880e+02
   1.2667270e+03   1.1598240e+02
   1.2672090e+03   9.9167970e+01
   1.2676910e+03   8.4882810e+01
   1.2681730e+03   7.1076170e+01
   1.2686550e+03   5.5089840e+01
   1.2691370e+03   3.7531250e+01
   1.2696190e+03   3.2578120e+01
   1.2701020e+03   3.9210940e+01
   1.2705840e+03   6.7867190e+01
   1.2710660e+03   1.3006250e+02
   1.2715480e+03   1.8056050e+02
   1.2720300e+03   1.3907810e+02
   1.2725120e+03   7.1453120e+01
   1.2729940e+03   6.0750000e+01
   1.2734760e+03   1.0932810e+02
   1.2739580e+03   1.2799610e+02
   1.2744410e+03   1.0489060e+02
   1.2749230e+03   9.9603520e+01
   1.2754050e+03   1.3613480e+02
   1.2758870e+03   1.6754300e+02
   1.2763690e+03   1.2616600e+02
   1.2768510e+03   7.0558590e+01
   1.2773330e+03   6.1919920e+01
   1.2778150e+03   9.2083980e+01
   1.2782970e+03   8.9824220e+01
   1.2787800e+03   5.3091800e+01
   1.2792620e+03   2.7722660e+01
   1.2797440e+03   2.2501950e+01
   1.2802260e+03   3.5527340e+01
   1.2807080e+03   6.5074220e+01
   1.2811900e+03   9.3347660e+01
   1.2816720e+03   1.0725200e+02
   1.2821540e+03   1.1054690e+02
   1.2826370e+03   1.1801950e+02
   1.2831190e+03   1.2867770e+02
   1.2836010e+03   1.2870900e+02
   1.2840830e+03   1.1324800e+02
   1.2845650e+03   1.0935160e+02
   1.2850470e+03   1.4859960e+02
   1.2855290e+03   1.8068950e+02
   1.2860110e+03   1.7478710e+02
   1.2864940e+03   1.4961720e+02
   1.2869760e+03   1.6820120e+02
   1.2874580e+03   2.1275780e+02
   1.2879400e+03   2.1627730e+02
   1.2884220e+03   1.5865430e+02
   1.2889040e+03   1.1410350e+02
   1.2893860e+03   1.3153910e+02
   1.2898680e+03   1.3639650e+02
   1.2903500e+03   9.6128910e+01
   1.2908330e+03   4.0373050e+01
   1.2913150e+03   2.6304690e+01
   1.2917970e+03   4.2095700e+01
   1.2922790e+03   7.3144530e+01
   1.2927610e+03   1.2246290e+02
   1.2932430e+03   1.2974610e+02
   1.2937250e+03   7.1472660e+01
   1.2942070e+03   2.2140620e+01
   1.2946890e+03   8.8222660e+00
   1.2951720e+03   1.2144530e+01
   1.2956540e+03   5.4882800e-01
   1.2961360e+03   9.3750000e+00
   1.2966180e+03   9.4667970e+00
   1.2971000e+03   6.4396480e+01
   1.2975820e+03   1.0387110e+02
   1.2980640e+03   1.2958010e+02
   1.2985460e+03   1.2740430e+02
   1.2990290e+03   8.4654300e+01
   1.2995110e+03   3.9447270e+01
   1.2999930e+03   2.8166020e+01
   1.3004750e+03   3.6958980e+01
   1.3009570e+03   5.8164060e+01
   1.3014390e+03   8.7404300e+01
   1.3019210e+03   1.1177150e+02
   1.3024030e+03   1.2539650e+02
   1.3028850e+03   1.1621680e+02
   1.3033680e+03   6.4500000e+01
   1.3038500e+03   1.5410160e+01
   1.3043320e+03   1.0800780e+00
   1.3048140e+03   4.2773400e-01
   1.3052960e+03   8.8632810e+00
   1.3057780e+03   2.4886720e+01
   1.3062600e+03   3.3792970e+01
   1.3067420e+03   1.8476560e+01
   1.3072240e+03   1.3537110e+01
   1.3077070e+03   1.6263670e+01
   1.3081890e+03   0.0000000e+00
   1.5000000e+03   0.0000000e+00
