   1.0000000e+02   0.0000000e+00
   1.2077180e+02   0.0000000e+00
   1.2125390e+02   2.1302490e+00
   1.2173600e+02   1.7401730e+00
   1.2221810e+02   1.7932100e-01
   1.2270030e+02   4.9656980e+00
   1.2318240e+02   1.6017520e+01
   1.2366450e+02   2.6994140e+01
   1.2414660e+02   2.9843440e+01
   1.2462870e+02   2.1862550e+01
   1.2511080e+02   1.2080510e+01
   1.2559300e+02   8.5480960e+00
   1.2607510e+02   1.0469180e+01
   1.2655720e+02   1.5412110e+01
   1.2703930e+02   2.3364870e+01
   1.2752140e+02   3.3004580e+01
   1.2800350e+02   4.0932130e+01
   1.2848570e+02   4.5538820e+01
   1.2896780e+02   4.9630000e+01
   1.2944990e+02   5.7364930e+01
   1.2993200e+02   6.8732240e+01
   1.3041410e+02   8.3146060e+01
   1.3089620e+02   1.0278640e+02
   1.3137840e+02   1.2637730e+02
   1.3186050e+02   1.4453750e+02
   1.3234260e+02   1.5249070e+02
   1.3282470e+02   1.5362810e+02
   1.3330680e+02   1.6041060e+02
   1.3378890e+02   1.7342820e+02
   1.3427110e+02   1.8972720e+02
   1.3475320e+02   2.0646080e+02
   1.3523530e+02   2.2343960e+02
   1.3571740e+02   2.4071200e+02
   1.3619950e+02   2.5833800e+02
   1.3668160e+02   2.7640660e+02
   1.3716380e+02   2.9362980e+02
   1.3764590e+02   3.0847190e+02
   1.3812800e+02   3.2442130e+02
   1.3861010e+02   3.4894810e+02
   1.3909220e+02   3.8571730e+02
   1.3957430e+02   4.2092680e+02
   1.4005650e+02   4.4861780e+02
   1.4053860e+02   4.6757790e+02
   1.4102070e+02   4.8266880e+02
   1.4150280e+02   4.9097180e+02
   1.4198490e+02   4.9595150e+02
   1.4246700e+02   5.1031210e+02
   1.4294920e+02   5.3584780e+02
   1.4343130e+02   5.6810880e+02
   1.4391340e+02   6.0413940e+02
   1.4439550e+02   6.4417970e+02
   1.4487760e+02   6.8778340e+02
   1.4535970e+02   7.3555820e+02
   1.4584190e+02   7.8661850e+02
   1.4632400e+02   8.4171000e+02
   1.4680610e+02   8.9758920e+02
   1.4728820e+02   9.5954040e+02
   1.4777030e+02   1.0314750e+03
   1.4825240e+02   1.1305430e+03
   1.4873460e+02   1.2210650e+03
   1.4921670e+02   1.2938740e+03
   1.4969880e+02   1.3430500e+03
   1.5018090e+02   1.4001860e+03
   1.5066300e+02   1.4671750e+03
   1.5114520e+02   1.5417360e+03
   1.5162730e+02   1.6200930e+03
   1.5210940e+02   1.7119080e+03
   1.5259150e+02   1.7989650e+03
   1.5307360e+02   1.8768540e+03
   1.5355570e+02   1.9465000e+03
   1.5403790e+02   2.0019830e+03
   1.5452000e+02   2.0451030e+03
   1.5500210e+02   2.0738590e+03
   1.5548420e+02   2.0847660e+03
   1.5596630e+02   2.0654090e+03
   1.5644840e+02   2.0364370e+03
   1.5693060e+02   2.0077090e+03
   1.5741270e+02   1.9846690e+03
   1.5789480e+02   1.9565870e+03
   1.5837690e+02   1.9206840e+03
   1.5885900e+02   1.8775070e+03
   1.5934110e+02   1.8292950e+03
   1.5982330e+02   1.7753840e+03
   1.6030540e+02   1.7169500e+03
   1.6078750e+02   1.6546940e+03
   1.6126960e+02   1.5823280e+03
   1.6175170e+02   1.5120680e+03
   1.6223380e+02   1.4493220e+03
   1.6271600e+02   1.3935310e+03
   1.6319810e+02   1.3376480e+03
   1.6368020e+02   1.2790070e+03
   1.6416230e+02   1.2184260e+03
   1.6464440e+02   1.1567690e+03
   1.6512650e+02   1.0851200e+03
   1.6560870e+02   1.0197300e+03
   1.6609080e+02   9.7415580e+02
   1.6657290e+02   9.4811080e+02
   1.6705500e+02   9.2604630e+02
   1.6753710e+02   9.0115480e+02
   1.6801920e+02   8.7470950e+02
   1.6850140e+02   8.4784130e+02
   1.6898350e+02   8.1302080e+02
   1.6946560e+02   7.8274480e+02
   1.6994770e+02   7.7105580e+02
   1.7042980e+02   7.8278830e+02
   1.7091190e+02   7.9661410e+02
   1.7139410e+02   7.9303890e+02
   1.7187620e+02   7.7740000e+02
   1.7235830e+02   7.6549060e+02
   1.7284040e+02   7.6868150e+02
   1.7332250e+02   7.7793970e+02
   1.7380460e+02   7.8519230e+02
   1.7428680e+02   7.9186620e+02
   1.7476890e+02   7.9176070e+02
   1.7525100e+02   7.7417960e+02
   1.7573310e+02   7.4206730e+02
   1.7621520e+02   7.0969950e+02
   1.7669730e+02   6.8191000e+02
   1.7717950e+02   6.5604020e+02
   1.7766160e+02   6.3310660e+02
   1.7814370e+02   6.1425310e+02
   1.7862580e+02   5.9526990e+02
   1.7910790e+02   5.7628210e+02
   1.7959000e+02   5.5687880e+02
   1.8007220e+02   5.3327450e+02
   1.8055430e+02   4.9750980e+02
   1.8103640e+02   4.5402120e+02
   1.8151850e+02   4.1642000e+02
   1.8200060e+02   3.8927860e+02
   1.8248270e+02   3.6979060e+02
   1.8296490e+02   3.5186840e+02
   1.8344700e+02   3.3562960e+02
   1.8392910e+02   3.2130570e+02
   1.8441120e+02   3.1149400e+02
   1.8489330e+02   3.0483830e+02
   1.8537540e+02   2.9492080e+02
   1.8585760e+02   2.7432790e+02
   1.8633970e+02   2.4867380e+02
   1.8682180e+02   2.3778420e+02
   1.8730390e+02   2.4352820e+02
   1.8778600e+02   2.5422050e+02
   1.8826810e+02   2.5467250e+02
   1.8875030e+02   2.4579380e+02
   1.8923240e+02   2.3916390e+02
   1.8971450e+02   2.4090560e+02
   1.9019660e+02   2.4979350e+02
   1.9067870e+02   2.5826550e+02
   1.9116080e+02   2.6582930e+02
   1.9164300e+02   2.7396530e+02
   1.9212510e+02   2.8788620e+02
   1.9260720e+02   3.0785910e+02
   1.9308930e+02   3.2206920e+02
   1.9357140e+02   3.1957360e+02
   1.9405350e+02   3.0174660e+02
   1.9453570e+02   2.9497570e+02
   1.9501780e+02   3.0308830e+02
   1.9549990e+02   3.1913870e+02
   1.9598200e+02   3.3129380e+02
   1.9646410e+02   3.3962980e+02
   1.9694620e+02   3.4279350e+02
   1.9742840e+02   3.3970310e+02
   1.9791050e+02   3.3030260e+02
   1.9839260e+02   3.1618760e+02
   1.9887470e+02   2.9683590e+02
   1.9935680e+02   2.7336250e+02
   1.9983890e+02   2.4853910e+02
   2.0032110e+02   2.2219290e+02
   2.0080320e+02   1.9520300e+02
   2.0128530e+02   1.6610050e+02
   2.0176740e+02   1.3371920e+02
   2.0224950e+02   1.1016890e+02
   2.0273160e+02   1.0042750e+02
   2.0321380e+02   1.0025400e+02
   2.0369590e+02   9.0815550e+01
   2.0417800e+02   6.9521730e+01
   2.0466010e+02   4.6088380e+01
   2.0514220e+02   2.7411010e+01
   2.0562430e+02   1.3254030e+01
   2.0610650e+02   5.5141600e+00
   2.0658860e+02   6.6018070e+00
   2.0707070e+02   1.5171390e+01
   2.0755280e+02   1.9645020e+01
   2.0803490e+02   1.9407840e+01
   2.0851700e+02   1.6259770e+01
   2.0899920e+02   1.1721190e+01
   2.0948130e+02   5.6209720e+00
   2.0996340e+02   1.4940190e+00
   2.1044550e+02   1.0424320e+01
   2.1092760e+02   2.1017460e+01
   2.1140970e+02   2.8376950e+01
   2.1189190e+02   3.2614260e+01
   2.1237400e+02   3.3445310e+01
   2.1285610e+02   2.9755130e+01
   2.1333820e+02   1.9655640e+01
   2.1382030e+02   1.0189580e+01
   2.1430240e+02   2.7800290e+00
   2.1478460e+02   2.5950930e+00
   2.1526670e+02   4.7789310e+00
   2.1574880e+02   2.8286130e+00
   2.1623090e+02   1.2612300e+00
   2.1671300e+02   5.1365970e+00
   2.1719510e+02   9.3317870e+00
   2.1767730e+02   1.2088750e+01
   2.1815940e+02   1.2609250e+01
   2.1864150e+02   1.0419560e+01
   2.1912360e+02   8.5233150e+00
   2.1960570e+02   6.9322510e+00
   2.2008780e+02   5.5701900e+00
   2.2057000e+02   4.5631100e+00
   2.2105210e+02   4.6722410e+00
   2.2153420e+02   3.5627440e+00
   2.2201630e+02   8.8024900e-01
   2.2249840e+02   1.1597050e+01
   2.2298050e+02   1.4093020e+01
   2.2346270e+02   4.4119870e+00
   2.2394480e+02   1.1313110e+01
   2.2442690e+02   2.0973510e+01
   2.2490900e+02   2.3112790e+01
   2.2539110e+02   2.1810910e+01
   2.2587320e+02   1.8202150e+01
   2.2635540e+02   1.1338750e+01
   2.2683750e+02   4.7181400e+00
   2.2731960e+02   2.0491940e+00
   2.2780170e+02   8.3142090e+00
   2.2828380e+02   1.2646850e+01
   2.2876590e+02   1.5123540e+01
   2.2924810e+02   1.5478640e+01
   2.2973020e+02   1.3368650e+01
   2.3021230e+02   7.8458250e+00
   2.3069440e+02   1.6054690e+00
   2.3117650e+02   7.5826420e+00
   2.3165870e+02   1.6966920e+01
   2.3214080e+02   1.7961300e+01
   2.3262290e+02   6.0363770e+00
   2.3310500e+02   7.9255370e+00
   2.3358710e+02   1.8376340e+01
   2.3406920e+02   2.2647710e+01
   2.3455140e+02   2.9379880e+01
   2.3503350e+02   3.9714840e+01
   2.3551560e+02   5.2643680e+01
   2.3599770e+02   6.4991820e+01
   2.3647980e+02   7.6877440e+01
   2.3696190e+02   8.8240970e+01
   2.3744410e+02   9.9477660e+01
   2.3792620e+02   1.1259140e+02
   2.3840830e+02   1.2098470e+02
   2.3889040e+02   1.2141030e+02
   2.3937250e+02   1.1647450e+02
   2.3985460e+02   1.1859090e+02
   2.4033680e+02   1.3141250e+02
   2.4081890e+02   1.4659550e+02
   2.4130100e+02   1.5879480e+02
   2.4178310e+02   1.6435330e+02
   2.4226520e+02   1.7457250e+02
   2.4274730e+02   1.9151840e+02
   2.4322950e+02   2.1422160e+02
   2.4371160e+02   2.3674910e+02
   2.4419370e+02   2.6078750e+02
   2.4467580e+02   2.8272270e+02
   2.4515790e+02   2.9978890e+02
   2.4564000e+02   3.0912240e+02
   2.4612220e+02   3.1945170e+02
   2.4660430e+02   3.3118430e+02
   2.4708640e+02   3.4449930e+02
   2.4756850e+02   3.5984030e+02
   2.4805060e+02   3.7586770e+02
   2.4853270e+02   3.9553120e+02
   2.4901490e+02   4.2180770e+02
   2.4949700e+02   4.5964050e+02
   2.4997910e+02   4.9328530e+02
   2.5046120e+02   5.1963640e+02
   2.5094330e+02   5.3980620e+02
   2.5142540e+02   5.6129220e+02
   2.5190760e+02   5.7976220e+02
   2.5238970e+02   6.0514230e+02
   2.5287180e+02   6.4797450e+02
   2.5335390e+02   7.2156560e+02
   2.5383600e+02   7.7989060e+02
   2.5431810e+02   8.1137460e+02
   2.5480030e+02   8.2014540e+02
   2.5528240e+02   8.4247440e+02
   2.5576450e+02   8.8317210e+02
   2.5624660e+02   9.3050280e+02
   2.5672870e+02   9.7626550e+02
   2.5721080e+02   1.0227240e+03
   2.5769300e+02   1.0623310e+03
   2.5817510e+02   1.0905110e+03
   2.5865720e+02   1.1093020e+03
   2.5913930e+02   1.1374020e+03
   2.5962140e+02   1.1790080e+03
   2.6010350e+02   1.2225910e+03
   2.6058570e+02   1.2570700e+03
   2.6106780e+02   1.2772610e+03
   2.6154990e+02   1.3041180e+03
   2.6203200e+02   1.3428890e+03
   2.6251410e+02   1.3921930e+03
   2.6299620e+02   1.4379970e+03
   2.6347840e+02   1.4819220e+03
   2.6396050e+02   1.5202880e+03
   2.6444260e+02   1.5485260e+03
   2.6492470e+02   1.5621400e+03
   2.6540680e+02   1.5820280e+03
   2.6588890e+02   1.6141130e+03
   2.6637110e+02   1.6558380e+03
   2.6685320e+02   1.6910710e+03
   2.6733530e+02   1.7198700e+03
   2.6781740e+02   1.7413950e+03
   2.6829950e+02   1.7519170e+03
   2.6878160e+02   1.7463500e+03
   2.6926380e+02   1.7502420e+03
   2.6974590e+02   1.7690290e+03
   2.7022800e+02   1.8009360e+03
   2.7071010e+02   1.8363840e+03
   2.7119220e+02   1.8755230e+03
   2.7167430e+02   1.9186060e+03
   2.7215650e+02   1.9673950e+03
   2.7263860e+02   2.0246620e+03
   2.7312070e+02   2.0739340e+03
   2.7360280e+02   2.1095940e+03
   2.7408490e+02   2.1352230e+03
   2.7456700e+02   2.1679070e+03
   2.7504920e+02   2.2067770e+03
   2.7553130e+02   2.2542560e+03
   2.7601340e+02   2.3159620e+03
   2.7649550e+02   2.3942780e+03
   2.7697760e+02   2.4658700e+03
   2.7745970e+02   2.5247800e+03
   2.7794190e+02   2.5732200e+03
   2.7842400e+02   2.6215730e+03
   2.7890610e+02   2.6711650e+03
   2.7938820e+02   2.7166050e+03
   2.7987030e+02   2.7514400e+03
   2.8035240e+02   2.7755610e+03
   2.8083460e+02   2.7995830e+03
   2.8131670e+02   2.8273310e+03
   2.8179880e+02   2.8543880e+03
   2.8228090e+02   2.8704650e+03
   2.8276300e+02   2.8758060e+03
   2.8324510e+02   2.8694320e+03
   2.8372730e+02   2.8517170e+03
   2.8420940e+02   2.8229890e+03
   2.8469150e+02   2.7785250e+03
   2.8517360e+02   2.7154350e+03
   2.8565570e+02   2.6372190e+03
   2.8613780e+02   2.5495710e+03
   2.8662000e+02   2.4519890e+03
   2.8710210e+02   2.3549350e+03
   2.8758420e+02   2.2700690e+03
   2.8806630e+02   2.1953400e+03
   2.8854840e+02   2.1096180e+03
   2.8903050e+02   2.0067290e+03
   2.8951270e+02   1.8935100e+03
   2.8999480e+02   1.7779780e+03
   2.9047690e+02   1.6610220e+03
   2.9095900e+02   1.5527270e+03
   2.9144110e+02   1.4630600e+03
   2.9192320e+02   1.3886120e+03
   2.9240540e+02   1.3134800e+03
   2.9288750e+02   1.2336280e+03
   2.9336960e+02   1.1538300e+03
   2.9385170e+02   1.0844110e+03
   2.9433380e+02   1.0242320e+03
   2.9481590e+02   9.6509880e+02
   2.9529810e+02   9.0075780e+02
   2.9578020e+02   8.3333480e+02
   2.9626230e+02   7.6898730e+02
   2.9674440e+02   7.0731420e+02
   2.9722650e+02   6.5239110e+02
   2.9770860e+02   6.1386540e+02
   2.9819080e+02   5.8942760e+02
   2.9867290e+02   5.6534390e+02
   2.9915500e+02   5.3372910e+02
   2.9963710e+02   4.9665650e+02
   3.0011920e+02   4.5632260e+02
   3.0060130e+02   4.1153970e+02
   3.0108350e+02   3.6853930e+02
   3.0156560e+02   3.3448520e+02
   3.0204770e+02   3.0825070e+02
   3.0252980e+02   2.8729930e+02
   3.0301190e+02   2.7454420e+02
   3.0349400e+02   2.6438550e+02
   3.0397620e+02   2.4747180e+02
   3.0445830e+02   2.2077170e+02
   3.0494040e+02   1.9600630e+02
   3.0542250e+02   1.8946530e+02
   3.0590460e+02   1.9361620e+02
   3.0638670e+02   1.9084170e+02
   3.0686890e+02   1.6206880e+02
   3.0735100e+02   1.2718380e+02
   3.0783310e+02   1.0761990e+02
   3.0831520e+02   1.0691160e+02
   3.0879730e+02   1.0994320e+02
   3.0927940e+02   1.0880830e+02
   3.0976160e+02   1.0389180e+02
   3.1024370e+02   9.5784670e+01
   3.1072580e+02   8.0869380e+01
   3.1120790e+02   6.5600100e+01
   3.1169000e+02   5.4471560e+01
   3.1217210e+02   4.8246220e+01
   3.1265430e+02   4.3727290e+01
   3.1313640e+02   4.1589230e+01
   3.1361850e+02   3.9573120e+01
   3.1410060e+02   3.4670040e+01
   3.1458270e+02   1.7420650e+01
   3.1506480e+02   3.7419430e+00
   3.1554700e+02   5.6353760e+00
   3.1602910e+02   2.4451420e+01
   3.1651120e+02   3.8210690e+01
   3.1699330e+02   3.3588010e+01
   3.1747540e+02   2.1131590e+01
   3.1795760e+02   1.1731080e+01
   3.1843970e+02   1.1372440e+01
   3.1892180e+02   1.1860470e+01
   3.1940390e+02   9.7292480e+00
   3.1988600e+02   4.9436040e+00
   3.2036810e+02   2.3247070e+00
   3.2085030e+02   3.6458740e+00
   3.2133240e+02   7.3114010e+00
   3.2181450e+02   1.2062870e+01
   3.2229660e+02   2.1493410e+01
   3.2277870e+02   2.7962650e+01
   3.2326080e+02   2.7858150e+01
   3.2374300e+02   2.1953980e+01
   3.2422510e+02   1.9173220e+01
   3.2470720e+02   2.5408690e+01
   3.2518930e+02   3.1977420e+01
   3.2567140e+02   3.3631840e+01
   3.2615350e+02   2.2631100e+01
   3.2663570e+02   1.5258910e+01
   3.2711780e+02   1.3494750e+01
   3.2759990e+02   1.6672240e+01
   3.2808200e+02   2.1083860e+01
   3.2856410e+02   3.0453000e+01
   3.2904620e+02   3.7793700e+01
   3.2952840e+02   3.9673710e+01
   3.3001050e+02   3.2738650e+01
   3.3049260e+02   2.5314580e+01
   3.3097470e+02   1.5514280e+01
   3.3145680e+02   5.3443600e+00
   3.3193890e+02   1.5096440e+00
   3.3242110e+02   9.5070800e+00
   3.3290320e+02   1.6291870e+01
   3.3338530e+02   1.5448970e+01
   3.3386740e+02   2.1485600e+00
   3.3434950e+02   5.3674320e+00
   3.3483160e+02   4.9208980e+00
   3.3531380e+02   1.3122600e-01
   3.3579590e+02   1.2430420e+00
   3.3627800e+02   2.9952390e+00
   3.3676010e+02   5.0817870e+00
   3.3724220e+02   2.6513700e-01
   3.3772430e+02   1.3258420e+01
   3.3820650e+02   1.8424190e+01
   3.3868860e+02   1.2875370e+01
   3.3917070e+02   2.7003170e+00
   3.3965280e+02   2.9492190e+00
   3.4013490e+02   3.2558590e+00
   3.4061700e+02   4.1898190e+00
   3.4109920e+02   8.8404540e+00
   3.4158130e+02   1.6516240e+01
   3.4206340e+02   1.9288700e+01
   3.4254550e+02   1.6262570e+01
   3.4302760e+02   1.1459960e+01
   3.4350970e+02   9.2612300e+00
   3.4399190e+02   9.5893550e+00
   3.4447400e+02   1.0685790e+01
   3.4495610e+02   1.3109990e+01
   3.4543820e+02   1.5571410e+01
   3.4592030e+02   1.3357790e+01
   3.4640240e+02   6.2182620e+00
   3.4688460e+02   1.9000240e+00
   3.4736670e+02   8.4443360e+00
   3.4784880e+02   1.3273680e+01
   3.4833090e+02   1.4889650e+01
   3.4881300e+02   1.0569820e+01
   3.4929510e+02   5.6339110e+00
   3.4977730e+02   1.0913090e+01
   3.5025940e+02   2.5257200e+01
   3.5074150e+02   3.8526730e+01
   3.5122360e+02   4.1740840e+01
   3.5170570e+02   3.9286380e+01
   3.5218780e+02   3.9322630e+01
   3.5267000e+02   4.3800290e+01
   3.5315210e+02   5.0128660e+01
   3.5363420e+02   5.5357420e+01
   3.5411630e+02   6.0102780e+01
   3.5459840e+02   6.6338380e+01
   3.5508060e+02   7.6515870e+01
   3.5556270e+02   8.8079590e+01
   3.5604480e+02   9.8464970e+01
   3.5652690e+02   1.0719470e+02
   3.5700900e+02   1.1529000e+02
   3.5749110e+02   1.2162990e+02
   3.5797330e+02   1.2795730e+02
   3.5845540e+02   1.3739000e+02
   3.5893750e+02   1.5737760e+02
   3.5941960e+02   1.7673600e+02
   3.5990170e+02   1.8788650e+02
   3.6038390e+02   1.8854250e+02
   3.6086600e+02   1.8933040e+02
   3.6134810e+02   1.9527370e+02
   3.6183020e+02   2.0346170e+02
   3.6231230e+02   2.1080370e+02
   3.6279440e+02   2.1370360e+02
   3.6327660e+02   2.1954580e+02
   3.6375870e+02   2.3281470e+02
   3.6424080e+02   2.5288130e+02
   3.6472290e+02   2.6690450e+02
   3.6520500e+02   2.6655920e+02
   3.6568710e+02   2.6254850e+02
   3.6616930e+02   2.6258390e+02
   3.6665140e+02   2.7219340e+02
   3.6713350e+02   2.8051870e+02
   3.6761560e+02   2.8658530e+02
   3.6809770e+02   2.9085940e+02
   3.6857980e+02   2.9441720e+02
   3.6906200e+02   2.9789610e+02
   3.6954410e+02   2.9842930e+02
   3.7002620e+02   2.9529320e+02
   3.7050830e+02   2.8689900e+02
   3.7099040e+02   2.8059550e+02
   3.7147250e+02   2.7221590e+02
   3.7195470e+02   2.6446580e+02
   3.7243680e+02   2.7000870e+02
   3.7291890e+02   3.0226660e+02
   3.7340100e+02   3.2454200e+02
   3.7388310e+02   3.1792700e+02
   3.7436520e+02   2.7488090e+02
   3.7484740e+02   2.4510450e+02
   3.7532950e+02   2.3302320e+02
   3.7581160e+02   2.2847530e+02
   3.7629370e+02   2.1541980e+02
   3.7677580e+02   1.9224320e+02
   3.7725790e+02   1.7078540e+02
   3.7774010e+02   1.5487370e+02
   3.7822220e+02   1.4411850e+02
   3.7870430e+02   1.3606130e+02
   3.7918640e+02   1.3094030e+02
   3.7966850e+02   1.2793350e+02
   3.8015060e+02   1.2800610e+02
   3.8063280e+02   1.3057800e+02
   3.8111490e+02   1.2872740e+02
   3.8159700e+02   1.1751830e+02
   3.8207910e+02   1.0348580e+02
   3.8256120e+02   1.0438370e+02
   3.8304330e+02   1.1952320e+02
   3.8352550e+02   1.3227970e+02
   3.8400760e+02   1.2539580e+02
   3.8448970e+02   1.0715690e+02
   3.8497180e+02   9.6660890e+01
   3.8545390e+02   9.8562870e+01
   3.8593600e+02   1.0652650e+02
   3.8641820e+02   1.1589030e+02
   3.8690030e+02   1.2591420e+02
   3.8738240e+02   1.3422410e+02
   3.8786450e+02   1.3894420e+02
   3.8834660e+02   1.4161570e+02
   3.8882870e+02   1.4290650e+02
   3.8931090e+02   1.4211410e+02
   3.8979300e+02   1.4396980e+02
   3.9027510e+02   1.5364670e+02
   3.9075720e+02   1.6789200e+02
   3.9123930e+02   1.8165980e+02
   3.9172140e+02   1.9300710e+02
   3.9220360e+02   2.0293130e+02
   3.9268570e+02   2.1280220e+02
   3.9316780e+02   2.2291060e+02
   3.9364990e+02   2.3204160e+02
   3.9413200e+02   2.3813270e+02
   3.9461410e+02   2.4358420e+02
   3.9509630e+02   2.5063670e+02
   3.9557840e+02   2.5742530e+02
   3.9606050e+02   2.6816890e+02
   3.9654260e+02   2.8514380e+02
   3.9702470e+02   3.0726930e+02
   3.9750680e+02   3.2870130e+02
   3.9798900e+02   3.5105600e+02
   3.9847110e+02   3.7134180e+02
   3.9895320e+02   3.8804850e+02
   3.9943530e+02   4.0106460e+02
   3.9991740e+02   4.1045320e+02
   4.0039950e+02   4.1561430e+02
   4.0088170e+02   4.1782920e+02
   4.0136380e+02   4.1865950e+02
   4.0184590e+02   4.1507020e+02
   4.0232800e+02   4.1481510e+02
   4.0281010e+02   4.2225770e+02
   4.0329220e+02   4.3954380e+02
   4.0377440e+02   4.4891600e+02
   4.0425650e+02   4.4930360e+02
   4.0473860e+02   4.4414040e+02
   4.0522070e+02   4.3668420e+02
   4.0570280e+02   4.2682690e+02
   4.0618490e+02   4.1446800e+02
   4.0666710e+02   3.9861880e+02
   4.0714920e+02   3.8017490e+02
   4.0763130e+02   3.6563200e+02
   4.0811340e+02   3.5589040e+02
   4.0859550e+02   3.4282920e+02
   4.0907760e+02   3.1675230e+02
   4.0955980e+02   2.8034030e+02
   4.1004190e+02   2.4720080e+02
   4.1052400e+02   2.1893260e+02
   4.1100610e+02   1.9594200e+02
   4.1148820e+02   1.8256590e+02
   4.1197030e+02   1.7695730e+02
   4.1245250e+02   1.6885560e+02
   4.1293460e+02   1.4880250e+02
   4.1341670e+02   1.2370850e+02
   4.1389880e+02   1.0516140e+02
   4.1438090e+02   9.5085210e+01
   4.1486300e+02   8.5432250e+01
   4.1534520e+02   6.9012450e+01
   4.1582730e+02   4.8348750e+01
   4.1630940e+02   2.8072630e+01
   4.1679150e+02   6.4865720e+00
   4.1727360e+02   1.1301880e+01
   4.1775570e+02   2.0053710e+01
   4.1823790e+02   2.0334350e+01
   4.1872000e+02   1.9720830e+01
   4.1920210e+02   1.8630130e+01
   4.1968420e+02   1.9802860e+01
   4.2016630e+02   2.5728150e+01
   4.2064840e+02   4.3991940e+01
   4.2113060e+02   5.8340580e+01
   4.2161270e+02   6.3316410e+01
   4.2209480e+02   6.1022460e+01
   4.2257690e+02   5.7912480e+01
   4.2305900e+02   5.4200440e+01
   4.2354110e+02   5.0535030e+01
   4.2402330e+02   4.6947140e+01
   4.2450540e+02   4.2656250e+01
   4.2498750e+02   4.0730960e+01
   4.2546960e+02   4.4387940e+01
   4.2595170e+02   4.8796390e+01
   4.2643380e+02   4.6532840e+01
   4.2691600e+02   3.0479250e+01
   4.2739810e+02   2.1117680e+01
   4.2788020e+02   2.6997440e+01
   4.2836230e+02   4.7069460e+01
   4.2884440e+02   5.1644410e+01
   4.2932650e+02   3.6223880e+01
   4.2980870e+02   1.5187740e+01
   4.3029080e+02   5.2380400e-01
   4.3077290e+02   1.0410640e+01
   4.3125500e+02   1.8291380e+01
   4.3173710e+02   2.2755130e+01
   4.3221920e+02   2.7809940e+01
   4.3270140e+02   4.3952760e+01
   4.3318350e+02   7.1038940e+01
   4.3366560e+02   9.9710450e+01
   4.3414770e+02   1.2533960e+02
   4.3462980e+02   1.4806650e+02
   4.3511190e+02   1.6652650e+02
   4.3559410e+02   1.7967100e+02
   4.3607620e+02   1.9500040e+02
   4.3655830e+02   2.2268360e+02
   4.3704040e+02   2.5910550e+02
   4.3752250e+02   2.9548550e+02
   4.3800460e+02   3.2626480e+02
   4.3848680e+02   3.5664390e+02
   4.3896890e+02   3.9124330e+02
   4.3945100e+02   4.3018370e+02
   4.3993310e+02   4.7264690e+02
   4.4041520e+02   5.2051490e+02
   4.4089730e+02   5.7093400e+02
   4.4137950e+02   6.2068270e+02
   4.4186160e+02   6.6552750e+02
   4.4234370e+02   7.1584580e+02
   4.4282580e+02   7.7754570e+02
   4.4330790e+02   8.4752200e+02
   4.4379000e+02   9.1878660e+02
   4.4427220e+02   9.8971290e+02
   4.4475430e+02   1.0604330e+03
   4.4523640e+02   1.1294330e+03
   4.4571850e+02   1.1932490e+03
   4.4620060e+02   1.2663010e+03
   4.4668270e+02   1.3591850e+03
   4.4716490e+02   1.4571410e+03
   4.4764700e+02   1.5451660e+03
   4.4812910e+02   1.6151500e+03
   4.4861120e+02   1.6880370e+03
   4.4909330e+02   1.7692600e+03
   4.4957540e+02   1.8560730e+03
   4.5005760e+02   1.9368420e+03
   4.5053970e+02   2.0131300e+03
   4.5102180e+02   2.0804220e+03
   4.5150390e+02   2.1341700e+03
   4.5198600e+02   2.1725930e+03
   4.5246810e+02   2.2159410e+03
   4.5295030e+02   2.2696400e+03
   4.5343240e+02   2.3216670e+03
   4.5391450e+02   2.3543040e+03
   4.5439660e+02   2.3676730e+03
   4.5487870e+02   2.3660730e+03
   4.5536080e+02   2.3439210e+03
   4.5584300e+02   2.3092430e+03
   4.5632510e+02   2.2892430e+03
   4.5680720e+02   2.2842270e+03
   4.5728930e+02   2.2717450e+03
   4.5777140e+02   2.2177410e+03
   4.5825350e+02   2.1441000e+03
   4.5873570e+02   2.0953700e+03
   4.5921780e+02   2.0902340e+03
   4.5969990e+02   2.1001880e+03
   4.6018200e+02   2.1014740e+03
   4.6066410e+02   2.0971470e+03
   4.6114620e+02   2.0963200e+03
   4.6162840e+02   2.1019030e+03
   4.6211050e+02   2.1137560e+03
   4.6259260e+02   2.1294300e+03
   4.6307470e+02   2.1468010e+03
   4.6355680e+02   2.1798280e+03
   4.6403890e+02   2.2374900e+03
   4.6452110e+02   2.3115720e+03
   4.6500320e+02   2.3923900e+03
   4.6548530e+02   2.4745900e+03
   4.6596740e+02   2.5672010e+03
   4.6644950e+02   2.6762240e+03
   4.6693160e+02   2.7998370e+03
   4.6741380e+02   2.9180720e+03
   4.6789590e+02   3.0230730e+03
   4.6837800e+02   3.1310820e+03
   4.6886010e+02   3.2502080e+03
   4.6934220e+02   3.3831370e+03
   4.6982430e+02   3.5214690e+03
   4.7030650e+02   3.6685720e+03
   4.7078860e+02   3.8177470e+03
   4.7127070e+02   3.9555050e+03
   4.7175280e+02   4.0817890e+03
   4.7223490e+02   4.1998390e+03
   4.7271700e+02   4.3172820e+03
   4.7319920e+02   4.4285610e+03
   4.7368130e+02   4.5036490e+03
   4.7416340e+02   4.5414120e+03
   4.7464550e+02   4.5539920e+03
   4.7512760e+02   4.5620790e+03
   4.7560970e+02   4.5552360e+03
   4.7609190e+02   4.4926640e+03
   4.7657400e+02   4.3570160e+03
   4.7705610e+02   4.1860890e+03
   4.7753820e+02   4.0162840e+03
   4.7802030e+02   3.8469770e+03
   4.7850240e+02   3.6764000e+03
   4.7898460e+02   3.5087440e+03
   4.7946670e+02   3.3368990e+03
   4.7994880e+02   3.1480190e+03
   4.8043090e+02   2.9394370e+03
   4.8091300e+02   2.7501800e+03
   4.8139510e+02   2.6100020e+03
   4.8187730e+02   2.4963410e+03
   4.8235940e+02   2.3885990e+03
   4.8284150e+02   2.2785710e+03
   4.8332360e+02   2.1760230e+03
   4.8380570e+02   2.0871670e+03
   4.8428780e+02   2.0095930e+03
   4.8477000e+02   1.9324980e+03
   4.8525210e+02   1.8469670e+03
   4.8573420e+02   1.7671220e+03
   4.8621630e+02   1.6985080e+03
   4.8669840e+02   1.6443540e+03
   4.8718050e+02   1.5931160e+03
   4.8766270e+02   1.5429910e+03
   4.8814480e+02   1.4985530e+03
   4.8862690e+02   1.4648000e+03
   4.8910900e+02   1.4432150e+03
   4.8959110e+02   1.4253050e+03
   4.9007320e+02   1.4071100e+03
   4.9055540e+02   1.3922860e+03
   4.9103750e+02   1.3940440e+03
   4.9151960e+02   1.4133190e+03
   4.9200170e+02   1.4406640e+03
   4.9248380e+02   1.4704690e+03
   4.9296590e+02   1.5035670e+03
   4.9344810e+02   1.5429700e+03
   4.9393020e+02   1.5878060e+03
   4.9441230e+02   1.6429360e+03
   4.9489440e+02   1.7119300e+03
   4.9537650e+02   1.7951240e+03
   4.9585860e+02   1.8946650e+03
   4.9634080e+02   2.0111040e+03
   4.9682290e+02   2.1456580e+03
   4.9730500e+02   2.3011050e+03
   4.9778710e+02   2.4760410e+03
   4.9826920e+02   2.6711890e+03
   4.9875130e+02   2.8810290e+03
   4.9923350e+02   3.1133070e+03
   4.9971560e+02   3.3739210e+03
   5.0019770e+02   3.6650290e+03
   5.0067980e+02   3.9775570e+03
   5.0116190e+02   4.3065370e+03
   5.0164400e+02   4.6544800e+03
   5.0212620e+02   5.0288560e+03
   5.0260830e+02   5.4300380e+03
   5.0309040e+02   5.8572380e+03
   5.0357250e+02   6.3076900e+03
   5.0405460e+02   6.7850000e+03
   5.0453670e+02   7.2705770e+03
   5.0501890e+02   7.7623110e+03
   5.0550100e+02   8.2660000e+03
   5.0598310e+02   8.7877440e+03
   5.0646520e+02   9.3233670e+03
   5.0694730e+02   9.8895920e+03
   5.0742940e+02   1.0495850e+04
   5.0791160e+02   1.1116660e+04
   5.0839370e+02   1.1734710e+04
   5.0887580e+02   1.2347240e+04
   5.0935790e+02   1.2957080e+04
   5.0984000e+02   1.3579390e+04
   5.1032210e+02   1.4192600e+04
   5.1080430e+02   1.4774940e+04
   5.1128640e+02   1.5317860e+04
   5.1176850e+02   1.5772200e+04
   5.1225060e+02   1.6125490e+04
   5.1273270e+02   1.6357870e+04
   5.1321480e+02   1.6450790e+04
   5.1369700e+02   1.6411280e+04
   5.1417910e+02   1.6198890e+04
   5.1466120e+02   1.5750030e+04
   5.1514330e+02   1.5119700e+04
   5.1562540e+02   1.4389320e+04
   5.1610750e+02   1.3533830e+04
   5.1658970e+02   1.2633400e+04
   5.1707180e+02   1.1687430e+04
   5.1755390e+02   1.0699660e+04
   5.1803600e+02   9.7693910e+03
   5.1851810e+02   8.9021140e+03
   5.1900020e+02   8.0946540e+03
   5.1948240e+02   7.3639190e+03
   5.1996450e+02   6.7133500e+03
   5.2044660e+02   6.1110470e+03
   5.2092870e+02   5.5541710e+03
   5.2141080e+02   5.0480190e+03
   5.2189290e+02   4.6043630e+03
   5.2237510e+02   4.2333120e+03
   5.2285720e+02   3.8946730e+03
   5.2333930e+02   3.5840760e+03
   5.2382140e+02   3.2968830e+03
   5.2430350e+02   3.0262980e+03
   5.2478560e+02   2.7709260e+03
   5.2526780e+02   2.5347340e+03
   5.2574990e+02   2.3216700e+03
   5.2623200e+02   2.1316220e+03
   5.2671410e+02   1.9691340e+03
   5.2719620e+02   1.8409120e+03
   5.2767830e+02   1.7264660e+03
   5.2816050e+02   1.6054180e+03
   5.2864260e+02   1.4858850e+03
   5.2912470e+02   1.3803260e+03
   5.2960680e+02   1.3024470e+03
   5.3008890e+02   1.2328740e+03
   5.3057100e+02   1.1585950e+03
   5.3105320e+02   1.0820990e+03
   5.3153530e+02   1.0113100e+03
   5.3201740e+02   9.5536460e+02
   5.3249950e+02   9.0170240e+02
   5.3298160e+02   8.4270520e+02
   5.3346370e+02   7.6770920e+02
   5.3394590e+02   7.0933350e+02
   5.3442800e+02   6.7896910e+02
   5.3491010e+02   6.5874390e+02
   5.3539220e+02   6.2648750e+02
   5.3587430e+02   5.7479720e+02
   5.3635640e+02   5.2890450e+02
   5.3683860e+02   4.9451230e+02
   5.3732070e+02   4.6902970e+02
   5.3780280e+02   4.3941640e+02
   5.3828490e+02   4.0471980e+02
   5.3876700e+02   3.7258680e+02
   5.3924910e+02   3.4824890e+02
   5.3973130e+02   3.3055630e+02
   5.4021340e+02   3.1485530e+02
   5.4069550e+02   3.0114070e+02
   5.4117760e+02   2.8680980e+02
   5.4165970e+02   2.6815750e+02
   5.4214180e+02   2.4689930e+02
   5.4262400e+02   2.2669140e+02
   5.4310610e+02   2.0928030e+02
   5.4358820e+02   1.9247300e+02
   5.4407030e+02   1.7404210e+02
   5.4455240e+02   1.5481990e+02
   5.4503450e+02   1.3681490e+02
   5.4551670e+02   1.1906710e+02
   5.4599880e+02   1.0445070e+02
   5.4648090e+02   9.6359860e+01
   5.4696300e+02   9.6785030e+01
   5.4744510e+02   9.2444090e+01
   5.4792720e+02   7.8662600e+01
   5.4840940e+02   6.1041990e+01
   5.4889150e+02   4.3320070e+01
   5.4937360e+02   2.0123660e+01
   5.4985570e+02   7.4945070e+00
   5.5033780e+02   1.1803340e+01
   5.5081990e+02   2.4349850e+01
   5.5130210e+02   2.4054570e+01
   5.5178420e+02   7.8237300e+00
   5.5226630e+02   5.9237060e+00
   5.5274840e+02   9.0164790e+00
   5.5323050e+02   4.0445560e+00
   5.5371260e+02   4.3801270e+00
   5.5419480e+02   9.9897460e+00
   5.5467690e+02   1.6631590e+01
   5.5515900e+02   2.1630000e+01
   5.5564110e+02   2.5338500e+01
   5.5612320e+02   2.8802980e+01
   5.5660530e+02   3.2724000e+01
   5.5708750e+02   3.4137450e+01
   5.5756960e+02   2.5973880e+01
   5.5805170e+02   1.4099490e+01
   5.5853380e+02   8.9519040e+00
   5.5901590e+02   2.0381590e+01
   5.5949800e+02   3.3619750e+01
   5.5998020e+02   4.4312740e+01
   5.6046230e+02   5.1964110e+01
   5.6094440e+02   5.3789310e+01
   5.6142650e+02   4.0925660e+01
   5.6190860e+02   2.8973750e+01
   5.6239070e+02   2.6327880e+01
   5.6287290e+02   3.7115600e+01
   5.6335500e+02   4.3637940e+01
   5.6383710e+02   4.4285030e+01
   5.6431920e+02   4.2418330e+01
   5.6480130e+02   4.2281250e+01
   5.6528340e+02   4.4762700e+01
   5.6576560e+02   4.4024780e+01
   5.6624770e+02   3.8588750e+01
   5.6672980e+02   2.9750980e+01
   5.6721190e+02   1.8528320e+01
   5.6769400e+02   5.2037350e+00
   5.6817610e+02   4.8587650e+00
   5.6865830e+02   5.9847410e+00
   5.6914040e+02   2.9268800e+00
   5.6962250e+02   4.1281740e+00
   5.7010460e+02   9.7896730e+00
   5.7058670e+02   1.6941890e+01
   5.7106880e+02   2.5204590e+01
   5.7155100e+02   3.2987430e+01
   5.7203310e+02   3.8282710e+01
   5.7251520e+02   3.9546390e+01
   5.7299730e+02   4.0583010e+01
   5.7347940e+02   4.1277830e+01
   5.7396150e+02   4.2982790e+01
   5.7444370e+02   4.7875000e+01
   5.7492580e+02   6.1584230e+01
   5.7540790e+02   7.2611080e+01
   5.7589000e+02   7.7206300e+01
   5.7637210e+02   7.6286380e+01
   5.7685420e+02   7.9527710e+01
   5.7733640e+02   8.9496220e+01
   5.7781850e+02   9.8598140e+01
   5.7830060e+02   1.0092470e+02
   5.7878270e+02   9.5844360e+01
   5.7926480e+02   9.7390010e+01
   5.7974690e+02   1.0708150e+02
   5.8022910e+02   1.1837290e+02
   5.8071120e+02   1.2471460e+02
   5.8119330e+02   1.2635900e+02
   5.8167540e+02   1.2370390e+02
   5.8215750e+02   1.1499370e+02
   5.8263960e+02   1.0516000e+02
   5.8312180e+02   9.8927250e+01
   5.8360390e+02   9.6120730e+01
   5.8408600e+02   9.6254760e+01
   5.8456810e+02   1.0771290e+02
   5.8505020e+02   1.1510250e+02
   5.8553230e+02   1.0418870e+02
   5.8601450e+02   7.4464360e+01
   5.8649660e+02   5.1910520e+01
   5.8697870e+02   4.6655760e+01
   5.8746080e+02   4.8508420e+01
   5.8794290e+02   5.0216920e+01
   5.8842500e+02   4.1255490e+01
   5.8890720e+02   5.4716060e+01
   5.8938930e+02   1.1233340e+02
   5.8987140e+02   1.7445620e+02
   5.9035350e+02   1.7788170e+02
   5.9083560e+02   1.0727050e+02
   5.9131770e+02   5.3911870e+01
   5.9179990e+02   4.3941280e+01
   5.9228200e+02   6.1768680e+01
   5.9276410e+02   6.5322880e+01
   5.9324620e+02   5.5127930e+01
   5.9372830e+02   4.3730470e+01
   5.9421040e+02   3.7845340e+01
   5.9469260e+02   3.5894410e+01
   5.9517470e+02   3.5962770e+01
   5.9565680e+02   3.7955810e+01
   5.9613890e+02   4.0463500e+01
   5.9662100e+02   4.1228880e+01
   5.9710310e+02   4.2599370e+01
   5.9758530e+02   4.7834230e+01
   5.9806740e+02   6.3140140e+01
   5.9854950e+02   7.2164670e+01
   5.9903160e+02   6.5244140e+01
   5.9951370e+02   5.0182980e+01
   5.9999580e+02   4.0188350e+01
   6.0047800e+02   3.9976070e+01
   6.0096010e+02   3.9901730e+01
   6.0144230e+02   3.7972530e+01
   6.0192440e+02   3.4760990e+01
   6.0240650e+02   3.2953250e+01
   6.0288860e+02   3.2299560e+01
   6.0337070e+02   3.3829710e+01
   6.0385280e+02   4.0434810e+01
   6.0433500e+02   5.1081420e+01
   6.0481710e+02   5.3531010e+01
   6.0529920e+02   4.6810790e+01
   6.0578130e+02   3.8489500e+01
   6.0626340e+02   3.6242310e+01
   6.0674550e+02   3.7622560e+01
   6.0722770e+02   3.7529420e+01
   6.0770980e+02   3.4728640e+01
   6.0819190e+02   3.0416870e+01
   6.0867400e+02   2.3295040e+01
   6.0915610e+02   1.5601320e+01
   6.0963820e+02   1.1648070e+01
   6.1012040e+02   1.7614260e+01
   6.1060250e+02   2.2395260e+01
   6.1108460e+02   2.0025270e+01
   6.1156670e+02   1.1572140e+01
   6.1204880e+02   9.1439210e+00
   6.1253090e+02   1.7770390e+01
   6.1301310e+02   2.6867680e+01
   6.1349520e+02   3.1942260e+01
   6.1397730e+02   3.2583250e+01
   6.1445940e+02   3.3439940e+01
   6.1494150e+02   3.3664180e+01
   6.1542360e+02   3.5892090e+01
   6.1590580e+02   4.6056270e+01
   6.1638790e+02   6.2421140e+01
   6.1687000e+02   6.9356450e+01
   6.1735210e+02   6.3058470e+01
   6.1783420e+02   5.0021970e+01
   6.1831630e+02   3.5890010e+01
   6.1879850e+02   2.2766850e+01
   6.1928060e+02   1.5933960e+01
   6.1976270e+02   2.1194460e+01
   6.2024480e+02   2.7906250e+01
   6.2072690e+02   2.7696170e+01
   6.2120900e+02   2.2576050e+01
   6.2169120e+02   1.9938350e+01
   6.2217330e+02   2.6655030e+01
   6.2265540e+02   3.3606810e+01
   6.2313750e+02   3.5343140e+01
   6.2361960e+02   2.9530760e+01
   6.2410170e+02   2.6386470e+01
   6.2458390e+02   2.6941410e+01
   6.2506600e+02   2.9817260e+01
   6.2554810e+02   3.4236330e+01
   6.2603020e+02   3.9944580e+01
   6.2651230e+02   4.4224000e+01
   6.2699440e+02   4.7396120e+01
   6.2747660e+02   5.0073120e+01
   6.2795870e+02   5.0155880e+01
   6.2844080e+02   4.6728030e+01
   6.2892290e+02   4.3479130e+01
   6.2940500e+02   4.4176390e+01
   6.2988710e+02   4.5600100e+01
   6.3036930e+02   4.0459590e+01
   6.3085140e+02   3.0140500e+01
   6.3133350e+02   2.2300660e+01
   6.3181560e+02   2.3526860e+01
   6.3229770e+02   2.8153930e+01
   6.3277980e+02   3.2797970e+01
   6.3326200e+02   3.7814330e+01
   6.3374410e+02   4.5069580e+01
   6.3422620e+02   6.1226320e+01
   6.3470830e+02   7.2947020e+01
   6.3519040e+02   7.1557740e+01
   6.3567250e+02   4.8612060e+01
   6.3615470e+02   3.6258180e+01
   6.3663680e+02   3.8012450e+01
   6.3711890e+02   4.5667110e+01
   6.3760100e+02   4.9683110e+01
   6.3808310e+02   4.9421390e+01
   6.3856520e+02   4.7578000e+01
   6.3904740e+02   4.3759640e+01
   6.3952950e+02   4.0388670e+01
   6.4001160e+02   4.1765750e+01
   6.4049370e+02   4.7156860e+01
   6.4097580e+02   5.4045170e+01
   6.4145790e+02   6.5728520e+01
   6.4194010e+02   7.4926030e+01
   6.4242220e+02   7.1716550e+01
   6.4290430e+02   5.8293330e+01
   6.4338640e+02   5.0280030e+01
   6.4386850e+02   5.8962770e+01
   6.4435060e+02   7.0488650e+01
   6.4483280e+02   7.7166500e+01
   6.4531490e+02   7.6173460e+01
   6.4579700e+02   7.8870360e+01
   6.4627910e+02   8.8303470e+01
   6.4676120e+02   9.8134400e+01
   6.4724330e+02   1.0272840e+02
   6.4772550e+02   1.0114440e+02
   6.4820760e+02   9.9311520e+01
   6.4868970e+02   9.7449580e+01
   6.4917180e+02   9.6244630e+01
   6.4965390e+02   9.7239750e+01
   6.5013600e+02   1.0005800e+02
   6.5061820e+02   1.0286720e+02
   6.5110030e+02   1.0599940e+02
   6.5158240e+02   1.0766080e+02
   6.5206450e+02   1.0282120e+02
   6.5254660e+02   9.4262700e+01
   6.5302870e+02   9.0440060e+01
   6.5351090e+02   1.0102370e+02
   6.5399300e+02   1.1245430e+02
   6.5447510e+02   1.1855920e+02
   6.5495720e+02   1.1895310e+02
   6.5543930e+02   1.1410720e+02
   6.5592140e+02   9.7055420e+01
   6.5640360e+02   8.1186890e+01
   6.5688570e+02   7.2657710e+01
   6.5736780e+02   7.2634640e+01
   6.5784990e+02   7.5893920e+01
   6.5833200e+02   8.4648560e+01
   6.5881410e+02   9.1861450e+01
   6.5929630e+02   8.8404910e+01
   6.5977840e+02   7.5317500e+01
   6.6026050e+02   6.3213500e+01
   6.6074260e+02   5.3533450e+01
   6.6122470e+02   4.6200070e+01
   6.6170680e+02   3.9738770e+01
   6.6218900e+02   3.5562010e+01
   6.6267110e+02   3.6797730e+01
   6.6315320e+02   5.2404050e+01
   6.6363530e+02   6.6523440e+01
   6.6411740e+02   6.9517820e+01
   6.6459950e+02   6.3864990e+01
   6.6508170e+02   5.7593140e+01
   6.6556380e+02   5.2584110e+01
   6.6604590e+02   4.7067140e+01
   6.6652800e+02   3.9426640e+01
   6.6701010e+02   2.9559810e+01
   6.6749220e+02   2.4276860e+01
   6.6797440e+02   2.6267460e+01
   6.6845650e+02   2.8353880e+01
   6.6893860e+02   2.5016110e+01
   6.6942070e+02   1.6347530e+01
   6.6990280e+02   1.0021000e+01
   6.7038490e+02   6.9764400e+00
   6.7086710e+02   5.3262940e+00
   6.7134920e+02   1.7279050e+00
   6.7183130e+02   1.8352050e+00
   6.7231340e+02   2.6977500e-01
   6.7279550e+02   1.0186400e+01
   6.7327760e+02   1.8656980e+01
   6.7375980e+02   1.5210820e+01
   6.7424190e+02   6.0085450e+00
   6.7472400e+02   1.2963900e-01
   6.7520610e+02   4.8552250e+00
   6.7568820e+02   7.3569340e+00
   6.7617030e+02   2.3414310e+00
   6.7665250e+02   6.6303710e+00
   6.7713460e+02   9.4678960e+00
   6.7761670e+02   3.2888180e+00
   6.7809880e+02   3.0782470e+00
   6.7858090e+02   8.0406490e+00
   6.7906300e+02   1.0723880e+01
   6.7954520e+02   4.3323970e+00
   6.8002730e+02   1.1220580e+01
   6.8050940e+02   2.4897580e+01
   6.8099150e+02   2.7576420e+01
   6.8147360e+02   2.3853520e+01
   6.8195570e+02   2.1450680e+01
   6.8243790e+02   2.0823970e+01
   6.8292000e+02   1.9489620e+01
   6.8340210e+02   1.2608520e+01
   6.8388420e+02   6.2275390e+00
   6.8436630e+02   6.8666990e+00
   6.8484840e+02   2.2204220e+01
   6.8533060e+02   2.9191650e+01
   6.8581270e+02   1.3551880e+01
   6.8629480e+02   6.1005860e+00
   6.8677690e+02   9.9886470e+00
   6.8725900e+02   1.0780270e+01
   6.8774110e+02   2.1391720e+01
   6.8822330e+02   1.5084110e+01
   6.8870540e+02   6.4599600e-01
   6.8918750e+02   6.2155760e+00
   6.8966960e+02   5.8282470e+00
   6.9015170e+02   1.0679930e+00
   6.9063390e+02   1.0566770e+01
   6.9111600e+02   2.2161250e+01
   6.9159810e+02   2.3030520e+01
   6.9208020e+02   1.5391720e+01
   6.9256230e+02   6.6960450e+00
   6.9304440e+02   2.9415280e+00
   6.9352660e+02   9.3297120e+00
   6.9400870e+02   7.4660640e+00
   6.9449080e+02   2.3757320e+00
   6.9497290e+02   7.0662840e+00
   6.9545500e+02   1.2388920e+00
   6.9593710e+02   6.7194820e+00
   6.9641930e+02   1.3618040e+01
   6.9690140e+02   1.9380000e+01
   6.9738350e+02   2.4690670e+01
   6.9786560e+02   2.9610840e+01
   6.9834770e+02   3.3913820e+01
   6.9882980e+02   3.7571660e+01
   6.9931200e+02   4.0465330e+01
   6.9979410e+02   4.1144780e+01
   7.0027620e+02   3.8875240e+01
   7.0075830e+02   3.7744750e+01
   7.0124040e+02   4.3826050e+01
   7.0172250e+02   5.3043700e+01
   7.0220470e+02   5.9143550e+01
   7.0268680e+02   5.7266720e+01
   7.0316890e+02   5.6663090e+01
   7.0365100e+02   5.9383910e+01
   7.0413310e+02   6.5928100e+01
   7.0461520e+02   7.7855960e+01
   7.0509740e+02   1.0595640e+02
   7.0557950e+02   1.2224630e+02
   7.0606160e+02   1.1642400e+02
   7.0654370e+02   9.8213380e+01
   7.0702580e+02   9.9103760e+01
   7.0750790e+02   1.2139110e+02
   7.0799010e+02   1.4252110e+02
   7.0847220e+02   1.5326730e+02
   7.0895430e+02   1.5638170e+02
   7.0943640e+02   1.5614720e+02
   7.0991850e+02   1.5319670e+02
   7.1040060e+02   1.5200180e+02
   7.1088280e+02   1.5632310e+02
   7.1136490e+02   1.6290270e+02
   7.1184700e+02   1.6854090e+02
   7.1232910e+02   1.7298550e+02
   7.1281120e+02   1.7991100e+02
   7.1329330e+02   1.9619350e+02
   7.1377550e+02   2.1053610e+02
   7.1425760e+02   2.1552660e+02
   7.1473970e+02   2.0780760e+02
   7.1522180e+02   2.0336230e+02
   7.1570390e+02   2.0225650e+02
   7.1618600e+02   2.0437170e+02
   7.1666820e+02   2.1095920e+02
   7.1715030e+02   2.2157680e+02
   7.1763240e+02   2.3021300e+02
   7.1811450e+02   2.3611550e+02
   7.1859660e+02   2.3994780e+02
   7.1907870e+02   2.4201680e+02
   7.1956090e+02   2.4266350e+02
   7.2004300e+02   2.4230870e+02
   7.2052510e+02   2.3935660e+02
   7.2100720e+02   2.3816810e+02
   7.2148930e+02   2.4330460e+02
   7.2197140e+02   2.5113510e+02
   7.2245360e+02   2.5521500e+02
   7.2293570e+02   2.4798190e+02
   7.2341780e+02   2.4613950e+02
   7.2389990e+02   2.5454870e+02
   7.2438200e+02   2.6921290e+02
   7.2486410e+02   2.7739060e+02
   7.2534630e+02   2.7782920e+02
   7.2582840e+02   2.8049370e+02
   7.2631050e+02   2.9230240e+02
   7.2679260e+02   3.0705940e+02
   7.2727470e+02   3.0605030e+02
   7.2775680e+02   2.9222720e+02
   7.2823900e+02   2.8332930e+02
   7.2872110e+02   2.9555980e+02
   7.2920320e+02   3.1303990e+02
   7.2968530e+02   3.1983070e+02
   7.3016740e+02   3.1627260e+02
   7.3064950e+02   3.2147290e+02
   7.3113170e+02   3.4991550e+02
   7.3161380e+02   3.7987050e+02
   7.3209590e+02   3.9992420e+02
   7.3257800e+02   4.0798780e+02
   7.3306010e+02   4.1958240e+02
   7.3354220e+02   4.3649010e+02
   7.3402440e+02   4.5155760e+02
   7.3450650e+02   4.5448610e+02
   7.3498860e+02   4.4861950e+02
   7.3547070e+02   4.5556990e+02
   7.3595280e+02   4.7773190e+02
   7.3643490e+02   5.0622410e+02
   7.3691710e+02   5.3717850e+02
   7.3739920e+02   5.6712590e+02
   7.3788130e+02   5.9061710e+02
   7.3836340e+02   6.0659280e+02
   7.3884550e+02   6.1670650e+02
   7.3932760e+02   6.1114730e+02
   7.3980980e+02   6.0446850e+02
   7.4029190e+02   6.1666610e+02
   7.4077400e+02   6.6734180e+02
   7.4125610e+02   7.0228380e+02
   7.4173820e+02   7.1108980e+02
   7.4222030e+02   7.0788790e+02
   7.4270250e+02   7.1927510e+02
   7.4318460e+02   7.4582080e+02
   7.4366670e+02   7.6818650e+02
   7.4414880e+02   7.7923060e+02
   7.4463090e+02   7.8427500e+02
   7.4511300e+02   7.9253690e+02
   7.4559520e+02   8.0213490e+02
   7.4607730e+02   8.0863720e+02
   7.4655940e+02   8.0742640e+02
   7.4704150e+02   8.0453340e+02
   7.4752360e+02   8.0124800e+02
   7.4800570e+02   7.9859240e+02
   7.4848790e+02   8.0032960e+02
   7.4897000e+02   8.1478660e+02
   7.4945210e+02   8.2392630e+02
   7.4993420e+02   8.2185230e+02
   7.5041630e+02   8.1029390e+02
   7.5089840e+02   8.0310580e+02
   7.5138060e+02   8.0084840e+02
   7.5186270e+02   7.9505520e+02
   7.5234480e+02   7.7469070e+02
   7.5282690e+02   7.4825600e+02
   7.5330900e+02   7.4052500e+02
   7.5379110e+02   7.4962120e+02
   7.5427330e+02   7.5630940e+02
   7.5475540e+02   7.4611240e+02
   7.5523750e+02   7.3006640e+02
   7.5571960e+02   7.1602220e+02
   7.5620170e+02   7.0508520e+02
   7.5668380e+02   6.9442530e+02
   7.5716600e+02   6.8087460e+02
   7.5764810e+02   6.7003090e+02
   7.5813020e+02   6.6590140e+02
   7.5861230e+02   6.7058610e+02
   7.5909440e+02   6.7085900e+02
   7.5957650e+02   6.6638000e+02
   7.6005870e+02   6.5858800e+02
   7.6054080e+02   6.4819400e+02
   7.6102290e+02   6.3561610e+02
   7.6150500e+02   6.2124880e+02
   7.6198710e+02   6.0446120e+02
   7.6246920e+02   5.8994520e+02
   7.6295140e+02   5.8431540e+02
   7.6343350e+02   5.8165170e+02
   7.6391560e+02   5.7487730e+02
   7.6439770e+02   5.5758950e+02
   7.6487980e+02   5.4525610e+02
   7.6536190e+02   5.4398510e+02
   7.6584410e+02   5.4673030e+02
   7.6632620e+02   5.4660410e+02
   7.6680830e+02   5.4356120e+02
   7.6729040e+02   5.3767760e+02
   7.6777250e+02   5.2864250e+02
   7.6825460e+02   5.1738020e+02
   7.6873680e+02   5.0309940e+02
   7.6921890e+02   4.8732970e+02
   7.6970100e+02   4.7573600e+02
   7.7018310e+02   4.7091590e+02
   7.7066520e+02   4.7017300e+02
   7.7114730e+02   4.7211980e+02
   7.7162950e+02   4.7448240e+02
   7.7211160e+02   4.7485680e+02
   7.7259370e+02   4.7143380e+02
   7.7307580e+02   4.6773520e+02
   7.7355790e+02   4.6770540e+02
   7.7404000e+02   4.6712330e+02
   7.7452220e+02   4.5446980e+02
   7.7500430e+02   4.2514790e+02
   7.7548640e+02   4.0064550e+02
   7.7596850e+02   3.8812850e+02
   7.7645060e+02   3.8287410e+02
   7.7693270e+02   3.7247810e+02
   7.7741490e+02   3.5859530e+02
   7.7789700e+02   3.5038780e+02
   7.7837910e+02   3.5947220e+02
   7.7886120e+02   3.7110420e+02
   7.7934330e+02   3.7005030e+02
   7.7982540e+02   3.5918480e+02
   7.8030760e+02   3.5106740e+02
   7.8078970e+02   3.5387320e+02
   7.8127180e+02   3.5553490e+02
   7.8175390e+02   3.5042750e+02
   7.8223600e+02   3.4012610e+02
   7.8271810e+02   3.3749900e+02
   7.8320030e+02   3.4497330e+02
   7.8368240e+02   3.5104300e+02
   7.8416450e+02   3.4635690e+02
   7.8464660e+02   3.3719270e+02
   7.8512870e+02   3.4786900e+02
   7.8561080e+02   3.7641300e+02
   7.8609300e+02   4.0070860e+02
   7.8657510e+02   4.0242100e+02
   7.8705720e+02   3.9600260e+02
   7.8753930e+02   3.8863330e+02
   7.8802140e+02   3.8132960e+02
   7.8850350e+02   3.8558080e+02
   7.8898570e+02   4.1946000e+02
   7.8946780e+02   4.5128550e+02
   7.8994990e+02   4.6556740e+02
   7.9043200e+02   4.6102640e+02
   7.9091410e+02   4.6618580e+02
   7.9139620e+02   4.8285180e+02
   7.9187840e+02   4.9743710e+02
   7.9236050e+02   4.9717880e+02
   7.9284260e+02   4.8804280e+02
   7.9332470e+02   4.8464360e+02
   7.9380680e+02   4.8737520e+02
   7.9428890e+02   4.9330050e+02
   7.9477110e+02   5.0383920e+02
   7.9525320e+02   5.1456920e+02
   7.9573530e+02   5.1969140e+02
   7.9621740e+02   5.1670680e+02
   7.9669950e+02   5.2153380e+02
   7.9718160e+02   5.4290890e+02
   7.9766380e+02   5.6491720e+02
   7.9814590e+02   5.7667850e+02
   7.9862800e+02   5.7610820e+02
   7.9911010e+02   5.8512830e+02
   7.9959220e+02   6.0592770e+02
   8.0007430e+02   6.2365380e+02
   8.0055650e+02   6.1982360e+02
   8.0103860e+02   6.0432060e+02
   8.0152070e+02   5.9731090e+02
   8.0200280e+02   6.0183700e+02
   8.0248490e+02   6.0825880e+02
   8.0296700e+02   6.1132280e+02
   8.0344920e+02   6.1353370e+02
   8.0393130e+02   6.1665610e+02
   8.0441340e+02   6.2054610e+02
   8.0489550e+02   6.2669810e+02
   8.0537760e+02   6.3632390e+02
   8.0585970e+02   6.4664200e+02
   8.0634190e+02   6.5713500e+02
   8.0682400e+02   6.6809050e+02
   8.0730610e+02   6.6709310e+02
   8.0778820e+02   6.5104020e+02
   8.0827030e+02   6.3555760e+02
   8.0875240e+02   6.4391420e+02
   8.0923460e+02   6.6070830e+02
   8.0971670e+02   6.6113890e+02
   8.1019880e+02   6.3632980e+02
   8.1068090e+02   6.0950380e+02
   8.1116300e+02   5.8916000e+02
   8.1164510e+02   5.7187810e+02
   8.1212730e+02   5.5503060e+02
   8.1260940e+02   5.4245080e+02
   8.1309150e+02   5.2066710e+02
   8.1357360e+02   4.8571500e+02
   8.1405570e+02   4.4804370e+02
   8.1453780e+02   4.2087770e+02
   8.1502000e+02   4.0197890e+02
   8.1550210e+02   3.7899670e+02
   8.1598420e+02   3.4963040e+02
   8.1646630e+02   3.1818270e+02
   8.1694840e+02   2.8620360e+02
   8.1743050e+02   2.5607460e+02
   8.1791270e+02   2.3122030e+02
   8.1839480e+02   2.1705680e+02
   8.1887690e+02   1.9846950e+02
   8.1935900e+02   1.6546980e+02
   8.1984110e+02   1.3149680e+02
   8.2032320e+02   1.0951480e+02
   8.2080540e+02   1.0265840e+02
   8.2128750e+02   9.4939330e+01
   8.2176960e+02   8.4492920e+01
   8.2225170e+02   7.4719240e+01
   8.2273380e+02   7.1169800e+01
   8.2321590e+02   7.1449340e+01
   8.2369810e+02   6.9288210e+01
   8.2418020e+02   6.3135740e+01
   8.2466230e+02   5.4893070e+01
   8.2514440e+02   4.3684330e+01
   8.2562650e+02   3.2159300e+01
   8.2610860e+02   2.3074460e+01
   8.2659080e+02   2.2279790e+01
   8.2707290e+02   1.5547610e+01
   8.2755500e+02   2.0222170e+00
   8.2803710e+02   2.0020630e+01
   8.2851920e+02   2.3925540e+01
   8.2900130e+02   1.3641480e+01
   8.2948350e+02   6.3332520e+00
   8.2996560e+02   4.6406250e+00
   8.3044770e+02   4.6859130e+00
   8.3092980e+02   1.2445070e+00
   8.3141190e+02   3.0566410e+00
   8.3189400e+02   3.8262940e+00
   8.3237620e+02   1.0665280e+00
   8.3285830e+02   5.5073240e+00
   8.3334040e+02   8.0502930e+00
   8.3382250e+02   8.5812990e+00
   8.3430460e+02   6.4687500e+00
   8.3478670e+02   1.3194580e+00
   8.3526890e+02   2.4548340e+00
   8.3575100e+02   6.1665040e+00
   8.3623310e+02   1.6275270e+01
   8.3671520e+02   1.5244630e+01
   8.3719730e+02   6.1853030e+00
   8.3767940e+02   8.4973100e-01
   8.3816160e+02   2.0053710e+00
   8.3864370e+02   4.0096440e+00
   8.3912580e+02   4.0866700e+00
   8.3960790e+02   1.7089840e+00
   8.4009000e+02   4.3638920e+00
   8.4057210e+02   2.0712650e+01
   8.4105430e+02   2.8476680e+01
   8.4153640e+02   2.3675660e+01
   8.4201850e+02   1.3109010e+01
   8.4250060e+02   1.0809330e+00
   8.4298270e+02   1.2904790e+01
   8.4346480e+02   1.5349000e+01
   8.4394700e+02   3.3206790e+00
   8.4442910e+02   1.1864010e+01
   8.4491120e+02   2.1107420e+01
   8.4539330e+02   2.4222290e+01
   8.4587540e+02   1.9366700e+01
   8.4635750e+02   3.5521240e+00
   8.4683970e+02   1.0174070e+01
   8.4732180e+02   1.8108280e+01
   8.4780390e+02   2.0489140e+01
   8.4828600e+02   1.6767580e+01
   8.4876810e+02   2.1876220e+00
   8.4925020e+02   4.5540770e+00
   8.4973240e+02   1.3754880e+00
   8.5021450e+02   4.0960690e+00
   8.5069660e+02   3.4886470e+00
   8.5117870e+02   7.5427200e-01
   8.5166080e+02   3.0969200e-01
   8.5214290e+02   6.0361330e+00
   8.5262510e+02   9.8937990e+00
   8.5310720e+02   8.1677200e-01
   8.5358930e+02   1.1290160e+01
   8.5407140e+02   1.6880740e+01
   8.5455350e+02   1.1875490e+01
   8.5503560e+02   8.7200930e+00
   8.5551780e+02   9.0490720e+00
   8.5599990e+02   1.0594970e+01
   8.5648200e+02   1.0994630e+01
   8.5696410e+02   9.7739260e+00
   8.5744620e+02   1.3109500e+01
   8.5792830e+02   2.1739500e+01
   8.5841050e+02   2.9740840e+01
   8.5889260e+02   3.2033080e+01
   8.5937470e+02   2.9900760e+01
   8.5985680e+02   2.3508060e+01
   8.6033890e+02   1.2429810e+01
   8.6082100e+02   6.0769040e+00
   8.6130320e+02   1.2647830e+01
   8.6178530e+02   2.1118650e+01
   8.6226740e+02   2.5772580e+01
   8.6274950e+02   2.6602910e+01
   8.6323160e+02   2.1876710e+01
   8.6371370e+02   9.8701170e+00
   8.6419590e+02   3.2605000e-01
   8.6467800e+02   8.4521500e-01
   8.6516010e+02   5.2463380e+00
   8.6564220e+02   1.1738890e+01
   8.6612430e+02   1.8193850e+01
   8.6660640e+02   2.2943480e+01
   8.6708860e+02   2.3337520e+01
   8.6757070e+02   2.2795040e+01
   8.6805280e+02   2.4544920e+01
   8.6853490e+02   2.8922970e+01
   8.6901700e+02   2.7422730e+01
   8.6949910e+02   1.5880370e+01
   8.6998130e+02   6.5605470e+00
   8.7046340e+02   6.1789550e+00
   8.7094550e+02   1.2680910e+01
   8.7142760e+02   1.6749510e+01
   8.7190970e+02   1.8337770e+01
   8.7239180e+02   1.8835330e+01
   8.7287400e+02   1.7799560e+01
   8.7335610e+02   1.7022090e+01
   8.7383820e+02   1.9627320e+01
   8.7432030e+02   2.4801510e+01
   8.7480240e+02   2.6423710e+01
   8.7528450e+02   1.2791870e+01
   8.7576670e+02   6.7355960e+00
   8.7624880e+02   1.9390380e+01
   8.7673090e+02   4.4491090e+01
   8.7721300e+02   4.8376710e+01
   8.7769510e+02   2.9226680e+01
   8.7817720e+02   1.3040410e+01
   8.7865940e+02   1.3843630e+01
   8.7914150e+02   2.3232420e+01
   8.7962360e+02   3.0153930e+01
   8.8010570e+02   3.4565190e+01
   8.8058780e+02   3.9483030e+01
   8.8106990e+02   5.1913090e+01
   8.8155210e+02   5.9409180e+01
   8.8203420e+02   5.3987670e+01
   8.8251630e+02   4.1927120e+01
   8.8299840e+02   3.7118900e+01
   8.8348050e+02   4.1695680e+01
   8.8396260e+02   4.1524660e+01
   8.8444480e+02   3.0963010e+01
   8.8492690e+02   1.8739990e+01
   8.8540900e+02   2.0308720e+01
   8.8589110e+02   3.0230100e+01
   8.8637320e+02   3.8138670e+01
   8.8685530e+02   4.2962160e+01
   8.8733750e+02   4.2640620e+01
   8.8781960e+02   2.7349370e+01
   8.8830170e+02   1.0034550e+01
   8.8878380e+02   1.0087770e+01
   8.8926590e+02   3.8042720e+01
   8.8974800e+02   5.6417110e+01
   8.9023020e+02   6.1489870e+01
   8.9071230e+02   5.7807980e+01
   8.9119440e+02   4.8749150e+01
   8.9167650e+02   3.6865360e+01
   8.9215860e+02   2.8253420e+01
   8.9264070e+02   2.2889650e+01
   8.9312290e+02   2.2272950e+01
   8.9360500e+02   3.2512450e+01
   8.9408710e+02   4.4453120e+01
   8.9456920e+02   5.0300660e+01
   8.9505130e+02   4.7123290e+01
   8.9553340e+02   4.2771240e+01
   8.9601560e+02   3.5896000e+01
   8.9649770e+02   2.9631840e+01
   8.9697980e+02   2.7410160e+01
   8.9746190e+02   2.8553960e+01
   8.9794400e+02   2.6432370e+01
   8.9842610e+02   2.0655270e+01
   8.9890830e+02   1.7211550e+01
   8.9939040e+02   2.4415890e+01
   8.9987250e+02   3.3549560e+01
   9.0035460e+02   3.6268920e+01
   9.0083670e+02   3.0602780e+01
   9.0131880e+02   2.6487180e+01
   9.0180100e+02   2.6357180e+01
   9.0228310e+02   2.7971800e+01
   9.0276520e+02   2.9102660e+01
   9.0324730e+02   3.0387330e+01
   9.0372940e+02   3.1763550e+01
   9.0421150e+02   3.3237920e+01
   9.0469370e+02   3.4473140e+01
   9.0517580e+02   3.6848020e+01
   9.0565790e+02   3.8745970e+01
   9.0614000e+02   3.9837650e+01
   9.0662210e+02   4.0259160e+01
   9.0710420e+02   3.6149170e+01
   9.0758640e+02   1.6271480e+01
   9.0806850e+02   4.3977050e+00
   9.0855060e+02   9.3293460e+00
   9.0903270e+02   2.5490840e+01
   9.0951480e+02   3.5929080e+01
   9.0999690e+02   4.0273190e+01
   9.1047910e+02   4.0756710e+01
   9.1096120e+02   3.7609990e+01
   9.1144330e+02   3.3535030e+01
   9.1192540e+02   3.3393310e+01
   9.1240750e+02   3.4659550e+01
   9.1288960e+02   3.2545410e+01
   9.1337180e+02   1.7335080e+01
   9.1385390e+02   9.4390870e+00
   9.1433600e+02   1.7791260e+01
   9.1481810e+02   3.1067750e+01
   9.1530020e+02   3.2194460e+01
   9.1578230e+02   1.9343020e+01
   9.1626450e+02   1.9140750e+01
   9.1674660e+02   3.8083980e+01
   9.1722870e+02   5.6908570e+01
   9.1771080e+02   4.9758420e+01
   9.1819290e+02   2.9683350e+01
   9.1867500e+02   1.6058470e+01
   9.1915720e+02   1.3968870e+01
   9.1963930e+02   1.4260130e+01
   9.2012140e+02   1.4104370e+01
   9.2060350e+02   1.5364870e+01
   9.2108560e+02   1.9945430e+01
   9.2156770e+02   2.8622440e+01
   9.2204990e+02   3.3956050e+01
   9.2253200e+02   3.6247190e+01
   9.2301410e+02   3.6256230e+01
   9.2349620e+02   3.1107540e+01
   9.2397830e+02   2.5093020e+01
   9.2446040e+02   2.6811160e+01
   9.2494260e+02   3.5834230e+01
   9.2542470e+02   4.0635500e+01
   9.2590680e+02   3.1572750e+01
   9.2638890e+02   2.2381710e+01
   9.2687100e+02   1.9471310e+01
   9.2735310e+02   2.1805540e+01
   9.2783530e+02   2.1019900e+01
   9.2831740e+02   1.6608400e+01
   9.2879950e+02   1.5670040e+01
   9.2928160e+02   2.4101320e+01
   9.2976370e+02   3.4826900e+01
   9.3024590e+02   3.7199580e+01
   9.3072800e+02   3.2627810e+01
   9.3121010e+02   2.5106570e+01
   9.3169230e+02   8.5618900e+00
   9.3217440e+02   1.6103520e+00
   9.3265650e+02   6.4172360e+00
   9.3313860e+02   2.0286620e+01
   9.3362070e+02   1.7033330e+01
   9.3410280e+02   6.9263920e+00
   9.3458500e+02   1.7254030e+01
   9.3506710e+02   4.4536130e+00
   9.3554920e+02   1.3138180e+01
   9.3603130e+02   8.4268800e+00
   9.3651340e+02   7.0147710e+00
   9.3699550e+02   1.3295650e+01
   9.3747770e+02   1.9689940e+00
   9.3795980e+02   7.1356200e+00
   9.3844190e+02   4.4267580e+00
   9.3892400e+02   8.9758300e-01
   9.3940610e+02   2.4162600e+00
   9.3988820e+02   1.7724600e-01
   9.4037040e+02   6.0451660e+00
   9.4085250e+02   1.5943730e+01
   9.4133460e+02   2.3947880e+01
   9.4181670e+02   2.3567870e+01
   9.4229880e+02   1.8914180e+01
   9.4278090e+02   1.5563480e+01
   9.4326310e+02   1.4009770e+01
   9.4374520e+02   1.2615970e+01
   9.4422730e+02   1.1434690e+01
   9.4470940e+02   9.2579350e+00
   9.4519150e+02   5.1254880e+00
   9.4567360e+02   5.5639600e-01
   9.4615580e+02   5.3996580e+00
   9.4663790e+02   9.1260990e+00
   9.4712000e+02   9.6951900e+00
   9.4760210e+02   4.6441650e+00
   9.4808420e+02   1.0065920e+00
   9.4856630e+02   1.9525150e+00
   9.4904850e+02   9.3511960e+00
   9.4953060e+02   1.1833740e+01
   9.5001270e+02   6.3732900e-01
   9.5049480e+02   9.4947510e+00
   9.5097690e+02   9.8204350e+00
   9.5145900e+02   6.3446040e+00
   9.5194120e+02   5.5792240e+00
   9.5242330e+02   7.5524900e+00
   9.5290540e+02   8.0582280e+00
   9.5338750e+02   5.9519040e+00
   9.5386960e+02   4.8745120e+00
   9.5435170e+02   1.1564580e+01
   9.5483390e+02   2.0092290e+01
   9.5531600e+02   2.2001830e+01
   9.5579810e+02   1.3185550e+01
   9.5628020e+02   8.6822510e+00
   9.5676230e+02   1.6430910e+01
   9.5724440e+02   2.3093990e+01
   9.5772660e+02   2.0228270e+01
   9.5820870e+02   8.2272950e+00
   9.5869080e+02   6.0897220e+00
   9.5917290e+02   2.2582640e+01
   9.5965500e+02   2.9426880e+01
   9.6013710e+02   8.0589600e+00
   9.6061930e+02   1.8389530e+01
   9.6110140e+02   2.7238530e+01
   9.6158350e+02   2.0781130e+01
   9.6206560e+02   1.4854250e+01
   9.6254770e+02   1.2869140e+01
   9.6302980e+02   1.0344730e+01
   9.6351200e+02   4.2058110e+00
   9.6399410e+02   1.2393800e+00
   9.6447620e+02   8.7644040e+00
   9.6495830e+02   3.1114260e+01
   9.6544040e+02   4.3523680e+01
   9.6592250e+02   3.5682250e+01
   9.6640470e+02   2.5081420e+01
   9.6688680e+02   2.3337520e+01
   9.6736890e+02   2.7463750e+01
   9.6785100e+02   3.4145390e+01
   9.6833310e+02   4.5842530e+01
   9.6881520e+02   5.4840450e+01
   9.6929740e+02   6.1749630e+01
   9.6977950e+02   6.5031620e+01
   9.7026160e+02   5.9229370e+01
   9.7074370e+02   4.8497680e+01
   9.7122580e+02   5.0282470e+01
   9.7170790e+02   6.5380250e+01
   9.7219010e+02   7.9826170e+01
   9.7267220e+02   8.2603760e+01
   9.7315430e+02   8.2912350e+01
   9.7363640e+02   8.6792360e+01
   9.7411850e+02   9.4435420e+01
   9.7460060e+02   1.0101970e+02
   9.7508280e+02   1.0642210e+02
   9.7556490e+02   1.1010290e+02
   9.7604700e+02   1.1068700e+02
   9.7652910e+02   1.1030680e+02
   9.7701120e+02   1.1211220e+02
   9.7749330e+02   1.1704650e+02
   9.7797550e+02   1.2750600e+02
   9.7845760e+02   1.5464400e+02
   9.7893970e+02   1.7527310e+02
   9.7942180e+02   1.7427830e+02
   9.7990390e+02   1.6606930e+02
   9.8038600e+02   1.7061910e+02
   9.8086820e+02   1.9084950e+02
   9.8135030e+02   2.0478860e+02
   9.8183240e+02   2.0933500e+02
   9.8231450e+02   2.1260180e+02
   9.8279660e+02   2.2496500e+02
   9.8327870e+02   2.4078980e+02
   9.8376090e+02   2.5053960e+02
   9.8424300e+02   2.5224440e+02
   9.8472510e+02   2.5739370e+02
   9.8520720e+02   2.7476920e+02
   9.8568930e+02   2.9073770e+02
   9.8617140e+02   2.9761350e+02
   9.8665360e+02   2.9738780e+02
   9.8713570e+02   3.0925920e+02
   9.8761780e+02   3.3236230e+02
   9.8809990e+02   3.4999910e+02
   9.8858200e+02   3.4782960e+02
   9.8906410e+02   3.4116440e+02
   9.8954630e+02   3.4507650e+02
   9.9002840e+02   3.5503390e+02
   9.9051050e+02   3.6180580e+02
   9.9099260e+02   3.5905200e+02
   9.9147470e+02   3.5948520e+02
   9.9195680e+02   3.6466100e+02
   9.9243900e+02   3.7103540e+02
   9.9292110e+02   3.7341240e+02
   9.9340320e+02   3.7329690e+02
   9.9388530e+02   3.7693870e+02
   9.9436740e+02   3.8539790e+02
   9.9484950e+02   3.9294400e+02
   9.9533170e+02   3.9916000e+02
   9.9581380e+02   4.0188040e+02
   9.9629590e+02   3.9783910e+02
   9.9677800e+02   3.8620610e+02
   9.9726010e+02   3.7575770e+02
   9.9774220e+02   3.6731560e+02
   9.9822440e+02   3.5822400e+02
   9.9870650e+02   3.4525460e+02
   9.9918860e+02   3.3118410e+02
   9.9967070e+02   3.2185560e+02
   1.0001530e+03   3.1684530e+02
   1.0006350e+03   3.1497240e+02
   1.0011170e+03   3.1733250e+02
   1.0015990e+03   3.2092380e+02
   1.0020810e+03   3.3006710e+02
   1.0025630e+03   3.3703910e+02
   1.0030460e+03   3.2587850e+02
   1.0035280e+03   2.9441980e+02
   1.0040100e+03   2.7403850e+02
   1.0044920e+03   2.7036770e+02
   1.0049740e+03   2.7374910e+02
   1.0054560e+03   2.7900700e+02
   1.0059380e+03   2.8294120e+02
   1.0064200e+03   2.8065950e+02
   1.0069020e+03   2.7042930e+02
   1.0073850e+03   2.5993370e+02
   1.0078670e+03   2.5025940e+02
   1.0083490e+03   2.4108240e+02
   1.0088310e+03   2.3104470e+02
   1.0093130e+03   2.2124320e+02
   1.0097950e+03   2.2270940e+02
   1.0102770e+03   2.3277770e+02
   1.0107590e+03   2.3384010e+02
   1.0112420e+03   2.0499600e+02
   1.0117240e+03   1.7507410e+02
   1.0122060e+03   1.6120210e+02
   1.0126880e+03   1.6012550e+02
   1.0131700e+03   1.6436780e+02
   1.0136520e+03   1.7694260e+02
   1.0141340e+03   1.8125560e+02
   1.0146160e+03   1.7420570e+02
   1.0150980e+03   1.6369620e+02
   1.0155810e+03   1.5918070e+02
   1.0160630e+03   1.5874120e+02
   1.0165450e+03   1.5938700e+02
   1.0170270e+03   1.6079930e+02
   1.0175090e+03   1.5789710e+02
   1.0179910e+03   1.4531430e+02
   1.0184730e+03   1.3365540e+02
   1.0189550e+03   1.2813730e+02
   1.0194380e+03   1.2820830e+02
   1.0199200e+03   1.2929410e+02
   1.0204020e+03   1.3137210e+02
   1.0208840e+03   1.3060400e+02
   1.0213660e+03   1.2321260e+02
   1.0218480e+03   1.1381030e+02
   1.0223300e+03   1.0581990e+02
   1.0228120e+03   9.9822390e+01
   1.0232940e+03   9.7513180e+01
   1.0237770e+03   1.0050810e+02
   1.0242590e+03   1.0554420e+02
   1.0247410e+03   1.1369020e+02
   1.0252230e+03   1.2155540e+02
   1.0257050e+03   1.2687890e+02
   1.0261870e+03   1.2862180e+02
   1.0266690e+03   1.2140140e+02
   1.0271510e+03   1.0451750e+02
   1.0276330e+03   8.8267460e+01
   1.0281160e+03   7.6878300e+01
   1.0285980e+03   6.9748900e+01
   1.0290800e+03   6.5418580e+01
   1.0295620e+03   6.4286010e+01
   1.0300440e+03   7.5946410e+01
   1.0305260e+03   1.0313400e+02
   1.0310080e+03   1.1975180e+02
   1.0314900e+03   1.1042350e+02
   1.0319730e+03   9.3198240e+01
   1.0324550e+03   9.4932370e+01
   1.0329370e+03   1.0594580e+02
   1.0334190e+03   1.0902160e+02
   1.0339010e+03   8.8630980e+01
   1.0343830e+03   7.6497800e+01
   1.0348650e+03   7.8125490e+01
   1.0353470e+03   8.3942020e+01
   1.0358290e+03   8.6714360e+01
   1.0363120e+03   8.6028560e+01
   1.0367940e+03   7.5531250e+01
   1.0372760e+03   5.5727050e+01
   1.0377580e+03   4.3989750e+01
   1.0382400e+03   6.1548580e+01
   1.0387220e+03   8.2516360e+01
   1.0392040e+03   8.9315430e+01
   1.0396860e+03   8.4031740e+01
   1.0401680e+03   8.1442500e+01
   1.0406510e+03   8.1876590e+01
   1.0411330e+03   8.3483890e+01
   1.0416150e+03   8.5868650e+01
   1.0420970e+03   8.9021360e+01
   1.0425790e+03   9.3458980e+01
   1.0430610e+03   9.8545530e+01
   1.0435430e+03   1.0362390e+02
   1.0440250e+03   1.1076180e+02
   1.0445080e+03   1.1147690e+02
   1.0449900e+03   9.9386350e+01
   1.0454720e+03   8.6689330e+01
   1.0459540e+03   8.1792360e+01
   1.0464360e+03   8.3920290e+01
   1.0469180e+03   8.1602420e+01
   1.0474000e+03   7.5784790e+01
   1.0478820e+03   7.5989870e+01
   1.0483650e+03   9.9565550e+01
   1.0488470e+03   1.1985550e+02
   1.0493290e+03   1.1394210e+02
   1.0498110e+03   9.1741820e+01
   1.0502930e+03   8.3833980e+01
   1.0507750e+03   9.7649410e+01
   1.0512570e+03   9.7886720e+01
   1.0517390e+03   7.5499630e+01
   1.0522210e+03   5.1684450e+01
   1.0527030e+03   5.8696900e+01
   1.0531860e+03   7.9382810e+01
   1.0536680e+03   8.6141480e+01
   1.0541500e+03   7.3321040e+01
   1.0546320e+03   5.9680180e+01
   1.0551140e+03   4.5328000e+01
   1.0555960e+03   3.7340820e+01
   1.0560780e+03   4.0959590e+01
   1.0565600e+03   5.2929200e+01
   1.0570430e+03   6.0394650e+01
   1.0575250e+03   6.3101810e+01
   1.0580070e+03   5.8992800e+01
   1.0584890e+03   4.1620850e+01
   1.0589710e+03   2.5044800e+01
   1.0594530e+03   1.9975830e+01
   1.0599350e+03   2.0130000e+01
   1.0604170e+03   1.5611450e+01
   1.0609000e+03   2.6077880e+00
   1.0613820e+03   6.5368700e-01
   1.0618640e+03   8.0233150e+00
   1.0623460e+03   1.8154540e+01
   1.0628280e+03   2.2991090e+01
   1.0633100e+03   2.2139530e+01
   1.0637920e+03   1.2299320e+01
   1.0642740e+03   5.2266850e+00
   1.0647560e+03   1.9265140e+01
   1.0652390e+03   2.4996090e+01
   1.0657210e+03   2.8702640e+01
   1.0662030e+03   3.1454470e+01
   1.0666850e+03   3.3238530e+01
   1.0671670e+03   3.4834350e+01
   1.0676490e+03   3.5599370e+01
   1.0681310e+03   3.1583130e+01
   1.0686130e+03   1.9663090e+01
   1.0690950e+03   1.1577760e+01
   1.0695780e+03   2.2115480e+01
   1.0700600e+03   3.3523680e+01
   1.0705420e+03   3.1338990e+01
   1.0710240e+03   1.4841190e+01
   1.0715060e+03   2.0614010e+00
   1.0719880e+03   1.9816280e+01
   1.0724700e+03   3.3827390e+01
   1.0729520e+03   3.9268800e+01
   1.0734350e+03   4.1582640e+01
   1.0739170e+03   4.6377930e+01
   1.0743990e+03   5.2812740e+01
   1.0748810e+03   5.9094850e+01
   1.0753630e+03   6.3517940e+01
   1.0758450e+03   7.0124020e+01
   1.0763270e+03   7.9667480e+01
   1.0768090e+03   9.0319580e+01
   1.0772920e+03   1.0023490e+02
   1.0777740e+03   1.0958540e+02
   1.0782560e+03   1.1917960e+02
   1.0787380e+03   1.2899730e+02
   1.0792200e+03   1.3798510e+02
   1.0797020e+03   1.4371220e+02
   1.0801840e+03   1.5081250e+02
   1.0806660e+03   1.6243130e+02
   1.0811480e+03   1.7612350e+02
   1.0816300e+03   1.8226940e+02
   1.0821130e+03   1.8152770e+02
   1.0825950e+03   1.8826900e+02
   1.0830770e+03   2.0942100e+02
   1.0835590e+03   2.3023280e+02
   1.0840410e+03   2.4016160e+02
   1.0845230e+03   2.4176770e+02
   1.0850050e+03   2.3379970e+02
   1.0854870e+03   2.1078040e+02
   1.0859700e+03   2.1275510e+02
   1.0864520e+03   2.4541430e+02
   1.0869340e+03   2.7799950e+02
   1.0874160e+03   2.9426810e+02
   1.0878980e+03   2.9708590e+02
   1.0883800e+03   2.8113200e+02
   1.0888620e+03   2.5596000e+02
   1.0893440e+03   2.4709660e+02
   1.0898270e+03   2.8129350e+02
   1.0903090e+03   3.0656530e+02
   1.0907910e+03   3.1444010e+02
   1.0912730e+03   3.1543810e+02
   1.0917550e+03   3.2172450e+02
   1.0922370e+03   3.3163510e+02
   1.0927190e+03   3.3649880e+02
   1.0932010e+03   3.3599390e+02
   1.0936830e+03   3.4098680e+02
   1.0941660e+03   3.6826920e+02
   1.0946480e+03   3.9194950e+02
   1.0951300e+03   3.9519080e+02
   1.0956120e+03   3.8506510e+02
   1.0960940e+03   3.8327810e+02
   1.0965760e+03   3.8986240e+02
   1.0970580e+03   3.9757650e+02
   1.0975400e+03   4.0421520e+02
   1.0980230e+03   4.1264310e+02
   1.0985050e+03   4.2990490e+02
   1.0989870e+03   4.4779150e+02
   1.0994690e+03   4.5571920e+02
   1.0999510e+03   4.4918400e+02
   1.1004330e+03   4.5392320e+02
   1.1009150e+03   4.7414750e+02
   1.1013970e+03   4.8991760e+02
   1.1018800e+03   4.8629500e+02
   1.1023620e+03   4.7516170e+02
   1.1028440e+03   4.7893870e+02
   1.1033260e+03   4.9174800e+02
   1.1038080e+03   5.0028300e+02
   1.1042900e+03   4.9013160e+02
   1.1047720e+03   4.9049870e+02
   1.1052540e+03   5.0781810e+02
   1.1057360e+03   5.2989360e+02
   1.1062190e+03   5.4445970e+02
   1.1067010e+03   5.5324610e+02
   1.1071830e+03   5.6453220e+02
   1.1076650e+03   5.7815800e+02
   1.1081470e+03   5.8741360e+02
   1.1086290e+03   5.8034810e+02
   1.1091110e+03   5.7736960e+02
   1.1095930e+03   5.8970190e+02
   1.1100750e+03   6.1117650e+02
   1.1105580e+03   6.3177610e+02
   1.1110400e+03   6.5134510e+02
   1.1115220e+03   6.6425010e+02
   1.1120040e+03   6.6853220e+02
   1.1124860e+03   6.7277610e+02
   1.1129680e+03   6.8532320e+02
   1.1134500e+03   7.0070850e+02
   1.1139320e+03   7.1407100e+02
   1.1144150e+03   7.2508870e+02
   1.1148970e+03   7.3419700e+02
   1.1153790e+03   7.3964250e+02
   1.1158610e+03   7.5337220e+02
   1.1163430e+03   7.8508130e+02
   1.1168250e+03   8.1886040e+02
   1.1173070e+03   8.2887880e+02
   1.1177890e+03   8.2698720e+02
   1.1182710e+03   8.3271570e+02
   1.1187540e+03   8.5795210e+02
   1.1192360e+03   8.7329320e+02
   1.1197180e+03   8.7305630e+02
   1.1202000e+03   8.7350630e+02
   1.1206820e+03   8.8905520e+02
   1.1211640e+03   9.1346040e+02
   1.1216460e+03   9.3007740e+02
   1.1221280e+03   9.3950870e+02
   1.1226100e+03   9.4401950e+02
   1.1230930e+03   9.4516280e+02
   1.1235750e+03   9.4085520e+02
   1.1240570e+03   9.2648750e+02
   1.1245390e+03   9.1161430e+02
   1.1250210e+03   9.0954710e+02
   1.1255030e+03   9.1837210e+02
   1.1259850e+03   9.2782370e+02
   1.1264670e+03   9.3722380e+02
   1.1269500e+03   9.4258650e+02
   1.1274320e+03   9.3811040e+02
   1.1279140e+03   9.3071800e+02
   1.1283960e+03   9.2729870e+02
   1.1288780e+03   9.2479130e+02
   1.1293600e+03   9.0800070e+02
   1.1298420e+03   8.7603940e+02
   1.1303240e+03   8.6241880e+02
   1.1308070e+03   8.7869850e+02
   1.1312890e+03   8.9600240e+02
   1.1317710e+03   8.8418230e+02
   1.1322530e+03   8.6313290e+02
   1.1327350e+03   8.5216170e+02
   1.1332170e+03   8.5330570e+02
   1.1336990e+03   8.4905330e+02
   1.1341810e+03   8.3704100e+02
   1.1346630e+03   8.3424480e+02
   1.1351460e+03   8.5593480e+02
   1.1356280e+03   8.7771750e+02
   1.1361100e+03   8.5917040e+02
   1.1365920e+03   8.2188280e+02
   1.1370740e+03   7.9826550e+02
   1.1375560e+03   8.0796410e+02
   1.1380380e+03   8.0375850e+02
   1.1385200e+03   7.7917570e+02
   1.1390020e+03   7.5635610e+02
   1.1394850e+03   7.5777050e+02
   1.1399670e+03   7.6956320e+02
   1.1404490e+03   7.5838770e+02
   1.1409310e+03   7.3003670e+02
   1.1414130e+03   7.0359420e+02
   1.1418950e+03   6.8496970e+02
   1.1423770e+03   6.7061470e+02
   1.1428590e+03   6.6092990e+02
   1.1433420e+03   6.5311960e+02
   1.1438240e+03   6.4609860e+02
   1.1443060e+03   6.3812300e+02
   1.1447880e+03   6.2245070e+02
   1.1452700e+03   5.9944680e+02
   1.1457520e+03   5.7620040e+02
   1.1462340e+03   5.5328970e+02
   1.1467160e+03   5.3563610e+02
   1.1471980e+03   5.3000560e+02
   1.1476810e+03   5.2663280e+02
   1.1481630e+03   4.9920240e+02
   1.1486450e+03   4.5226980e+02
   1.1491270e+03   4.2512810e+02
   1.1496090e+03   4.2636580e+02
   1.1500910e+03   4.2941310e+02
   1.1505730e+03   4.1799760e+02
   1.1510550e+03   4.0094150e+02
   1.1515370e+03   3.8287680e+02
   1.1520200e+03   3.6410120e+02
   1.1525020e+03   3.4775660e+02
   1.1529840e+03   3.3416740e+02
   1.1534660e+03   3.2482180e+02
   1.1539480e+03   3.2242180e+02
   1.1544300e+03   3.1648950e+02
   1.1549120e+03   2.9418730e+02
   1.1553940e+03   2.6915150e+02
   1.1558770e+03   2.5965970e+02
   1.1563590e+03   2.6938930e+02
   1.1568410e+03   2.5837790e+02
   1.1573230e+03   2.2271510e+02
   1.1578050e+03   1.9466320e+02
   1.1582870e+03   2.0046960e+02
   1.1587690e+03   2.1563090e+02
   1.1592510e+03   2.1397770e+02
   1.1597340e+03   2.0305680e+02
   1.1602160e+03   1.9508370e+02
   1.1606980e+03   1.9688400e+02
   1.1611800e+03   1.9355150e+02
   1.1616620e+03   1.8421060e+02
   1.1621440e+03   1.7296950e+02
   1.1626260e+03   1.6238170e+02
   1.1631080e+03   1.5319120e+02
   1.1635900e+03   1.4519530e+02
   1.1640730e+03   1.3934660e+02
   1.1645550e+03   1.3936910e+02
   1.1650370e+03   1.5573690e+02
   1.1655190e+03   1.5839260e+02
   1.1660010e+03   1.4073910e+02
   1.1664830e+03   1.1989820e+02
   1.1669650e+03   1.1724440e+02
   1.1674470e+03   1.2379570e+02
   1.1679290e+03   1.2243230e+02
   1.1684120e+03   1.1277820e+02
   1.1688940e+03   1.0384240e+02
   1.1693760e+03   9.3362550e+01
   1.1698580e+03   9.3860470e+01
   1.1703400e+03   1.1379350e+02
   1.1708220e+03   1.3443380e+02
   1.1713040e+03   1.2130940e+02
   1.1717860e+03   8.7928590e+01
   1.1722690e+03   6.9162110e+01
   1.1727510e+03   7.0612790e+01
   1.1732330e+03   7.3061650e+01
   1.1737150e+03   6.9220340e+01
   1.1741970e+03   6.4948120e+01
   1.1746790e+03   6.0683720e+01
   1.1751610e+03   5.8574710e+01
   1.1756430e+03   6.9792480e+01
   1.1761250e+03   8.7960330e+01
   1.1766080e+03   9.0611080e+01
   1.1770900e+03   6.7190060e+01
   1.1775720e+03   4.6504270e+01
   1.1780540e+03   4.2023320e+01
   1.1785360e+03   4.3453120e+01
   1.1790180e+03   4.7067500e+01
   1.1795000e+03   5.1904910e+01
   1.1799820e+03   5.2136230e+01
   1.1804640e+03   4.8884890e+01
   1.1809470e+03   4.8251590e+01
   1.1814290e+03   5.6794800e+01
   1.1819110e+03   6.0300290e+01
   1.1823930e+03   4.5247070e+01
   1.1828750e+03   2.8148440e+01
   1.1833570e+03   2.2521360e+01
   1.1838390e+03   2.7771360e+01
   1.1843210e+03   2.9324580e+01
   1.1848040e+03   2.7307740e+01
   1.1852860e+03   2.2689700e+01
   1.1857680e+03   1.0976320e+01
   1.1862500e+03   2.6334230e+00
   1.1867320e+03   6.6551510e+00
   1.1872140e+03   1.4599850e+01
   1.1876960e+03   1.6903200e+01
   1.1881780e+03   1.3342900e+01
   1.1886610e+03   8.7305910e+00
   1.1891430e+03   3.3179930e+00
   1.1896250e+03   4.6386998e-02
   1.1901070e+03   1.2441410e+00
   1.1905890e+03   4.8400880e+00
   1.1910710e+03   1.1488530e+01
   1.1915530e+03   1.8942630e+01
   1.1920350e+03   2.4337040e+01
   1.1925170e+03   2.7855590e+01
   1.1930000e+03   2.1368410e+01
   1.1934820e+03   3.6555180e+00
   1.1939640e+03   1.0794310e+01
   1.1944460e+03   7.5117190e+00
   1.1949280e+03   4.9267600e-01
   1.1954100e+03   6.1571040e+00
   1.1958920e+03   8.7949220e+00
   1.1963740e+03   7.0078130e+00
   1.1968560e+03   4.8022500e-01
   1.1973390e+03   5.7664790e+00
   1.1978210e+03   1.0922120e+01
   1.1983030e+03   1.5200320e+01
   1.1987850e+03   2.0506710e+01
   1.1992670e+03   2.3420410e+01
   1.1997490e+03   1.9590820e+01
   1.2002310e+03   1.0382320e+01
   1.2007130e+03   4.1571040e+00
   1.2011960e+03   1.4000240e+00
   1.2016780e+03   5.7821040e+00
   1.2021600e+03   2.1355350e+01
   1.2026420e+03   3.3204960e+01
   1.2031240e+03   2.3819700e+01
   1.2036060e+03   9.7481690e+00
   1.2040880e+03   9.3045650e+00
   1.2045700e+03   2.2103270e+01
   1.2050520e+03   2.4142700e+01
   1.2055350e+03   1.4398190e+01
   1.2060170e+03   4.2324220e+00
   1.2064990e+03   3.2905270e+00
   1.2069810e+03   7.1292720e+00
   1.2074630e+03   1.9447020e+00
   1.2079450e+03   4.9378660e+00
   1.2084270e+03   3.4259030e+00
   1.2089090e+03   7.7163090e+00
   1.2093910e+03   8.4401860e+00
   1.2098740e+03   2.2780760e+00
   1.2103560e+03   8.1187740e+00
   1.2108380e+03   3.5982670e+00
   1.2113200e+03   1.3970830e+01
   1.2118020e+03   4.5938720e+00
   1.2122840e+03   3.0972050e+01
   1.2127660e+03   3.4126220e+01
   1.2132480e+03   8.3829350e+00
   1.2137310e+03   8.2593990e+00
   1.2142130e+03   1.6000730e+01
   1.2146950e+03   1.3228270e+01
   1.2151770e+03   1.3492190e+01
   1.2156590e+03   3.6884160e+01
   1.2161410e+03   2.1839970e+01
   1.2166230e+03   9.0833740e+00
   1.2171050e+03   1.8498900e+01
   1.2175880e+03   2.7448730e+00
   1.2180700e+03   1.1521120e+01
   1.2185520e+03   6.7370610e+00
   1.2190340e+03   3.5941160e+00
   1.2195160e+03   1.6846680e+01
   1.2199980e+03   3.2224120e+01
   1.2204800e+03   3.8545170e+01
   1.2209620e+03   3.7414920e+01
   1.2214440e+03   3.1398320e+01
   1.2219270e+03   1.8046020e+01
   1.2224090e+03   1.4567500e+01
   1.2228910e+03   2.2266970e+01
   1.2233730e+03   3.1518070e+01
   1.2238550e+03   3.8206420e+01
   1.2243370e+03   4.0759520e+01
   1.2248190e+03   3.4460820e+01
   1.2253010e+03   2.3000120e+01
   1.2257830e+03   1.5886110e+01
   1.2262660e+03   1.4030640e+01
   1.2267480e+03   8.8878170e+00
   1.2272300e+03   9.4091800e-01
   1.2277120e+03   4.1892090e+00
   1.2281940e+03   1.5283450e+01
   1.2286760e+03   3.8437740e+01
   1.2291580e+03   5.1677490e+01
   1.2296400e+03   5.6250850e+01
   1.2301230e+03   5.7677980e+01
   1.2306050e+03   5.5778080e+01
   1.2310870e+03   5.1807740e+01
   1.2315690e+03   4.5715090e+01
   1.2320510e+03   4.0700200e+01
   1.2325330e+03   3.8767940e+01
   1.2330150e+03   3.9545650e+01
   1.2334970e+03   4.5460690e+01
   1.2339790e+03   5.3551030e+01
   1.2344620e+03   5.3703250e+01
   1.2349440e+03   4.5588990e+01
   1.2354260e+03   4.4056150e+01
   1.2359080e+03   5.2354490e+01
   1.2363900e+03   6.0734130e+01
   1.2368720e+03   6.1977050e+01
   1.2373540e+03   5.9756230e+01
   1.2378360e+03   5.3358280e+01
   1.2383180e+03   4.6119750e+01
   1.2388010e+03   5.0559330e+01
   1.2392830e+03   6.5930300e+01
   1.2397650e+03   7.2120360e+01
   1.2402470e+03   6.4022830e+01
   1.2407290e+03   5.3857540e+01
   1.2412110e+03   4.8443240e+01
   1.2416930e+03   4.5934200e+01
   1.2421750e+03   4.5248540e+01
   1.2426580e+03   4.6235960e+01
   1.2431400e+03   5.0086430e+01
   1.2436220e+03   5.6050780e+01
   1.2441040e+03   5.6190920e+01
   1.2445860e+03   4.6712520e+01
   1.2450680e+03   4.1667600e+01
   1.2455500e+03   5.8968380e+01
   1.2460320e+03   7.3780270e+01
   1.2465150e+03   7.0260860e+01
   1.2469970e+03   5.4213620e+01
   1.2474790e+03   4.8138670e+01
   1.2479610e+03   5.0233520e+01
   1.2484430e+03   4.9914430e+01
   1.2489250e+03   4.2540040e+01
   1.2494070e+03   4.0160520e+01
   1.2498890e+03   5.7692750e+01
   1.2503710e+03   7.1725100e+01
   1.2508540e+03   6.8529170e+01
   1.2513360e+03   5.4031370e+01
   1.2518180e+03   4.8111940e+01
   1.2523000e+03   4.9624390e+01
   1.2527820e+03   5.1079220e+01
   1.2532640e+03   4.8621700e+01
   1.2537460e+03   5.0024290e+01
   1.2542280e+03   6.5129880e+01
   1.2547100e+03   7.4771610e+01
   1.2551930e+03   6.7034420e+01
   1.2556750e+03   4.8858890e+01
   1.2561570e+03   3.7949460e+01
   1.2566390e+03   3.3763790e+01
   1.2571210e+03   3.6400630e+01
   1.2576030e+03   5.0375850e+01
   1.2580850e+03   6.0519900e+01
   1.2585670e+03   6.4158940e+01
   1.2590500e+03   6.3089230e+01
   1.2595320e+03   5.5817380e+01
   1.2600140e+03   4.6804570e+01
   1.2604960e+03   5.1583980e+01
   1.2609780e+03   6.2355830e+01
   1.2614600e+03   6.1616820e+01
   1.2619420e+03   3.4219360e+01
   1.2624240e+03   2.1224000e+01
   1.2629060e+03   2.6968020e+01
   1.2633890e+03   3.9491580e+01
   1.2638710e+03   5.3619380e+01
   1.2643530e+03   6.4399170e+01
   1.2648350e+03   5.6175900e+01
   1.2653170e+03   3.9268070e+01
   1.2657990e+03   3.9248410e+01
   1.2662810e+03   7.0938350e+01
   1.2667630e+03   7.6692500e+01
   1.2672450e+03   5.6518430e+01
   1.2677280e+03   3.5214720e+01
   1.2682100e+03   3.1789060e+01
   1.2686920e+03   3.8045650e+01
   1.2691740e+03   4.0127930e+01
   1.2696560e+03   4.0207640e+01
   1.2701380e+03   3.8867430e+01
   1.2706200e+03   3.4331180e+01
   1.2711020e+03   3.6150270e+01
   1.2715850e+03   4.4694090e+01
   1.2720670e+03   5.2840450e+01
   1.2725490e+03   5.8815310e+01
   1.2730310e+03   5.9007080e+01
   1.2735130e+03   4.6764650e+01
   1.2739950e+03   3.2347170e+01
   1.2744770e+03   2.6687500e+01
   1.2749590e+03   3.1296750e+01
   1.2754420e+03   3.0938960e+01
   1.2759240e+03   2.5841190e+01
   1.2764060e+03   2.4170650e+01
   1.2768880e+03   3.6480100e+01
   1.2773700e+03   4.6712280e+01
   1.2778520e+03   4.1955440e+01
   1.2783340e+03   3.2775630e+01
   1.2788160e+03   3.0006960e+01
   1.2792980e+03   3.3515260e+01
   1.2797810e+03   4.0209840e+01
   1.2802630e+03   4.8564700e+01
   1.2807450e+03   4.8174680e+01
   1.2812270e+03   1.9524170e+01
   1.2817090e+03   3.1091300e-01
   1.2821910e+03   6.0975340e+00
   1.2826730e+03   2.0238530e+01
   1.2831550e+03   2.8495730e+01
   1.2836370e+03   3.1239990e+01
   1.2841200e+03   2.8002690e+01
   1.2846020e+03   2.0345340e+01
   1.2850840e+03   1.3203610e+01
   1.2855660e+03   3.7330320e+00
   1.2860480e+03   3.8853760e+00
   1.2865300e+03   1.8986940e+01
   1.2870120e+03   3.5273800e+01
   1.2874940e+03   4.1428590e+01
   1.2879770e+03   3.9969120e+01
   1.2884590e+03   3.4053470e+01
   1.2889410e+03   2.5638790e+01
   1.2894230e+03   2.0686890e+01
   1.2899050e+03   2.5980220e+01
   1.2903870e+03   2.5543580e+01
   1.2908690e+03   1.7350100e+01
   1.2913510e+03   8.7598880e+00
   1.2918330e+03   9.3786600e-01
   1.2923160e+03   2.1586910e+00
   1.2927980e+03   1.0434450e+01
   1.2932800e+03   3.0715090e+01
   1.2937620e+03   3.9204350e+01
   1.2942440e+03   3.0563960e+01
   1.2947260e+03   2.4631960e+01
   1.2952080e+03   2.1795530e+01
   1.2956900e+03   2.2427370e+01
   1.2961720e+03   3.0242920e+01
   1.2966550e+03   3.8157960e+01
   1.2971370e+03   4.1298580e+01
   1.2976190e+03   4.0089230e+01
   1.2981010e+03   3.5687010e+01
   1.2985830e+03   2.7802120e+01
   1.2990650e+03   1.8186400e+01
   1.2995470e+03   7.2363280e+00
   1.3000290e+03   2.3377690e+00
   1.3005120e+03   1.4758060e+01
   1.3009940e+03   2.5991820e+01
   1.3014760e+03   2.0940190e+01
   1.3019580e+03   1.1589970e+01
   1.3024400e+03   7.5056150e+00
   1.3029220e+03   9.9053960e+00
   1.3034040e+03   1.9967530e+01
   1.3038860e+03   3.4920900e+01
   1.3043690e+03   4.0810910e+01
   1.3048510e+03   1.9602780e+01
   1.3053330e+03   5.5358890e+00
   1.3058150e+03   7.6688230e+00
   1.3062970e+03   1.3801640e+01
   1.3067790e+03   9.1125490e+00
   1.3072610e+03   6.4917000e-01
   1.3077430e+03   1.0014650e+00
   1.3082250e+03   5.9080810e+00
   1.3087080e+03   1.3372560e+01
   1.3091900e+03   2.1902830e+01
   1.3096720e+03   2.6129640e+01
   1.3101540e+03   2.5820680e+01
   1.3106360e+03   2.3492800e+01
   1.3111180e+03   2.0425420e+01
   1.3116000e+03   1.7180420e+01
   1.3120820e+03   1.3845950e+01
   1.3125640e+03   1.1177610e+01
   1.3130470e+03   1.0580200e+01
   1.3135290e+03   1.3571530e+01
   1.3140110e+03   1.3545410e+01
   1.3144930e+03   9.9632570e+00
   1.3149750e+03   6.3024900e+00
   1.3154570e+03   5.1580810e+00
   1.3159390e+03   4.4501950e+00
   1.3164210e+03   1.9338380e+00
   1.3169040e+03   2.4450700e-01
   1.3173860e+03   1.1201170e+00
   1.3178680e+03   2.8288570e+00
   1.3183500e+03   0.0000000e+00
   1.5000000e+03   0.0000000e+00
