   1.0000000e+02   0.0000000e+00
   1.6557170e+02   0.0000000e+00
   1.6605380e+02   1.2399050e+01
   1.6653590e+02   6.3588870e+00
   1.6701800e+02   4.5823970e+00
   1.6750020e+02   1.7829590e+00
   1.6798230e+02   9.5523680e+00
   1.6846440e+02   9.8563230e+00
   1.6894650e+02   8.0725100e-01
   1.6942860e+02   7.2829590e+00
   1.6991070e+02   3.0386960e+00
   1.7039290e+02   2.5135500e+01
   1.7087500e+02   4.9656490e+01
   1.7135710e+02   7.1375370e+01
   1.7183920e+02   9.2559690e+01
   1.7232130e+02   1.1462510e+02
   1.7280340e+02   1.3627500e+02
   1.7328560e+02   1.6193950e+02
   1.7376770e+02   1.9659300e+02
   1.7424980e+02   2.3901010e+02
   1.7473190e+02   2.8442920e+02
   1.7521400e+02   3.2916360e+02
   1.7569610e+02   3.7521680e+02
   1.7617830e+02   4.2448800e+02
   1.7666040e+02   4.7434880e+02
   1.7714250e+02   5.3178390e+02
   1.7762460e+02   6.0872780e+02
   1.7810670e+02   7.0245540e+02
   1.7858880e+02   8.0103250e+02
   1.7907100e+02   8.9146950e+02
   1.7955310e+02   9.7891430e+02
   1.8003520e+02   1.0734390e+03
   1.8051730e+02   1.1764440e+03
   1.8099940e+02   1.2876750e+03
   1.8148150e+02   1.4037360e+03
   1.8196370e+02   1.5256820e+03
   1.8244580e+02   1.6552010e+03
   1.8292790e+02   1.7926570e+03
   1.8341000e+02   1.9393570e+03
   1.8389210e+02   2.1024160e+03
   1.8437420e+02   2.2854830e+03
   1.8485640e+02   2.4859190e+03
   1.8533850e+02   2.6903350e+03
   1.8582060e+02   2.8999000e+03
   1.8630270e+02   3.1229680e+03
   1.8678480e+02   3.3700420e+03
   1.8726690e+02   3.6400660e+03
   1.8774910e+02   3.9326800e+03
   1.8823120e+02   4.2522640e+03
   1.8871330e+02   4.5929500e+03
   1.8919540e+02   4.9395810e+03
   1.8967750e+02   5.2885270e+03
   1.9015960e+02   5.6499410e+03
   1.9064180e+02   6.0469790e+03
   1.9112390e+02   6.4773340e+03
   1.9160600e+02   6.9121930e+03
   1.9208810e+02   7.3434160e+03
   1.9257020e+02   7.7705520e+03
   1.9305240e+02   8.1915320e+03
   1.9353450e+02   8.6066080e+03
   1.9401660e+02   9.0122300e+03
   1.9449870e+02   9.4017580e+03
   1.9498080e+02   9.7763370e+03
   1.9546290e+02   1.0118390e+04
   1.9594510e+02   1.0428800e+04
   1.9642720e+02   1.0710710e+04
   1.9690930e+02   1.0906160e+04
   1.9739140e+02   1.1010850e+04
   1.9787350e+02   1.1033010e+04
   1.9835560e+02   1.0984720e+04
   1.9883780e+02   1.0865480e+04
   1.9931990e+02   1.0683000e+04
   1.9980200e+02   1.0436130e+04
   2.0028410e+02   1.0125580e+04
   2.0076620e+02   9.7697740e+03
   2.0124830e+02   9.3603120e+03
   2.0173050e+02   8.9148450e+03
   2.0221260e+02   8.4771850e+03
   2.0269470e+02   8.0512110e+03
   2.0317680e+02   7.6192710e+03
   2.0365890e+02   7.1598360e+03
   2.0414100e+02   6.6696240e+03
   2.0462320e+02   6.2104030e+03
   2.0510530e+02   5.7871960e+03
   2.0558740e+02   5.3966110e+03
   2.0606950e+02   5.0431430e+03
   2.0655160e+02   4.7339990e+03
   2.0703370e+02   4.4431680e+03
   2.0751590e+02   4.1544240e+03
   2.0799800e+02   3.8665340e+03
   2.0848010e+02   3.6018880e+03
   2.0896220e+02   3.3658930e+03
   2.0944430e+02   3.1591860e+03
   2.0992640e+02   2.9693060e+03
   2.1040860e+02   2.7969190e+03
   2.1089070e+02   2.6362930e+03
   2.1137280e+02   2.4794960e+03
   2.1185490e+02   2.3310120e+03
   2.1233700e+02   2.1905870e+03
   2.1281910e+02   2.0478320e+03
   2.1330130e+02   1.9084150e+03
   2.1378340e+02   1.7879410e+03
   2.1426550e+02   1.6918060e+03
   2.1474760e+02   1.6056250e+03
   2.1522970e+02   1.5178860e+03
   2.1571180e+02   1.4253390e+03
   2.1619400e+02   1.3376420e+03
   2.1667610e+02   1.2562800e+03
   2.1715820e+02   1.1809060e+03
   2.1764030e+02   1.1127950e+03
   2.1812240e+02   1.0544370e+03
   2.1860450e+02   1.0010760e+03
   2.1908670e+02   9.4906630e+02
   2.1956880e+02   9.0066580e+02
   2.2005090e+02   8.4858360e+02
   2.2053300e+02   7.8890340e+02
   2.2101510e+02   7.2033040e+02
   2.2149720e+02   6.6883300e+02
   2.2197940e+02   6.4126250e+02
   2.2246150e+02   6.2257890e+02
   2.2294360e+02   5.9561440e+02
   2.2342570e+02   5.5413310e+02
   2.2390780e+02   5.1658330e+02
   2.2438990e+02   4.8973470e+02
   2.2487210e+02   4.7460940e+02
   2.2535420e+02   4.5121220e+02
   2.2583630e+02   4.1376260e+02
   2.2631840e+02   3.7286280e+02
   2.2680050e+02   3.4052600e+02
   2.2728270e+02   3.1977120e+02
   2.2776480e+02   3.0231260e+02
   2.2824690e+02   2.8653330e+02
   2.2872900e+02   2.7271960e+02
   2.2921110e+02   2.5907170e+02
   2.2969320e+02   2.4695900e+02
   2.3017540e+02   2.3408620e+02
   2.3065750e+02   2.1623900e+02
   2.3113960e+02   1.8834900e+02
   2.3162170e+02   1.6480770e+02
   2.3210380e+02   1.5090050e+02
   2.3258590e+02   1.4914760e+02
   2.3306810e+02   1.4305960e+02
   2.3355020e+02   1.2954600e+02
   2.3403230e+02   1.1396010e+02
   2.3451440e+02   1.0426180e+02
   2.3499650e+02   1.0407360e+02
   2.3547860e+02   1.0384770e+02
   2.3596080e+02   1.0092020e+02
   2.3644290e+02   9.5185910e+01
   2.3692500e+02   8.7449580e+01
   2.3740710e+02   7.6432130e+01
   2.3788920e+02   6.4349370e+01
   2.3837130e+02   5.4790040e+01
   2.3885350e+02   4.8923100e+01
   2.3933560e+02   4.3503780e+01
   2.3981770e+02   3.7176880e+01
   2.4029980e+02   2.8995000e+01
   2.4078190e+02   2.4152220e+01
   2.4126400e+02   2.5000370e+01
   2.4174620e+02   2.7479130e+01
   2.4222830e+02   2.4557980e+01
   2.4271040e+02   1.3900270e+01
   2.4319250e+02   1.8186040e+00
   2.4367460e+02   1.0474120e+01
   2.4415670e+02   2.4642940e+01
   2.4463890e+02   3.3504270e+01
   2.4512100e+02   3.4815060e+01
   2.4560310e+02   3.1983030e+01
   2.4608520e+02   3.1202760e+01
   2.4656730e+02   3.4692140e+01
   2.4704940e+02   3.7302860e+01
   2.4753160e+02   3.5957760e+01
   2.4801370e+02   2.7197750e+01
   2.4849580e+02   2.5243650e+01
   2.4897790e+02   3.5267210e+01
   2.4946000e+02   5.0429320e+01
   2.4994210e+02   5.6752810e+01
   2.5042430e+02   5.0494380e+01
   2.5090640e+02   4.1266110e+01
   2.5138850e+02   3.1541020e+01
   2.5187060e+02   1.9487790e+01
   2.5235270e+02   1.3309080e+01
   2.5283480e+02   1.5023440e+01
   2.5331700e+02   2.1320310e+01
   2.5379910e+02   2.6215090e+01
   2.5428120e+02   2.9637820e+01
   2.5476330e+02   3.1723270e+01
   2.5524540e+02   3.3732670e+01
   2.5572750e+02   3.8208740e+01
   2.5620970e+02   3.1407470e+01
   2.5669180e+02   5.8431400e+00
   2.5717390e+02   2.5812870e+01
   2.5765600e+02   3.7649410e+01
   2.5813810e+02   1.8191160e+01
   2.5862020e+02   2.6629640e+00
   2.5910240e+02   6.5335690e+00
   2.5958450e+02   3.6369140e+01
   2.6006660e+02   5.7786130e+01
   2.6054870e+02   6.7638790e+01
   2.6103080e+02   7.1409420e+01
   2.6151290e+02   7.9285160e+01
   2.6199510e+02   9.1882570e+01
   2.6247720e+02   1.0700330e+02
   2.6295930e+02   1.2449160e+02
   2.6344140e+02   1.4561440e+02
   2.6392350e+02   1.6354920e+02
   2.6440560e+02   1.7778370e+02
   2.6488780e+02   1.8949260e+02
   2.6536990e+02   2.0025450e+02
   2.6585200e+02   2.0893810e+02
   2.6633410e+02   2.2010970e+02
   2.6681620e+02   2.3530540e+02
   2.6729830e+02   2.5425120e+02
   2.6778050e+02   2.7896200e+02
   2.6826260e+02   3.1145300e+02
   2.6874470e+02   3.4726510e+02
   2.6922680e+02   3.7863000e+02
   2.6970890e+02   4.0459240e+02
   2.7019100e+02   4.2945350e+02
   2.7067320e+02   4.5520030e+02
   2.7115530e+02   4.8190810e+02
   2.7163740e+02   5.0678720e+02
   2.7211950e+02   5.2797090e+02
   2.7260160e+02   5.5012570e+02
   2.7308370e+02   5.8282650e+02
   2.7356590e+02   6.2941130e+02
   2.7404800e+02   6.7018600e+02
   2.7453010e+02   6.9594980e+02
   2.7501220e+02   7.0596360e+02
   2.7549430e+02   7.1911710e+02
   2.7597640e+02   7.3703540e+02
   2.7645860e+02   7.5503030e+02
   2.7694070e+02   7.6590190e+02
   2.7742280e+02   7.6906380e+02
   2.7790490e+02   7.6938880e+02
   2.7838700e+02   7.6971410e+02
   2.7886910e+02   7.6974440e+02
   2.7935130e+02   7.6211570e+02
   2.7983340e+02   7.4589090e+02
   2.8031550e+02   7.2441610e+02
   2.8079760e+02   7.0256150e+02
   2.8127980e+02   6.8070560e+02
   2.8176190e+02   6.5417490e+02
   2.8224400e+02   6.1910520e+02
   2.8272610e+02   5.7693210e+02
   2.8320820e+02   5.3792330e+02
   2.8369030e+02   5.0183460e+02
   2.8417250e+02   4.6981530e+02
   2.8465460e+02   4.4527290e+02
   2.8513670e+02   4.2809010e+02
   2.8561880e+02   4.0950840e+02
   2.8610090e+02   3.8581090e+02
   2.8658300e+02   3.5817290e+02
   2.8706520e+02   3.3094670e+02
   2.8754730e+02   3.0417300e+02
   2.8802940e+02   2.7904300e+02
   2.8851150e+02   2.5740590e+02
   2.8899360e+02   2.3891550e+02
   2.8947570e+02   2.2138950e+02
   2.8995790e+02   2.0204860e+02
   2.9044000e+02   1.8353480e+02
   2.9092210e+02   1.7506880e+02
   2.9140420e+02   1.7742850e+02
   2.9188630e+02   1.8012870e+02
   2.9236840e+02   1.7180260e+02
   2.9285060e+02   1.5444790e+02
   2.9333270e+02   1.3655160e+02
   2.9381480e+02   1.1976270e+02
   2.9429690e+02   1.0455110e+02
   2.9477900e+02   9.1021730e+01
   2.9526110e+02   7.9130860e+01
   2.9574330e+02   7.0320190e+01
   2.9622540e+02   6.8782960e+01
   2.9670750e+02   7.1528690e+01
   2.9718960e+02   6.9812870e+01
   2.9767170e+02   5.7639040e+01
   2.9815380e+02   4.2675290e+01
   2.9863600e+02   3.7883910e+01
   2.9911810e+02   4.2531010e+01
   2.9960020e+02   4.7859380e+01
   3.0008230e+02   4.5825930e+01
   3.0056440e+02   3.9594120e+01
   3.0104650e+02   3.5590580e+01
   3.0152870e+02   3.7416260e+01
   3.0201080e+02   3.9267210e+01
   3.0249290e+02   3.3506100e+01
   3.0297500e+02   2.1890380e+01
   3.0345710e+02   1.2138790e+01
   3.0393920e+02   1.2023190e+01
   3.0442140e+02   1.5509520e+01
   3.0490350e+02   1.4269040e+01
   3.0538560e+02   3.4615480e+00
   3.0586770e+02   6.9663090e+00
   3.0634980e+02   8.7584230e+00
   3.0683190e+02   4.2293700e+00
   3.0731410e+02   9.2150900e-01
   3.0779620e+02   6.3273930e+00
   3.0827830e+02   1.1015140e+01
   3.0876040e+02   1.3324460e+01
   3.0924250e+02   1.1965820e+01
   3.0972460e+02   1.0088750e+01
   3.1020680e+02   7.5202640e+00
   3.1068890e+02   4.8629150e+00
   3.1117100e+02   4.6507570e+00
   3.1165310e+02   1.3213010e+01
   3.1213520e+02   2.1959230e+01
   3.1261730e+02   2.2887210e+01
   3.1309950e+02   1.0886600e+01
   3.1358160e+02   1.9749760e+00
   3.1406370e+02   7.4727780e+00
   3.1454580e+02   2.3045650e+01
   3.1502790e+02   3.8317990e+01
   3.1551000e+02   4.8102660e+01
   3.1599220e+02   5.4386350e+01
   3.1647430e+02   5.7738280e+01
   3.1695640e+02   5.8363890e+01
   3.1743850e+02   6.1530270e+01
   3.1792060e+02   6.7824710e+01
   3.1840270e+02   7.6516970e+01
   3.1888490e+02   8.6908690e+01
   3.1936700e+02   1.0400270e+02
   3.1984910e+02   1.1825090e+02
   3.2033120e+02   1.2421150e+02
   3.2081330e+02   1.1949790e+02
   3.2129540e+02   1.1867040e+02
   3.2177760e+02   1.2506240e+02
   3.2225970e+02   1.3650540e+02
   3.2274180e+02   1.5068960e+02
   3.2322390e+02   1.7367590e+02
   3.2370600e+02   1.9299560e+02
   3.2418810e+02   2.0340010e+02
   3.2467030e+02   2.0368440e+02
   3.2515240e+02   2.0898350e+02
   3.2563450e+02   2.2646950e+02
   3.2611660e+02   2.4603310e+02
   3.2659870e+02   2.5962840e+02
   3.2708080e+02   2.5761930e+02
   3.2756300e+02   2.6091150e+02
   3.2804510e+02   2.7266780e+02
   3.2852720e+02   2.9261160e+02
   3.2900930e+02   3.1533280e+02
   3.2949140e+02   3.4584350e+02
   3.2997350e+02   3.7405400e+02
   3.3045570e+02   3.9275420e+02
   3.3093780e+02   3.9549620e+02
   3.3141990e+02   3.9988050e+02
   3.3190200e+02   4.0711380e+02
   3.3238410e+02   4.1703720e+02
   3.3286620e+02   4.2925510e+02
   3.3334840e+02   4.4512040e+02
   3.3383050e+02   4.6103710e+02
   3.3431260e+02   4.7442240e+02
   3.3479470e+02   4.8272420e+02
   3.3527680e+02   4.9670090e+02
   3.3575890e+02   5.2021950e+02
   3.3624110e+02   5.4783020e+02
   3.3672320e+02   5.6475870e+02
   3.3720530e+02   5.6674730e+02
   3.3768740e+02   5.7012330e+02
   3.3816950e+02   5.8373630e+02
   3.3865160e+02   6.0882890e+02
   3.3913380e+02   6.3226110e+02
   3.3961590e+02   6.5334770e+02
   3.4009800e+02   6.7314170e+02
   3.4058010e+02   6.9290970e+02
   3.4106220e+02   7.1296810e+02
   3.4154430e+02   7.3237160e+02
   3.4202650e+02   7.5155440e+02
   3.4250860e+02   7.7027530e+02
   3.4299070e+02   7.8611620e+02
   3.4347280e+02   7.9828100e+02
   3.4395490e+02   8.1079220e+02
   3.4443700e+02   8.2948880e+02
   3.4491920e+02   8.5359470e+02
   3.4540130e+02   8.7689320e+02
   3.4588340e+02   8.9728220e+02
   3.4636550e+02   9.1522510e+02
   3.4684760e+02   9.3030400e+02
   3.4732970e+02   9.4221800e+02
   3.4781190e+02   9.5367290e+02
   3.4829400e+02   9.6522230e+02
   3.4877610e+02   9.7839400e+02
   3.4925820e+02   9.9705270e+02
   3.4974030e+02   1.0238710e+03
   3.5022250e+02   1.0554630e+03
   3.5070460e+02   1.0919020e+03
   3.5118670e+02   1.1319630e+03
   3.5166880e+02   1.1634980e+03
   3.5215090e+02   1.1695220e+03
   3.5263310e+02   1.1636150e+03
   3.5311520e+02   1.1669770e+03
   3.5359730e+02   1.1876750e+03
   3.5407940e+02   1.2125520e+03
   3.5456150e+02   1.2298800e+03
   3.5504360e+02   1.2417250e+03
   3.5552580e+02   1.2543300e+03
   3.5600790e+02   1.2708300e+03
   3.5649000e+02   1.2897420e+03
   3.5697210e+02   1.3119370e+03
   3.5745420e+02   1.3406510e+03
   3.5793630e+02   1.3619560e+03
   3.5841850e+02   1.3619650e+03
   3.5890060e+02   1.3499170e+03
   3.5938270e+02   1.3418560e+03
   3.5986480e+02   1.3495000e+03
   3.6034690e+02   1.3583150e+03
   3.6082900e+02   1.3603570e+03
   3.6131120e+02   1.3540520e+03
   3.6179330e+02   1.3469340e+03
   3.6227540e+02   1.3431610e+03
   3.6275750e+02   1.3390500e+03
   3.6323960e+02   1.3303850e+03
   3.6372170e+02   1.3179500e+03
   3.6420390e+02   1.2993480e+03
   3.6468600e+02   1.2718420e+03
   3.6516810e+02   1.2352950e+03
   3.6565020e+02   1.2008690e+03
   3.6613230e+02   1.1723680e+03
   3.6661440e+02   1.1444190e+03
   3.6709660e+02   1.1131350e+03
   3.6757870e+02   1.0702220e+03
   3.6806080e+02   1.0345050e+03
   3.6854290e+02   1.0116850e+03
   3.6902500e+02   9.9835330e+02
   3.6950710e+02   9.7754060e+02
   3.6998930e+02   9.4617870e+02
   3.7047140e+02   9.1102390e+02
   3.7095350e+02   8.7504700e+02
   3.7143560e+02   8.3870970e+02
   3.7191770e+02   8.0075240e+02
   3.7239980e+02   7.5812620e+02
   3.7288200e+02   7.1525660e+02
   3.7336410e+02   6.8315430e+02
   3.7384620e+02   6.6465920e+02
   3.7432830e+02   6.4980920e+02
   3.7481040e+02   6.3646460e+02
   3.7529250e+02   6.2507980e+02
   3.7577470e+02   6.0744950e+02
   3.7625680e+02   5.8157560e+02
   3.7673890e+02   5.5311800e+02
   3.7722100e+02   5.3002450e+02
   3.7770310e+02   5.1259860e+02
   3.7818520e+02   4.9645100e+02
   3.7866740e+02   4.8126930e+02
   3.7914950e+02   4.6621560e+02
   3.7963160e+02   4.4634590e+02
   3.8011370e+02   4.2149210e+02
   3.8059580e+02   3.9486270e+02
   3.8107790e+02   3.6839160e+02
   3.8156010e+02   3.4227920e+02
   3.8204220e+02   3.1969360e+02
   3.8252430e+02   3.0165550e+02
   3.8300640e+02   2.8633840e+02
   3.8348850e+02   2.7122660e+02
   3.8397060e+02   2.5613400e+02
   3.8445280e+02   2.4076450e+02
   3.8493490e+02   2.2090330e+02
   3.8541700e+02   2.0151680e+02
   3.8589910e+02   1.9315910e+02
   3.8638120e+02   2.0143180e+02
   3.8686330e+02   2.0736870e+02
   3.8734550e+02   1.8817640e+02
   3.8782760e+02   1.5291370e+02
   3.8830970e+02   1.2195240e+02
   3.8879180e+02   1.0792790e+02
   3.8927390e+02   1.0115220e+02
   3.8975600e+02   9.4074710e+01
   3.9023820e+02   8.5926880e+01
   3.9072030e+02   7.9759400e+01
   3.9120240e+02   7.7415770e+01
   3.9168450e+02   7.7889400e+01
   3.9216660e+02   8.0011350e+01
   3.9264870e+02   9.0154910e+01
   3.9313090e+02   9.5535400e+01
   3.9361300e+02   8.8734740e+01
   3.9409510e+02   7.0751830e+01
   3.9457720e+02   5.3822880e+01
   3.9505930e+02   4.0028080e+01
   3.9554140e+02   2.8893310e+01
   3.9602360e+02   2.0264530e+01
   3.9650570e+02   1.1676880e+01
   3.9698780e+02   8.4752200e+00
   3.9746990e+02   1.7961550e+01
   3.9795200e+02   3.4141850e+01
   3.9843410e+02   3.7912230e+01
   3.9891630e+02   1.5411740e+01
   3.9939840e+02   5.1357420e+00
   3.9988050e+02   1.2929810e+01
   4.0036260e+02   2.9735110e+00
   4.0084470e+02   5.3964840e+00
   4.0132680e+02   1.4332520e+01
   4.0180900e+02   2.0068600e+01
   4.0229110e+02   1.5725590e+01
   4.0277320e+02   3.7963870e+00
   4.0325530e+02   2.0030880e+01
   4.0373740e+02   2.8257320e+01
   4.0421950e+02   2.8693850e+01
   4.0470170e+02   2.3843630e+01
   4.0518380e+02   1.1606080e+01
   4.0566590e+02   2.9675300e-01
   4.0614800e+02   3.3226320e+00
   4.0663010e+02   2.6804200e+00
   4.0711220e+02   5.4237060e+00
   4.0759440e+02   1.2254640e+00
   4.0807650e+02   5.9718020e+00
   4.0855860e+02   5.5528560e+00
   4.0904070e+02   2.3288570e+00
   4.0952280e+02   9.7429200e+00
   4.1000490e+02   1.1006350e+01
   4.1048710e+02   7.6960450e+00
   4.1096920e+02   4.4053960e+00
   4.1145130e+02   1.8369140e+00
   4.1193340e+02   1.7447510e+00
   4.1241550e+02   1.1089840e+01
   4.1289760e+02   2.3581180e+01
   4.1337980e+02   3.1426150e+01
   4.1386190e+02   2.8217040e+01
   4.1434400e+02   2.0420170e+01
   4.1482610e+02   1.3426150e+01
   4.1530820e+02   7.4053960e+00
   4.1579030e+02   4.3605960e+00
   4.1627250e+02   6.9031980e+00
   4.1675460e+02   1.2598880e+01
   4.1723670e+02   1.8720830e+01
   4.1771880e+02   2.2644170e+01
   4.1820090e+02   2.8649780e+01
   4.1868300e+02   4.3404790e+01
   4.1916520e+02   6.3175780e+01
   4.1964730e+02   7.3686770e+01
   4.2012940e+02   5.8726810e+01
   4.2061150e+02   4.1802730e+01
   4.2109370e+02   3.6072270e+01
   4.2157580e+02   4.9127930e+01
   4.2205790e+02   6.2581050e+01
   4.2254000e+02   7.2467290e+01
   4.2302210e+02   8.1103520e+01
   4.2350420e+02   9.1213010e+01
   4.2398640e+02   1.0843190e+02
   4.2446850e+02   1.2128660e+02
   4.2495060e+02   1.2399780e+02
   4.2543270e+02   1.1516530e+02
   4.2591480e+02   1.1427250e+02
   4.2639690e+02   1.2619030e+02
   4.2687910e+02   1.4106050e+02
   4.2736120e+02   1.4973400e+02
   4.2784330e+02   1.5122070e+02
   4.2832540e+02   1.5139250e+02
   4.2880750e+02   1.5007260e+02
   4.2928960e+02   1.4961390e+02
   4.2977180e+02   1.5633180e+02
   4.3025390e+02   1.7102140e+02
   4.3073600e+02   1.8431140e+02
   4.3121810e+02   1.8944310e+02
   4.3170020e+02   1.8719020e+02
   4.3218230e+02   1.8726060e+02
   4.3266450e+02   1.9011230e+02
   4.3314660e+02   1.9551370e+02
   4.3362870e+02   2.0314290e+02
   4.3411080e+02   2.1301320e+02
   4.3459290e+02   2.2567720e+02
   4.3507500e+02   2.4902330e+02
   4.3555720e+02   2.7197610e+02
   4.3603930e+02   2.6967250e+02
   4.3652140e+02   2.4329720e+02
   4.3700350e+02   2.1776840e+02
   4.3748560e+02   2.1606960e+02
   4.3796770e+02   2.2649740e+02
   4.3844990e+02   2.3231260e+02
   4.3893200e+02   2.2634080e+02
   4.3941410e+02   2.1955470e+02
   4.3989620e+02   2.1930660e+02
   4.4037830e+02   2.2433080e+02
   4.4086040e+02   2.3126100e+02
   4.4134260e+02   2.4239450e+02
   4.4182470e+02   2.5232800e+02
   4.4230680e+02   2.5798380e+02
   4.4278890e+02   2.5873560e+02
   4.4327100e+02   2.5728580e+02
   4.4375310e+02   2.5296360e+02
   4.4423530e+02   2.4751110e+02
   4.4471740e+02   2.4208360e+02
   4.4519950e+02   2.3612660e+02
   4.4568160e+02   2.3205150e+02
   4.4616370e+02   2.3099800e+02
   4.4664580e+02   2.3273730e+02
   4.4712800e+02   2.3493810e+02
   4.4761010e+02   2.3933740e+02
   4.4809220e+02   2.4214750e+02
   4.4857430e+02   2.4141100e+02
   4.4905640e+02   2.3715380e+02
   4.4953850e+02   2.2828750e+02
   4.5002070e+02   2.1131900e+02
   4.5050280e+02   1.9301970e+02
   4.5098490e+02   1.8856400e+02
   4.5146700e+02   2.0121480e+02
   4.5194910e+02   2.1131120e+02
   4.5243120e+02   2.0977700e+02
   4.5291340e+02   1.9843800e+02
   4.5339550e+02   1.9128820e+02
   4.5387760e+02   1.8839420e+02
   4.5435970e+02   1.8936000e+02
   4.5484180e+02   1.9629530e+02
   4.5532390e+02   2.0749160e+02
   4.5580610e+02   2.1536670e+02
   4.5628820e+02   2.1733470e+02
   4.5677030e+02   2.1671980e+02
   4.5725240e+02   2.1827970e+02
   4.5773450e+02   2.2134620e+02
   4.5821660e+02   2.2380140e+02
   4.5869880e+02   2.2603580e+02
   4.5918090e+02   2.2574080e+02
   4.5966300e+02   2.1779590e+02
   4.6014510e+02   1.9995210e+02
   4.6062720e+02   1.8685330e+02
   4.6110930e+02   1.9407850e+02
   4.6159150e+02   2.0929130e+02
   4.6207360e+02   2.1712190e+02
   4.6255570e+02   2.0811160e+02
   4.6303780e+02   1.9553410e+02
   4.6351990e+02   1.8144740e+02
   4.6400200e+02   1.6657470e+02
   4.6448420e+02   1.5605480e+02
   4.6496630e+02   1.5449110e+02
   4.6544840e+02   1.5515010e+02
   4.6593050e+02   1.5430480e+02
   4.6641260e+02   1.4963460e+02
   4.6689470e+02   1.4724240e+02
   4.6737690e+02   1.4836010e+02
   4.6785900e+02   1.5117350e+02
   4.6834110e+02   1.5353490e+02
   4.6882320e+02   1.5869920e+02
   4.6930530e+02   1.5625740e+02
   4.6978740e+02   1.4005550e+02
   4.7026960e+02   1.1132890e+02
   4.7075170e+02   9.4743900e+01
   4.7123380e+02   9.3313110e+01
   4.7171590e+02   9.4840450e+01
   4.7219800e+02   8.8045040e+01
   4.7268010e+02   7.3141600e+01
   4.7316230e+02   6.1238890e+01
   4.7364440e+02   5.3977170e+01
   4.7412650e+02   5.0029170e+01
   4.7460860e+02   4.8820800e+01
   4.7509070e+02   4.9713990e+01
   4.7557280e+02   4.8582640e+01
   4.7605500e+02   4.1088500e+01
   4.7653710e+02   3.0899660e+01
   4.7701920e+02   2.4890010e+01
   4.7750130e+02   2.3320310e+01
   4.7798340e+02   2.0944580e+01
   4.7846550e+02   8.9715580e+00
   4.7894770e+02   4.7866210e+00
   4.7942980e+02   9.3745120e+00
   4.7991190e+02   7.5048830e+00
   4.8039400e+02   2.2758060e+01
   4.8087610e+02   2.0992550e+01
   4.8135820e+02   7.6053470e+00
   4.8184040e+02   1.8996580e+00
   4.8232250e+02   1.6048580e+00
   4.8280460e+02   6.7718510e+00
   4.8328670e+02   7.4630130e+00
   4.8376880e+02   3.5449200e-01
   4.8425090e+02   1.4592290e+00
   4.8473310e+02   1.2490840e+01
   4.8521520e+02   2.7353880e+01
   4.8569730e+02   2.8423220e+01
   4.8617940e+02   3.0894780e+00
   4.8666150e+02   1.4291380e+01
   4.8714360e+02   1.6872440e+01
   4.8762580e+02   7.8338620e+00
   4.8810790e+02   1.9896240e+00
   4.8859000e+02   3.8451999e-02
   4.8907210e+02   4.8400900e-01
   4.8955420e+02   3.5266100e-01
   4.9003630e+02   2.5144040e+00
   4.9051850e+02   1.3453370e+00
   4.9100060e+02   4.0388180e+00
   4.9148270e+02   1.0181640e+01
   4.9196480e+02   1.2455320e+01
   4.9244700e+02   1.1382450e+01
   4.9292910e+02   9.7054440e+00
   4.9341120e+02   8.4647220e+00
   4.9389330e+02   7.0666500e+00
   4.9437540e+02   3.7816160e+00
   4.9485750e+02   9.5507800e-01
   4.9533970e+02   4.1788330e+00
   4.9582180e+02   3.1865230e+00
   4.9630390e+02   5.9691999e-02
   4.9678600e+02   2.8880620e+00
   4.9726810e+02   5.1729740e+00
   4.9775020e+02   7.9622800e+00
   4.9823240e+02   1.3734620e+01
   4.9871450e+02   1.9885130e+01
   4.9919660e+02   2.2982060e+01
   4.9967870e+02   2.1720830e+01
   5.0016080e+02   1.7485230e+01
   5.0064290e+02   6.8430180e+00
   5.0112510e+02   9.2008060e+00
   5.0160720e+02   1.5522710e+01
   5.0208930e+02   1.8211670e+00
   5.0257140e+02   1.3523930e+01
   5.0305350e+02   2.1911130e+01
   5.0353560e+02   2.0402950e+01
   5.0401780e+02   1.8745360e+01
   5.0449990e+02   1.6240970e+01
   5.0498200e+02   1.4956790e+01
   5.0546410e+02   1.7306400e+01
   5.0594620e+02   2.3101200e+01
   5.0642830e+02   2.9092040e+01
   5.0691050e+02   3.5363890e+01
   5.0739260e+02   4.2018680e+01
   5.0787470e+02   4.8024290e+01
   5.0835680e+02   5.3647580e+01
   5.0883890e+02   5.8222780e+01
   5.0932100e+02   5.7351560e+01
   5.0980320e+02   5.3358520e+01
   5.1028530e+02   5.6266720e+01
   5.1076740e+02   6.9471440e+01
   5.1124950e+02   8.3849000e+01
   5.1173160e+02   8.8956540e+01
   5.1221370e+02   8.7940800e+01
   5.1269590e+02   8.7265260e+01
   5.1317800e+02   8.8716310e+01
   5.1366010e+02   9.1941770e+01
   5.1414220e+02   9.7883180e+01
   5.1462430e+02   1.0641170e+02
   5.1510640e+02   1.1452830e+02
   5.1558860e+02   1.1773950e+02
   5.1607070e+02   1.2006770e+02
   5.1655280e+02   1.2527200e+02
   5.1703490e+02   1.3746500e+02
   5.1751700e+02   1.4731030e+02
   5.1799910e+02   1.5084790e+02
   5.1848130e+02   1.5208890e+02
   5.1896340e+02   1.5671520e+02
   5.1944550e+02   1.6811510e+02
   5.1992760e+02   1.7716640e+02
   5.2040970e+02   1.8090830e+02
   5.2089180e+02   1.8011320e+02
   5.2137400e+02   1.8154790e+02
   5.2185610e+02   1.8560450e+02
   5.2233820e+02   1.9004690e+02
   5.2282030e+02   1.9278540e+02
   5.2330240e+02   1.9431410e+02
   5.2378450e+02   2.0147610e+02
   5.2426670e+02   2.1613450e+02
   5.2474880e+02   2.3103390e+02
   5.2523090e+02   2.3636350e+02
   5.2571300e+02   2.3437500e+02
   5.2619510e+02   2.3274380e+02
   5.2667720e+02   2.3539590e+02
   5.2715940e+02   2.3840800e+02
   5.2764150e+02   2.3582920e+02
   5.2812360e+02   2.2904030e+02
   5.2860570e+02   2.2406370e+02
   5.2908780e+02   2.2612520e+02
   5.2956990e+02   2.3017970e+02
   5.3005210e+02   2.3223350e+02
   5.3053420e+02   2.3121740e+02
   5.3101630e+02   2.3084790e+02
   5.3149840e+02   2.3372530e+02
   5.3198050e+02   2.3725450e+02
   5.3246260e+02   2.3869070e+02
   5.3294480e+02   2.3452470e+02
   5.3342690e+02   2.3221370e+02
   5.3390900e+02   2.3651970e+02
   5.3439110e+02   2.4371690e+02
   5.3487320e+02   2.3702000e+02
   5.3535530e+02   2.0535860e+02
   5.3583750e+02   1.8060010e+02
   5.3631960e+02   1.8116780e+02
   5.3680170e+02   2.0843880e+02
   5.3728380e+02   2.1754280e+02
   5.3776590e+02   2.0642750e+02
   5.3824800e+02   1.8854660e+02
   5.3873020e+02   1.7912390e+02
   5.3921230e+02   1.7680370e+02
   5.3969440e+02   1.7309840e+02
   5.4017650e+02   1.6764360e+02
   5.4065860e+02   1.5955600e+02
   5.4114070e+02   1.4287400e+02
   5.4162290e+02   1.2061110e+02
   5.4210500e+02   1.0490420e+02
   5.4258710e+02   1.0715310e+02
   5.4306920e+02   1.1617770e+02
   5.4355130e+02   1.2347340e+02
   5.4403340e+02   1.2804370e+02
   5.4451560e+02   1.3000040e+02
   5.4499770e+02   1.3378930e+02
   5.4547980e+02   1.3492540e+02
   5.4596190e+02   1.2855570e+02
   5.4644400e+02   1.0561490e+02
   5.4692610e+02   8.6659420e+01
   5.4740830e+02   7.3354000e+01
   5.4789040e+02   6.5891110e+01
   5.4837250e+02   6.5494140e+01
   5.4885460e+02   7.7328000e+01
   5.4933670e+02   8.8437130e+01
   5.4981880e+02   9.5949340e+01
   5.5030100e+02   9.9812990e+01
   5.5078310e+02   1.0036840e+02
   5.5126520e+02   9.7156860e+01
   5.5174730e+02   9.2186400e+01
   5.5222940e+02   8.5980220e+01
   5.5271150e+02   7.8653690e+01
   5.5319370e+02   7.3359250e+01
   5.5367580e+02   7.1091060e+01
   5.5415790e+02   6.9240360e+01
   5.5464000e+02   6.3450930e+01
   5.5512210e+02   5.5131470e+01
   5.5560420e+02   4.8465210e+01
   5.5608640e+02   4.4383300e+01
   5.5656850e+02   4.3219730e+01
   5.5705060e+02   4.7715330e+01
   5.5753270e+02   5.5958860e+01
   5.5801480e+02   6.0946170e+01
   5.5849690e+02   5.7651980e+01
   5.5897910e+02   5.0215940e+01
   5.5946120e+02   4.1489990e+01
   5.5994330e+02   3.2675900e+01
   5.6042540e+02   2.5462280e+01
   5.6090750e+02   2.0978270e+01
   5.6138960e+02   1.6713500e+01
   5.6187180e+02   1.0315800e+01
   5.6235390e+02   2.8758540e+00
   5.6283600e+02   9.8511960e+00
   5.6331810e+02   6.1872560e+00
   5.6380020e+02   2.8886720e+00
   5.6428230e+02   4.3521730e+00
   5.6476450e+02   3.0061040e+00
   5.6524660e+02   1.3180420e+01
   5.6572870e+02   2.6796880e+01
   5.6621080e+02   4.1535520e+01
   5.6669290e+02   4.3068730e+01
   5.6717500e+02   3.0883790e+01
   5.6765720e+02   1.7076050e+01
   5.6813930e+02   1.2500610e+01
   5.6862140e+02   1.3565060e+01
   5.6910350e+02   1.3727050e+01
   5.6958560e+02   1.2122560e+01
   5.7006770e+02   8.7816160e+00
   5.7054990e+02   6.0327100e-01
   5.7103200e+02   1.0868650e+01
   5.7151410e+02   1.3943730e+01
   5.7199620e+02   3.6992190e+00
   5.7247830e+02   1.8572510e+01
   5.7296040e+02   1.7317020e+01
   5.7344260e+02   3.5919190e+00
   5.7392470e+02   3.2839360e+00
   5.7440680e+02   6.3719480e+00
   5.7488890e+02   1.7540650e+01
   5.7537100e+02   2.4545410e+01
   5.7585310e+02   2.6468870e+01
   5.7633530e+02   2.8990720e+01
   5.7681740e+02   3.3122190e+01
   5.7729950e+02   3.6345090e+01
   5.7778160e+02   3.6156370e+01
   5.7826370e+02   3.2374020e+01
   5.7874580e+02   2.6509030e+01
   5.7922800e+02   1.7679930e+01
   5.7971010e+02   8.8640140e+00
   5.8019220e+02   6.0803220e+00
   5.8067430e+02   8.4853520e+00
   5.8115640e+02   1.1316650e+01
   5.8163850e+02   1.4995240e+01
   5.8212070e+02   1.6454100e+01
   5.8260280e+02   8.9854740e+00
   5.8308490e+02   6.0349120e+00
   5.8356700e+02   1.8454830e+01
   5.8404910e+02   2.0584470e+01
   5.8453130e+02   1.8774780e+01
   5.8501340e+02   1.6916260e+01
   5.8549550e+02   1.4038820e+01
   5.8597760e+02   1.6252690e+01
   5.8645970e+02   3.2280150e+01
   5.8694180e+02   5.1188230e+01
   5.8742400e+02   6.0124020e+01
   5.8790610e+02   5.1049800e+01
   5.8838820e+02   4.4150880e+01
   5.8887030e+02   4.1429320e+01
   5.8935240e+02   4.2299070e+01
   5.8983450e+02   4.5927490e+01
   5.9031670e+02   5.3497440e+01
   5.9079880e+02   5.9205440e+01
   5.9128090e+02   5.8978390e+01
   5.9176300e+02   5.4530400e+01
   5.9224510e+02   5.5235840e+01
   5.9272720e+02   6.1265500e+01
   5.9320940e+02   6.8264890e+01
   5.9369150e+02   7.1729000e+01
   5.9417360e+02   7.3767330e+01
   5.9465570e+02   7.9268550e+01
   5.9513780e+02   8.9922360e+01
   5.9561990e+02   9.9557500e+01
   5.9610210e+02   1.0261910e+02
   5.9658420e+02   1.0193960e+02
   5.9706630e+02   1.0156490e+02
   5.9754850e+02   9.7674190e+01
   5.9803060e+02   9.9754270e+01
   5.9851270e+02   1.1746520e+02
   5.9899480e+02   1.4546340e+02
   5.9947690e+02   1.6047630e+02
   5.9995900e+02   1.4841000e+02
   6.0044120e+02   1.3901050e+02
   6.0092330e+02   1.4345720e+02
   6.0140540e+02   1.6303260e+02
   6.0188750e+02   1.7577640e+02
   6.0236960e+02   1.7934010e+02
   6.0285170e+02   1.8160380e+02
   6.0333390e+02   1.9128720e+02
   6.0381600e+02   2.0742800e+02
   6.0429810e+02   2.1510560e+02
   6.0478020e+02   2.1158360e+02
   6.0526230e+02   2.0284700e+02
   6.0574440e+02   1.9392500e+02
   6.0622660e+02   1.8575890e+02
   6.0670870e+02   1.8102800e+02
   6.0719080e+02   1.7895410e+02
   6.0767290e+02   1.8236790e+02
   6.0815500e+02   1.9925620e+02
   6.0863710e+02   2.2449390e+02
   6.0911930e+02   2.4206790e+02
   6.0960140e+02   2.3561620e+02
   6.1008350e+02   2.2837190e+02
   6.1056560e+02   2.3129040e+02
   6.1104770e+02   2.4605860e+02
   6.1152980e+02   2.6408540e+02
   6.1201200e+02   2.9434550e+02
   6.1249410e+02   3.1834060e+02
   6.1297620e+02   3.2073710e+02
   6.1345830e+02   2.9249490e+02
   6.1394040e+02   2.7588200e+02
   6.1442250e+02   2.7473410e+02
   6.1490470e+02   2.8191060e+02
   6.1538680e+02   2.8715560e+02
   6.1586890e+02   2.9091470e+02
   6.1635100e+02   2.9900440e+02
   6.1683310e+02   3.1604390e+02
   6.1731520e+02   3.3443330e+02
   6.1779740e+02   3.3958290e+02
   6.1827950e+02   3.3501230e+02
   6.1876160e+02   3.3474340e+02
   6.1924370e+02   3.5258640e+02
   6.1972580e+02   3.7289250e+02
   6.2020790e+02   3.8085230e+02
   6.2069010e+02   3.7613490e+02
   6.2117220e+02   3.7856480e+02
   6.2165430e+02   4.0297450e+02
   6.2213640e+02   4.3107960e+02
   6.2261850e+02   4.5003780e+02
   6.2310060e+02   4.5304980e+02
   6.2358280e+02   4.6006260e+02
   6.2406490e+02   4.7272840e+02
   6.2454700e+02   4.8859620e+02
   6.2502910e+02   5.0586610e+02
   6.2551120e+02   5.2576390e+02
   6.2599330e+02   5.3898130e+02
   6.2647550e+02   5.3953960e+02
   6.2695760e+02   5.3753490e+02
   6.2743970e+02   5.5678440e+02
   6.2792180e+02   5.9491210e+02
   6.2840390e+02   6.3334790e+02
   6.2888600e+02   6.6254930e+02
   6.2936820e+02   6.8620170e+02
   6.2985030e+02   7.0719650e+02
   6.3033240e+02   7.2565040e+02
   6.3081450e+02   7.4571700e+02
   6.3129660e+02   7.7041380e+02
   6.3177870e+02   7.9702200e+02
   6.3226090e+02   8.2243460e+02
   6.3274300e+02   8.4477910e+02
   6.3322510e+02   8.7163480e+02
   6.3370720e+02   9.0602610e+02
   6.3418930e+02   9.4474390e+02
   6.3467140e+02   9.8559950e+02
   6.3515360e+02   1.0300300e+03
   6.3563570e+02   1.0743560e+03
   6.3611780e+02   1.1192930e+03
   6.3659990e+02   1.1629130e+03
   6.3708200e+02   1.1974360e+03
   6.3756410e+02   1.2218610e+03
   6.3804630e+02   1.2573270e+03
   6.3852840e+02   1.3137710e+03
   6.3901050e+02   1.3828310e+03
   6.3949260e+02   1.4521600e+03
   6.3997470e+02   1.5215570e+03
   6.4045680e+02   1.5875130e+03
   6.4093900e+02   1.6465860e+03
   6.4142110e+02   1.7024330e+03
   6.4190320e+02   1.7566810e+03
   6.4238530e+02   1.8092450e+03
   6.4286740e+02   1.8679380e+03
   6.4334950e+02   1.9389670e+03
   6.4383170e+02   2.0149940e+03
   6.4431380e+02   2.0923670e+03
   6.4479590e+02   2.1732620e+03
   6.4527800e+02   2.2497010e+03
   6.4576010e+02   2.3218000e+03
   6.4624220e+02   2.3890770e+03
   6.4672440e+02   2.4504930e+03
   6.4720650e+02   2.5038930e+03
   6.4768860e+02   2.5600260e+03
   6.4817070e+02   2.6206710e+03
   6.4865280e+02   2.6841430e+03
   6.4913490e+02   2.7529000e+03
   6.4961710e+02   2.8245610e+03
   6.5009920e+02   2.8845850e+03
   6.5058130e+02   2.9208170e+03
   6.5106340e+02   2.9450400e+03
   6.5154550e+02   2.9681630e+03
   6.5202760e+02   2.9910910e+03
   6.5250980e+02   3.0175810e+03
   6.5299190e+02   3.0652770e+03
   6.5347400e+02   3.1051010e+03
   6.5395610e+02   3.1164240e+03
   6.5443820e+02   3.0930940e+03
   6.5492030e+02   3.0665260e+03
   6.5540250e+02   3.0329470e+03
   6.5588460e+02   3.0034920e+03
   6.5636670e+02   2.9888780e+03
   6.5684880e+02   3.0004740e+03
   6.5733090e+02   2.9910330e+03
   6.5781300e+02   2.9545200e+03
   6.5829520e+02   2.9046380e+03
   6.5877730e+02   2.8588800e+03
   6.5925940e+02   2.8166550e+03
   6.5974150e+02   2.7756270e+03
   6.6022360e+02   2.7353020e+03
   6.6070570e+02   2.6954210e+03
   6.6118790e+02   2.6532010e+03
   6.6167000e+02   2.6111220e+03
   6.6215210e+02   2.5766740e+03
   6.6263420e+02   2.5690700e+03
   6.6311630e+02   2.5567870e+03
   6.6359840e+02   2.5137170e+03
   6.6408060e+02   2.4439440e+03
   6.6456270e+02   2.3836800e+03
   6.6504480e+02   2.3520090e+03
   6.6552690e+02   2.3231290e+03
   6.6600900e+02   2.2838010e+03
   6.6649110e+02   2.2311010e+03
   6.6697330e+02   2.1939250e+03
   6.6745540e+02   2.1785300e+03
   6.6793750e+02   2.1662560e+03
   6.6841960e+02   2.1400730e+03
   6.6890170e+02   2.1004570e+03
   6.6938390e+02   2.0655000e+03
   6.6986600e+02   2.0365840e+03
   6.7034810e+02   2.0139660e+03
   6.7083020e+02   2.0005040e+03
   6.7131230e+02   1.9935000e+03
   6.7179440e+02   1.9877030e+03
   6.7227660e+02   1.9846130e+03
   6.7275870e+02   1.9773140e+03
   6.7324080e+02   1.9541210e+03
   6.7372290e+02   1.9242990e+03
   6.7420500e+02   1.9055020e+03
   6.7468710e+02   1.9143020e+03
   6.7516930e+02   1.9228630e+03
   6.7565140e+02   1.9233280e+03
   6.7613350e+02   1.9165600e+03
   6.7661560e+02   1.9072090e+03
   6.7709770e+02   1.8921980e+03
   6.7757980e+02   1.8820530e+03
   6.7806200e+02   1.8837010e+03
   6.7854410e+02   1.8957440e+03
   6.7902620e+02   1.9040000e+03
   6.7950830e+02   1.9079980e+03
   6.7999040e+02   1.9088550e+03
   6.8047250e+02   1.9063440e+03
   6.8095470e+02   1.9020410e+03
   6.8143680e+02   1.8998350e+03
   6.8191890e+02   1.9005620e+03
   6.8240100e+02   1.9002940e+03
   6.8288310e+02   1.8955130e+03
   6.8336520e+02   1.8868920e+03
   6.8384740e+02   1.8750180e+03
   6.8432950e+02   1.8588300e+03
   6.8481160e+02   1.8416820e+03
   6.8529370e+02   1.8251710e+03
   6.8577580e+02   1.8070250e+03
   6.8625790e+02   1.7821750e+03
   6.8674010e+02   1.7454150e+03
   6.8722220e+02   1.7195810e+03
   6.8770430e+02   1.7133330e+03
   6.8818640e+02   1.7157450e+03
   6.8866850e+02   1.7004680e+03
   6.8915060e+02   1.6680890e+03
   6.8963280e+02   1.6298360e+03
   6.9011490e+02   1.5878940e+03
   6.9059700e+02   1.5450830e+03
   6.9107910e+02   1.5043630e+03
   6.9156120e+02   1.4660680e+03
   6.9204330e+02   1.4312220e+03
   6.9252550e+02   1.4073830e+03
   6.9300760e+02   1.3798870e+03
   6.9348970e+02   1.3348180e+03
   6.9397180e+02   1.2691110e+03
   6.9445390e+02   1.2149200e+03
   6.9493600e+02   1.1892870e+03
   6.9541820e+02   1.1647550e+03
   6.9590030e+02   1.1249050e+03
   6.9638240e+02   1.0651080e+03
   6.9686450e+02   1.0127880e+03
   6.9734660e+02   9.6813380e+02
   6.9782870e+02   9.3082620e+02
   6.9831090e+02   9.0303370e+02
   6.9879300e+02   8.8280490e+02
   6.9927510e+02   8.6203060e+02
   6.9975720e+02   8.4222440e+02
   7.0023930e+02   8.1496640e+02
   7.0072140e+02   7.6275170e+02
   7.0120360e+02   6.9922660e+02
   7.0168570e+02   6.4684680e+02
   7.0216780e+02   6.1938130e+02
   7.0264990e+02   5.9609940e+02
   7.0313200e+02   5.7097860e+02
   7.0361410e+02   5.4543990e+02
   7.0409630e+02   5.2172570e+02
   7.0457840e+02   5.0187450e+02
   7.0506050e+02   4.8005910e+02
   7.0554260e+02   4.5321970e+02
   7.0602470e+02   4.2408080e+02
   7.0650680e+02   4.0778520e+02
   7.0698900e+02   4.0629940e+02
   7.0747110e+02   4.0038350e+02
   7.0795320e+02   3.7657060e+02
   7.0843530e+02   3.4189780e+02
   7.0891740e+02   3.1436460e+02
   7.0939950e+02   2.9347800e+02
   7.0988170e+02   2.7627010e+02
   7.1036380e+02   2.6271420e+02
   7.1084590e+02   2.5080460e+02
   7.1132800e+02   2.3920260e+02
   7.1181010e+02   2.2766200e+02
   7.1229220e+02   2.1619430e+02
   7.1277440e+02   2.0490450e+02
   7.1325650e+02   1.9350010e+02
   7.1373860e+02   1.8124710e+02
   7.1422070e+02   1.6600010e+02
   7.1470280e+02   1.5595960e+02
   7.1518490e+02   1.5285890e+02
   7.1566710e+02   1.5175710e+02
   7.1614920e+02   1.4839560e+02
   7.1663130e+02   1.4257170e+02
   7.1711340e+02   1.2965120e+02
   7.1759550e+02   1.0685930e+02
   7.1807760e+02   8.3622310e+01
   7.1855980e+02   7.3378540e+01
   7.1904190e+02   7.1114620e+01
   7.1952400e+02   6.7005860e+01
   7.2000610e+02   5.2886960e+01
   7.2048820e+02   4.1742550e+01
   7.2097030e+02   4.1878780e+01
   7.2145250e+02   4.9105220e+01
   7.2193460e+02   5.3871700e+01
   7.2241670e+02   5.3486570e+01
   7.2289880e+02   5.2460940e+01
   7.2338090e+02   5.1934080e+01
   7.2386300e+02   5.1353150e+01
   7.2434520e+02   4.8367550e+01
   7.2482730e+02   4.2821530e+01
   7.2530940e+02   3.6081540e+01
   7.2579150e+02   2.7904420e+01
   7.2627360e+02   1.9371460e+01
   7.2675570e+02   1.3420170e+01
   7.2723790e+02   9.8687740e+00
   7.2772000e+02   7.2719730e+00
   7.2820210e+02   4.6496580e+00
   7.2868420e+02   2.6314700e+00
   7.2916630e+02   1.3565670e+00
   7.2964840e+02   8.3190900e-01
   7.3013060e+02   2.3923340e+00
   7.3061270e+02   1.3416380e+01
   7.3109480e+02   2.0613280e+01
   7.3157690e+02   1.5265140e+01
   7.3205900e+02   7.8552250e+00
   7.3254110e+02   2.1472900e+01
   7.3302330e+02   2.3610230e+01
   7.3350540e+02   2.0699220e+01
   7.3398750e+02   1.6169680e+01
   7.3446960e+02   1.0909300e+01
   7.3495170e+02   1.3820070e+01
   7.3543380e+02   2.7614500e+01
   7.3591600e+02   3.9259890e+01
   7.3639810e+02   3.0885740e+01
   7.3688020e+02   1.3266970e+01
   7.3736230e+02   1.9562990e+00
   7.3784440e+02   7.7587900e-01
   7.3832660e+02   7.0874020e+00
   7.3880870e+02   3.3219970e+01
   7.3929080e+02   6.1842650e+01
   7.3977290e+02   6.5868650e+01
   7.4025510e+02   2.3452510e+01
   7.4073720e+02   4.1071780e+00
   7.4121930e+02   5.0477290e+00
   7.4170140e+02   8.4868160e+00
   7.4218350e+02   9.7602540e+00
   7.4266560e+02   1.4124760e+00
   7.4314780e+02   8.1459960e+00
   7.4362990e+02   3.3715820e+00
   7.4411200e+02   6.6551510e+00
   7.4459410e+02   1.4135860e+01
   7.4507620e+02   1.8804930e+01
   7.4555830e+02   2.0115230e+01
   7.4604050e+02   1.6001830e+01
   7.4652260e+02   1.0042240e+01
   7.4700470e+02   1.6665040e+00
   7.4748680e+02   7.8013920e+00
   7.4796890e+02   1.0788820e+01
   7.4845100e+02   1.4526370e+00
   7.4893320e+02   8.1585690e+00
   7.4941530e+02   1.5606320e+01
   7.4989740e+02   2.0536620e+01
   7.5037950e+02   1.7753420e+01
   7.5086160e+02   6.2039790e+00
   7.5134380e+02   4.8344730e+00
   7.5182590e+02   8.8361820e+00
   7.5230800e+02   8.1383060e+00
   7.5279010e+02   9.2878420e+00
   7.5327220e+02   1.2145870e+01
   7.5375430e+02   1.1493410e+01
   7.5423650e+02   1.8182370e+00
   7.5471860e+02   1.6174070e+01
   7.5520070e+02   2.2015990e+01
   7.5568280e+02   1.7397460e+01
   7.5616490e+02   9.7686770e+00
   7.5664700e+02   6.2717290e+00
   7.5712920e+02   1.9177370e+01
   7.5761130e+02   2.0700810e+01
   7.5809340e+02   7.2049560e+00
   7.5857550e+02   2.0640870e+00
   7.5905760e+02   7.6887210e+00
   7.5953970e+02   7.4011230e+00
   7.6002190e+02   7.2713620e+00
   7.6050400e+02   3.0067870e+01
   7.6098610e+02   3.7684690e+01
   7.6146820e+02   2.3354000e+01
   7.6195030e+02   1.0968510e+01
   7.6243240e+02   2.5738890e+01
   7.6291460e+02   5.0439820e+01
   7.6339670e+02   6.4625240e+01
   7.6387880e+02   5.7488160e+01
   7.6436090e+02   4.9141110e+01
   7.6484300e+02   4.0232420e+01
   7.6532510e+02   3.3230220e+01
   7.6580730e+02   3.0811040e+01
   7.6628940e+02   3.3089110e+01
   7.6677150e+02   4.0685910e+01
   7.6725360e+02   5.6271240e+01
   7.6773570e+02   7.2299190e+01
   7.6821780e+02   7.3416750e+01
   7.6870000e+02   6.3404420e+01
   7.6918210e+02   5.6807250e+01
   7.6966420e+02   5.6945800e+01
   7.7014630e+02   6.2852910e+01
   7.7062840e+02   7.9363400e+01
   7.7111050e+02   1.0038060e+02
   7.7159270e+02   1.1411440e+02
   7.7207480e+02   1.1105700e+02
   7.7255690e+02   1.0686250e+02
   7.7303900e+02   1.0331580e+02
   7.7352110e+02   1.0171350e+02
   7.7400320e+02   1.0661960e+02
   7.7448540e+02   1.2066260e+02
   7.7496750e+02   1.2999760e+02
   7.7544960e+02   1.2901540e+02
   7.7593170e+02   1.2204490e+02
   7.7641380e+02   1.1849770e+02
   7.7689590e+02   1.1836610e+02
   7.7737810e+02   1.2141110e+02
   7.7786020e+02   1.3041200e+02
   7.7834230e+02   1.4020120e+02
   7.7882440e+02   1.4751990e+02
   7.7930650e+02   1.5218380e+02
   7.7978860e+02   1.5368090e+02
   7.8027080e+02   1.4907570e+02
   7.8075290e+02   1.4431190e+02
   7.8123500e+02   1.3837990e+02
   7.8171710e+02   1.3237550e+02
   7.8219920e+02   1.4049990e+02
   7.8268130e+02   1.6751180e+02
   7.8316350e+02   1.9001670e+02
   7.8364560e+02   1.9227390e+02
   7.8412770e+02   1.8131350e+02
   7.8460980e+02   1.8029490e+02
   7.8509190e+02   1.8852880e+02
   7.8557400e+02   1.9899180e+02
   7.8605620e+02   2.1239560e+02
   7.8653830e+02   2.2236220e+02
   7.8702040e+02   2.2160780e+02
   7.8750250e+02   2.0984500e+02
   7.8798460e+02   1.9879300e+02
   7.8846670e+02   1.8873400e+02
   7.8894890e+02   1.8273210e+02
   7.8943100e+02   1.8333140e+02
   7.8991310e+02   1.9091380e+02
   7.9039520e+02   1.9391110e+02
   7.9087730e+02   1.9232650e+02
   7.9135940e+02   1.8872600e+02
   7.9184160e+02   1.8220290e+02
   7.9232370e+02   1.7542360e+02
   7.9280580e+02   1.7749570e+02
   7.9328790e+02   1.8806470e+02
   7.9377000e+02   1.9524790e+02
   7.9425210e+02   1.9260680e+02
   7.9473430e+02   1.8438530e+02
   7.9521640e+02   1.6976150e+02
   7.9569850e+02   1.4359770e+02
   7.9618060e+02   1.3324400e+02
   7.9666270e+02   1.5066100e+02
   7.9714480e+02   1.7072280e+02
   7.9762700e+02   1.7870790e+02
   7.9810910e+02   1.7577910e+02
   7.9859120e+02   1.7657240e+02
   7.9907330e+02   1.8041630e+02
   7.9955540e+02   1.8376430e+02
   8.0003750e+02   1.8579690e+02
   8.0051970e+02   1.8601430e+02
   8.0100180e+02   1.7939600e+02
   8.0148390e+02   1.6432960e+02
   8.0196600e+02   1.5182670e+02
   8.0244810e+02   1.5190030e+02
   8.0293020e+02   1.5602940e+02
   8.0341240e+02   1.5679080e+02
   8.0389450e+02   1.5088150e+02
   8.0437660e+02   1.4846080e+02
   8.0485870e+02   1.5121090e+02
   8.0534080e+02   1.5499400e+02
   8.0582290e+02   1.5522550e+02
   8.0630510e+02   1.5171690e+02
   8.0678720e+02   1.5008400e+02
   8.0726930e+02   1.5144170e+02
   8.0775140e+02   1.5268770e+02
   8.0823350e+02   1.4952980e+02
   8.0871560e+02   1.4561130e+02
   8.0919780e+02   1.4544810e+02
   8.0967990e+02   1.5127370e+02
   8.1016200e+02   1.5565060e+02
   8.1064410e+02   1.5475420e+02
   8.1112620e+02   1.5177650e+02
   8.1160830e+02   1.5016540e+02
   8.1209050e+02   1.4887000e+02
   8.1257260e+02   1.4909950e+02
   8.1305470e+02   1.5266110e+02
   8.1353680e+02   1.5473050e+02
   8.1401890e+02   1.4593010e+02
   8.1450100e+02   1.2940750e+02
   8.1498320e+02   1.2023280e+02
   8.1546530e+02   1.2136980e+02
   8.1594740e+02   1.2603210e+02
   8.1642950e+02   1.3284920e+02
   8.1691160e+02   1.3773340e+02
   8.1739370e+02   1.3473860e+02
   8.1787590e+02   1.2164290e+02
   8.1835800e+02   1.0744700e+02
   8.1884010e+02   8.6173100e+01
   8.1932220e+02   6.8956670e+01
   8.1980430e+02   6.9099370e+01
   8.2028640e+02   9.3219480e+01
   8.2076860e+02   1.0691850e+02
   8.2125070e+02   1.0545320e+02
   8.2173280e+02   9.7755130e+01
   8.2221490e+02   9.4885500e+01
   8.2269700e+02   9.4781010e+01
   8.2317910e+02   9.1491940e+01
   8.2366130e+02   8.2822140e+01
   8.2414340e+02   7.4775630e+01
   8.2462550e+02   7.5985230e+01
   8.2510760e+02   7.8074580e+01
   8.2558970e+02   7.1625120e+01
   8.2607180e+02   3.4108030e+01
   8.2655400e+02   1.9613530e+01
   8.2703610e+02   3.9840700e+01
   8.2751820e+02   6.9735350e+01
   8.2800030e+02   7.7587520e+01
   8.2848240e+02   6.3566770e+01
   8.2896450e+02   5.6086060e+01
   8.2944670e+02   6.0866580e+01
   8.2992880e+02   6.6622560e+01
   8.3041090e+02   5.5670900e+01
   8.3089300e+02   3.8737670e+01
   8.3137510e+02   3.3653320e+01
   8.3185720e+02   5.1939700e+01
   8.3233940e+02   6.6574220e+01
   8.3282150e+02   6.5520390e+01
   8.3330360e+02   5.7488280e+01
   8.3378570e+02   5.2192750e+01
   8.3426780e+02   4.9988400e+01
   8.3474990e+02   5.0059330e+01
   8.3523210e+02   5.3215330e+01
   8.3571420e+02   5.6664790e+01
   8.3619630e+02   5.8082760e+01
   8.3667840e+02   5.6975590e+01
   8.3716050e+02   4.9588870e+01
   8.3764260e+02   3.3161620e+01
   8.3812480e+02   2.0121220e+01
   8.3860690e+02   2.4420040e+01
   8.3908900e+02   3.5357540e+01
   8.3957110e+02   4.0966550e+01
   8.4005320e+02   3.5096440e+01
   8.4053530e+02   3.0531010e+01
   8.4101750e+02   2.8259400e+01
   8.4149960e+02   2.7390500e+01
   8.4198170e+02   2.7269410e+01
   8.4246380e+02   2.7929810e+01
   8.4294590e+02   2.8073360e+01
   8.4342800e+02   2.7261720e+01
   8.4391020e+02   2.7581180e+01
   8.4439230e+02   3.3700680e+01
   8.4487440e+02   4.1731080e+01
   8.4535650e+02   4.4777220e+01
   8.4583860e+02   4.0139280e+01
   8.4632070e+02   3.5682250e+01
   8.4680290e+02   3.5074340e+01
   8.4728500e+02   3.5724980e+01
   8.4776710e+02   3.5337040e+01
   8.4824920e+02   3.3426030e+01
   8.4873130e+02   3.1695800e+01
   8.4921340e+02   3.0185180e+01
   8.4969560e+02   2.8771610e+01
   8.5017770e+02   2.6490720e+01
   8.5065980e+02   2.4141110e+01
   8.5114190e+02   2.5465820e+01
   8.5162400e+02   3.1365230e+01
   8.5210610e+02   3.6240230e+01
   8.5258830e+02   3.5745120e+01
   8.5307040e+02   3.2336790e+01
   8.5355250e+02   2.7741090e+01
   8.5403460e+02   2.1055420e+01
   8.5451670e+02   1.7234990e+01
   8.5499880e+02   1.7990360e+01
   8.5548100e+02   1.9702270e+01
   8.5596310e+02   1.8596070e+01
   8.5644520e+02   1.4549440e+01
   8.5692730e+02   1.9232060e+01
   8.5740940e+02   3.3742070e+01
   8.5789150e+02   4.5531010e+01
   8.5837370e+02   3.6466060e+01
   8.5885580e+02   2.1629270e+01
   8.5933790e+02   2.4101560e+01
   8.5982000e+02   4.8211550e+01
   8.6030210e+02   6.3220210e+01
   8.6078420e+02   4.7467900e+01
   8.6126640e+02   2.7989260e+01
   8.6174850e+02   1.9912350e+01
   8.6223060e+02   2.3569090e+01
   8.6271270e+02   2.8732420e+01
   8.6319480e+02   3.6978270e+01
   8.6367690e+02   4.1932860e+01
   8.6415910e+02   3.7364260e+01
   8.6464120e+02   2.6567990e+01
   8.6512330e+02   1.5339110e+01
   8.6560540e+02   4.2388920e+00
   8.6608750e+02   1.3457030e+00
   8.6656960e+02   8.4479980e+00
   8.6705180e+02   1.9948360e+01
   8.6753390e+02   2.5500370e+01
   8.6801600e+02   2.4240970e+01
   8.6849810e+02   1.6226560e+01
   8.6898020e+02   4.2518310e+00
   8.6946230e+02   1.9119750e+01
   8.6994450e+02   1.7286740e+01
   8.7042660e+02   2.7949220e+00
   8.7090870e+02   6.1317140e+00
   8.7139080e+02   9.0881350e+00
   8.7187290e+02   9.9039310e+00
   8.7235500e+02   1.1740110e+01
   8.7283720e+02   1.1785160e+01
   8.7331930e+02   3.7094730e+00
   8.7380140e+02   9.6027830e+00
   8.7428350e+02   1.2670410e+01
   8.7476560e+02   8.6711430e+00
   8.7524770e+02   2.6204220e+01
   8.7572990e+02   3.2953860e+01
   8.7621200e+02   3.0733520e+01
   8.7669410e+02   2.4419680e+01
   8.7717620e+02   1.4059810e+01
   8.7765830e+02   8.3774410e+00
   8.7814040e+02   1.4341550e+01
   8.7862260e+02   2.3948850e+01
   8.7910470e+02   2.5842410e+01
   8.7958690e+02   2.2714840e+01
   8.8006900e+02   2.1569090e+01
   8.8055110e+02   2.9358890e+01
   8.8103320e+02   3.4258420e+01
   8.8151530e+02   3.0829100e+01
   8.8199740e+02   2.3506100e+01
   8.8247960e+02   1.9766240e+01
   8.8296170e+02   1.9357670e+01
   8.8344380e+02   2.1295040e+01
   8.8392590e+02   2.6494870e+01
   8.8440800e+02   3.1839840e+01
   8.8489010e+02   3.0229250e+01
   8.8537230e+02   2.5348750e+01
   8.8585440e+02   2.6561400e+01
   8.8633650e+02   4.2540650e+01
   8.8681860e+02   5.6262080e+01
   8.8730070e+02   5.7046140e+01
   8.8778280e+02   5.2424190e+01
   8.8826500e+02   5.3184080e+01
   8.8874710e+02   6.2238400e+01
   8.8922920e+02   6.9236570e+01
   8.8971130e+02   7.4013920e+01
   8.9019340e+02   7.5684940e+01
   8.9067550e+02   7.0508420e+01
   8.9115770e+02   6.1330200e+01
   8.9163980e+02   5.8891360e+01
   8.9212190e+02   6.7246460e+01
   8.9260400e+02   7.1768800e+01
   8.9308610e+02   5.4967900e+01
   8.9356820e+02   3.3799560e+01
   8.9405040e+02   2.4783330e+01
   8.9453250e+02   3.5601930e+01
   8.9501460e+02   4.5501100e+01
   8.9549670e+02   5.4958250e+01
   8.9597880e+02   6.2136960e+01
   8.9646090e+02   6.5121580e+01
   8.9694310e+02   6.4620610e+01
   8.9742520e+02   6.3647580e+01
   8.9790730e+02   6.2215820e+01
   8.9838940e+02   6.1875120e+01
   8.9887150e+02   6.6475220e+01
   8.9935360e+02   7.0853760e+01
   8.9983580e+02   6.9219600e+01
   9.0031790e+02   6.0302980e+01
   9.0080000e+02   5.6301390e+01
   9.0128210e+02   6.3345830e+01
   9.0176420e+02   6.7925900e+01
   9.0224630e+02   6.1360720e+01
   9.0272850e+02   4.6371220e+01
   9.0321060e+02   4.6112180e+01
   9.0369270e+02   5.9881840e+01
   9.0417480e+02   7.0797610e+01
   9.0465690e+02   6.4640260e+01
   9.0513900e+02   5.3675660e+01
   9.0562120e+02   5.0561280e+01
   9.0610330e+02   5.3739620e+01
   9.0658540e+02   5.5308230e+01
   9.0706750e+02   5.2098270e+01
   9.0754960e+02   4.8055660e+01
   9.0803170e+02   4.3379030e+01
   9.0851390e+02   3.8787480e+01
   9.0899600e+02   3.7114500e+01
   9.0947810e+02   3.8440670e+01
   9.0996020e+02   3.8863160e+01
   9.1044230e+02   3.6071530e+01
   9.1092440e+02   3.3092650e+01
   9.1140660e+02   3.3478520e+01
   9.1188870e+02   3.6286130e+01
   9.1237080e+02   3.9976560e+01
   9.1285290e+02   4.8290280e+01
   9.1333500e+02   5.1968380e+01
   9.1381710e+02   4.6872680e+01
   9.1429930e+02   3.8122560e+01
   9.1478140e+02   3.2801640e+01
   9.1526350e+02   3.1299320e+01
   9.1574560e+02   2.9267820e+01
   9.1622770e+02   2.5934330e+01
   9.1670980e+02   2.2123540e+01
   9.1719200e+02   2.0236570e+01
   9.1767410e+02   1.8530030e+01
   9.1815620e+02   1.2795040e+01
   9.1863830e+02   4.9414100e-01
   9.1912040e+02   7.8157960e+00
   9.1960250e+02   2.3814700e+00
   9.2008470e+02   8.6192630e+00
   9.2056680e+02   2.3242310e+01
   9.2104890e+02   4.4309450e+01
   9.2153100e+02   4.4815920e+01
   9.2201310e+02   2.2328250e+01
   9.2249520e+02   5.4577600e-01
   9.2297740e+02   4.2646480e+00
   9.2345950e+02   2.3852540e+00
   9.2394160e+02   8.2359620e+00
   9.2442370e+02   1.3194340e+01
   9.2490580e+02   1.6643920e+01
   9.2538790e+02   1.9910770e+01
   9.2587010e+02   1.9334470e+01
   9.2635220e+02   1.1945560e+01
   9.2683430e+02   1.7703860e+00
   9.2731640e+02   1.3345950e+01
   9.2779850e+02   2.2344730e+01
   9.2828060e+02   2.1968140e+01
   9.2876280e+02   4.0520020e+00
   9.2924490e+02   1.8501710e+01
   9.2972700e+02   2.7422850e+01
   9.3020910e+02   2.4753170e+01
   9.3069120e+02   1.6178340e+01
   9.3117330e+02   5.6301270e+00
   9.3165550e+02   2.2884160e+01
   9.3213760e+02   2.6930050e+01
   9.3261970e+02   2.2083620e+01
   9.3310180e+02   1.7658690e+01
   9.3358390e+02   1.4036500e+01
   9.3406600e+02   1.0989140e+01
   9.3454820e+02   8.3442380e+00
   9.3503030e+02   7.0089110e+00
   9.3551240e+02   8.3684080e+00
   9.3599450e+02   1.1006840e+01
   9.3647660e+02   1.3268430e+01
   9.3695870e+02   1.5198730e+01
   9.3744090e+02   1.6471310e+01
   9.3792300e+02   1.4975460e+01
   9.3840510e+02   1.4069700e+01
   9.3888720e+02   1.7852660e+01
   9.3936930e+02   2.8505860e+01
   9.3985140e+02   2.9782840e+01
   9.4033360e+02   2.0563110e+01
   9.4081570e+02   1.0080440e+01
   9.4129780e+02   7.1066890e+00
   9.4177990e+02   6.9655760e+00
   9.4226200e+02   3.1101070e+00
   9.4274410e+02   4.6849370e+00
   9.4322630e+02   1.3693480e+01
   9.4370840e+02   2.9873410e+01
   9.4419050e+02   3.9107060e+01
   9.4467260e+02   3.2915770e+01
   9.4515470e+02   1.4669800e+01
   9.4563680e+02   5.2789310e+00
   9.4611900e+02   4.9379880e+00
   9.4660110e+02   9.4930420e+00
   9.4708320e+02   1.9263670e+01
   9.4756530e+02   3.0536250e+01
   9.4804740e+02   4.0937620e+01
   9.4852950e+02   4.8902830e+01
   9.4901170e+02   5.0793330e+01
   9.4949380e+02   3.4199220e+01
   9.4997590e+02   2.6189700e+01
   9.5045800e+02   3.7795780e+01
   9.5094010e+02   5.5752690e+01
   9.5142220e+02   5.7506470e+01
   9.5190440e+02   4.2670900e+01
   9.5238650e+02   3.6707520e+01
   9.5286860e+02   4.4731200e+01
   9.5335070e+02   5.7215940e+01
   9.5383280e+02   6.6757690e+01
   9.5431490e+02   7.3409910e+01
   9.5479710e+02   7.6028440e+01
   9.5527920e+02   7.1813840e+01
   9.5576130e+02   7.3725460e+01
   9.5624340e+02   9.1770630e+01
   9.5672550e+02   1.0651680e+02
   9.5720760e+02   1.0161990e+02
   9.5768980e+02   7.8153200e+01
   9.5817190e+02   7.8611330e+01
   9.5865400e+02   1.0265780e+02
   9.5913610e+02   1.2622450e+02
   9.5961820e+02   1.3155350e+02
   9.6010030e+02   1.2997060e+02
   9.6058250e+02   1.3130220e+02
   9.6106460e+02   1.3527150e+02
   9.6154670e+02   1.3756510e+02
   9.6202880e+02   1.3113160e+02
   9.6251090e+02   1.3344950e+02
   9.6299300e+02   1.5296150e+02
   9.6347520e+02   1.7991530e+02
   9.6395730e+02   1.8713230e+02
   9.6443940e+02   1.7781310e+02
   9.6492150e+02   1.7234480e+02
   9.6540360e+02   1.7886770e+02
   9.6588570e+02   1.8850260e+02
   9.6636790e+02   1.9775290e+02
   9.6685000e+02   2.0428170e+02
   9.6733210e+02   2.0454850e+02
   9.6781420e+02   1.8827330e+02
   9.6829630e+02   1.8473430e+02
   9.6877840e+02   1.9795230e+02
   9.6926060e+02   2.1607890e+02
   9.6974270e+02   2.3018740e+02
   9.7022480e+02   2.3917760e+02
   9.7070690e+02   2.3529940e+02
   9.7118900e+02   2.1821040e+02
   9.7167110e+02   2.0554100e+02
   9.7215330e+02   2.1246040e+02
   9.7263540e+02   2.2481370e+02
   9.7311750e+02   2.3287480e+02
   9.7359960e+02   2.3641100e+02
   9.7408170e+02   2.4474610e+02
   9.7456380e+02   2.5986350e+02
   9.7504600e+02   2.7232650e+02
   9.7552810e+02   2.7578630e+02
   9.7601020e+02   2.7652600e+02
   9.7649230e+02   2.9074020e+02
   9.7697440e+02   3.1347490e+02
   9.7745650e+02   3.3103810e+02
   9.7793870e+02   3.2884200e+02
   9.7842080e+02   3.2997660e+02
   9.7890290e+02   3.4757750e+02
   9.7938500e+02   3.7077880e+02
   9.7986710e+02   3.8476160e+02
   9.8034920e+02   3.8757100e+02
   9.8083140e+02   3.9012980e+02
   9.8131350e+02   3.9369430e+02
   9.8179560e+02   3.9921170e+02
   9.8227770e+02   4.1135600e+02
   9.8275980e+02   4.2470280e+02
   9.8324190e+02   4.2953630e+02
   9.8372410e+02   4.2287550e+02
   9.8420620e+02   4.2123540e+02
   9.8468830e+02   4.3579520e+02
   9.8517040e+02   4.4934330e+02
   9.8565250e+02   4.5313730e+02
   9.8613460e+02   4.4905860e+02
   9.8661680e+02   4.5435670e+02
   9.8709890e+02   4.6811890e+02
   9.8758100e+02   4.8117410e+02
   9.8806310e+02   4.8824150e+02
   9.8854520e+02   4.9239890e+02
   9.8902730e+02   4.9653910e+02
   9.8950950e+02   4.9926490e+02
   9.8999160e+02   4.9854970e+02
   9.9047370e+02   4.8795290e+02
   9.9095580e+02   4.8478610e+02
   9.9143790e+02   4.9310450e+02
   9.9192000e+02   5.0662610e+02
   9.9240220e+02   5.1728080e+02
   9.9288430e+02   5.2476070e+02
   9.9336640e+02   5.2671060e+02
   9.9384850e+02   5.2132150e+02
   9.9433060e+02   5.1876870e+02
   9.9481270e+02   5.3178550e+02
   9.9529490e+02   5.4690870e+02
   9.9577700e+02   5.5003270e+02
   9.9625910e+02   5.3748330e+02
   9.9674120e+02   5.3685180e+02
   9.9722330e+02   5.5051980e+02
   9.9770540e+02   5.6634010e+02
   9.9818760e+02   5.7736230e+02
   9.9866970e+02   5.8554170e+02
   9.9915180e+02   5.9693550e+02
   9.9963390e+02   6.0963590e+02
   1.0001160e+03   6.1671170e+02
   1.0005980e+03   6.0676220e+02
   1.0010800e+03   6.0007900e+02
   1.0015620e+03   6.0280200e+02
   1.0020440e+03   6.1349460e+02
   1.0025270e+03   6.3321280e+02
   1.0030090e+03   6.6297560e+02
   1.0034910e+03   6.8212550e+02
   1.0039730e+03   6.8326090e+02
   1.0044550e+03   6.8705100e+02
   1.0049370e+03   7.2257060e+02
   1.0054190e+03   7.7115600e+02
   1.0059010e+03   8.0755370e+02
   1.0063840e+03   8.2274980e+02
   1.0068660e+03   8.4565380e+02
   1.0073480e+03   8.8449800e+02
   1.0078300e+03   9.2376430e+02
   1.0083120e+03   9.5493190e+02
   1.0087940e+03   9.7892240e+02
   1.0092760e+03   1.0011030e+03
   1.0097580e+03   1.0215670e+03
   1.0102400e+03   1.0418380e+03
   1.0107230e+03   1.0641260e+03
   1.0112050e+03   1.0852020e+03
   1.0116870e+03   1.1028980e+03
   1.0121690e+03   1.1177370e+03
   1.0126510e+03   1.1315910e+03
   1.0131330e+03   1.1451530e+03
   1.0136150e+03   1.1557190e+03
   1.0140970e+03   1.1618180e+03
   1.0145800e+03   1.1677010e+03
   1.0150620e+03   1.1814000e+03
   1.0155440e+03   1.1984270e+03
   1.0160260e+03   1.2110630e+03
   1.0165080e+03   1.2182290e+03
   1.0169900e+03   1.2182190e+03
   1.0174720e+03   1.1977320e+03
   1.0179540e+03   1.1822010e+03
   1.0184360e+03   1.1917420e+03
   1.0189190e+03   1.2240260e+03
   1.0194010e+03   1.2223870e+03
   1.0198830e+03   1.1867210e+03
   1.0203650e+03   1.1560430e+03
   1.0208470e+03   1.1607600e+03
   1.0213290e+03   1.1746130e+03
   1.0218110e+03   1.1760070e+03
   1.0222930e+03   1.1656780e+03
   1.0227760e+03   1.1450110e+03
   1.0232580e+03   1.1026850e+03
   1.0237400e+03   1.0697040e+03
   1.0242220e+03   1.0512340e+03
   1.0247040e+03   1.0394060e+03
   1.0251860e+03   1.0229240e+03
   1.0256680e+03   1.0040470e+03
   1.0261500e+03   9.9202200e+02
   1.0266320e+03   9.8849410e+02
   1.0271150e+03   9.8558450e+02
   1.0275970e+03   9.8794950e+02
   1.0280790e+03   9.8105100e+02
   1.0285610e+03   9.4958060e+02
   1.0290430e+03   8.9537760e+02
   1.0295250e+03   8.5694120e+02
   1.0300070e+03   8.3680360e+02
   1.0304890e+03   8.1648320e+02
   1.0309720e+03   7.8491750e+02
   1.0314540e+03   7.5160990e+02
   1.0319360e+03   7.3235600e+02
   1.0324180e+03   7.2078600e+02
   1.0329000e+03   7.0358230e+02
   1.0333820e+03   6.7746860e+02
   1.0338640e+03   6.4193820e+02
   1.0343460e+03   5.8913060e+02
   1.0348280e+03   5.3804830e+02
   1.0353110e+03   5.1327250e+02
   1.0357930e+03   5.1097900e+02
   1.0362750e+03   5.1047730e+02
   1.0367570e+03   5.1010280e+02
   1.0372390e+03   5.0153320e+02
   1.0377210e+03   4.7323860e+02
   1.0382030e+03   4.4023240e+02
   1.0386850e+03   4.1034300e+02
   1.0391670e+03   3.8499320e+02
   1.0396500e+03   3.6515940e+02
   1.0401320e+03   3.5285390e+02
   1.0406140e+03   3.4119850e+02
   1.0410960e+03   3.2803830e+02
   1.0415780e+03   3.1363660e+02
   1.0420600e+03   2.9922470e+02
   1.0425420e+03   2.8475820e+02
   1.0430240e+03   2.6842160e+02
   1.0435070e+03   2.4495870e+02
   1.0439890e+03   2.3028990e+02
   1.0444710e+03   2.3419920e+02
   1.0449530e+03   2.3976220e+02
   1.0454350e+03   2.3396970e+02
   1.0459170e+03   2.1733790e+02
   1.0463990e+03   1.9651900e+02
   1.0468810e+03   1.7311190e+02
   1.0473640e+03   1.5756560e+02
   1.0478460e+03   1.6547130e+02
   1.0483280e+03   1.7552640e+02
   1.0488100e+03   1.7290590e+02
   1.0492920e+03   1.5942990e+02
   1.0497740e+03   1.4673720e+02
   1.0502560e+03   1.3422090e+02
   1.0507380e+03   1.2536400e+02
   1.0512200e+03   1.2179820e+02
   1.0517030e+03   1.2098750e+02
   1.0521850e+03   1.1668920e+02
   1.0526670e+03   1.1311440e+02
   1.0531490e+03   1.2065620e+02
   1.0536310e+03   1.4646130e+02
   1.0541130e+03   1.6166500e+02
   1.0545950e+03   1.4800730e+02
   1.0550770e+03   1.3263500e+02
   1.0555590e+03   1.3112770e+02
   1.0560420e+03   1.4130690e+02
   1.0565240e+03   1.4433310e+02
   1.0570060e+03   1.4041250e+02
   1.0574880e+03   1.3636980e+02
   1.0579700e+03   1.3429920e+02
   1.0584520e+03   1.3510660e+02
   1.0589340e+03   1.4343440e+02
   1.0594160e+03   1.5443570e+02
   1.0598990e+03   1.5792690e+02
   1.0603810e+03   1.5112480e+02
   1.0608630e+03   1.4610350e+02
   1.0613450e+03   1.4402760e+02
   1.0618270e+03   1.4314440e+02
   1.0623090e+03   1.4371180e+02
   1.0627910e+03   1.4383610e+02
   1.0632730e+03   1.3768210e+02
   1.0637550e+03   1.2588310e+02
   1.0642380e+03   1.2552040e+02
   1.0647200e+03   1.5541390e+02
   1.0652020e+03   1.7411560e+02
   1.0656840e+03   1.6799610e+02
   1.0661660e+03   1.4722950e+02
   1.0666480e+03   1.3616870e+02
   1.0671300e+03   1.3363950e+02
   1.0676120e+03   1.3346260e+02
   1.0680940e+03   1.3438540e+02
   1.0685770e+03   1.3556750e+02
   1.0690590e+03   1.3980680e+02
   1.0695410e+03   1.4166100e+02
   1.0700230e+03   1.3398840e+02
   1.0705050e+03   1.1280330e+02
   1.0709870e+03   1.0836160e+02
   1.0714690e+03   1.2229970e+02
   1.0719510e+03   1.3542310e+02
   1.0724340e+03   1.3185740e+02
   1.0729160e+03   1.2202200e+02
   1.0733980e+03   1.1803660e+02
   1.0738800e+03   1.1856520e+02
   1.0743620e+03   1.1822080e+02
   1.0748440e+03   1.1492910e+02
   1.0753260e+03   1.1224340e+02
   1.0758080e+03   1.1021410e+02
   1.0762910e+03   1.0914000e+02
   1.0767730e+03   1.1031520e+02
   1.0772550e+03   1.1286580e+02
   1.0777370e+03   1.1480630e+02
   1.0782190e+03   1.1595690e+02
   1.0787010e+03   1.1457590e+02
   1.0791830e+03   1.0675980e+02
   1.0796650e+03   9.9083370e+01
   1.0801470e+03   9.6338260e+01
   1.0806300e+03   9.6893800e+01
   1.0811120e+03   8.7360230e+01
   1.0815940e+03   6.8429690e+01
   1.0820760e+03   6.1341670e+01
   1.0825580e+03   8.0033450e+01
   1.0830400e+03   1.0073380e+02
   1.0835220e+03   1.0452420e+02
   1.0840040e+03   9.7250000e+01
   1.0844860e+03   8.5290650e+01
   1.0849690e+03   6.5399900e+01
   1.0854510e+03   5.1681400e+01
   1.0859330e+03   4.4943360e+01
   1.0864150e+03   4.2503050e+01
   1.0868970e+03   4.4080080e+01
   1.0873790e+03   4.7067020e+01
   1.0878610e+03   4.8870730e+01
   1.0883430e+03   4.8908330e+01
   1.0888260e+03   4.4855590e+01
   1.0893080e+03   2.7772580e+01
   1.0897900e+03   1.8281980e+01
   1.0902720e+03   2.3533810e+01
   1.0907540e+03   3.3605590e+01
   1.0912360e+03   3.1091190e+01
   1.0917180e+03   1.9144410e+01
   1.0922000e+03   1.3007320e+01
   1.0926820e+03   1.5250490e+01
   1.0931650e+03   1.9559450e+01
   1.0936470e+03   2.9451290e+01
   1.0941290e+03   3.3016110e+01
   1.0946110e+03   1.7175170e+01
   1.0950930e+03   1.3270140e+01
   1.0955750e+03   2.0279790e+01
   1.0960570e+03   2.8582760e+00
   1.0965390e+03   7.2280270e+00
   1.0970220e+03   5.7290040e+00
   1.0975040e+03   2.2823240e+01
   1.0979860e+03   2.6294070e+01
   1.0984680e+03   2.0983520e+01
   1.0989500e+03   1.2583740e+01
   1.0994320e+03   2.4267580e+00
   1.0999140e+03   6.6053470e+00
   1.1003960e+03   3.5201420e+00
   1.1008790e+03   1.3171020e+01
   1.1013610e+03   7.4627690e+00
   1.1018430e+03   4.1179200e+00
   1.1023250e+03   9.2089800e-01
   1.1028070e+03   1.7352540e+01
   1.1032890e+03   2.4986820e+01
   1.1037710e+03   5.3291020e+00
   1.1042530e+03   8.8869630e+00
   1.1047350e+03   1.0980590e+01
   1.1052180e+03   6.8480220e+00
   1.1057000e+03   3.0700680e+00
   1.1061820e+03   1.1084000e-01
   1.1066640e+03   1.6407470e+00
   1.1071460e+03   8.2153320e+00
   1.1076280e+03   1.1929440e+01
   1.1081100e+03   4.8060300e+00
   1.1085920e+03   3.7438960e+00
   1.1090740e+03   9.2781980e+00
   1.1095570e+03   1.1712520e+01
   1.1100390e+03   8.7425540e+00
   1.1105210e+03   2.3132300e-01
   1.1110030e+03   2.3354490e+00
   1.1114850e+03   6.9099120e+00
   1.1119670e+03   1.5423580e+01
   1.1124490e+03   4.8377690e+00
   1.1129310e+03   9.3416750e+00
   1.1134140e+03   7.4747310e+00
   1.1138960e+03   1.7785890e+01
   1.1143780e+03   2.8599850e+01
   1.1148600e+03   2.2836550e+01
   1.1153420e+03   1.2433470e+01
   1.1158240e+03   1.6545410e+00
   1.1163060e+03   7.6591800e+00
   1.1167880e+03   1.0899050e+01
   1.1172710e+03   1.0560420e+01
   1.1177530e+03   1.2235720e+01
   1.1182350e+03   2.5333130e+01
   1.1187170e+03   2.7785280e+01
   1.1191990e+03   1.4288820e+01
   1.1196810e+03   2.3007810e+00
   1.1201630e+03   7.5854490e+00
   1.1206450e+03   5.8780520e+00
   1.1211270e+03   1.4457890e+01
   1.1216090e+03   3.1936770e+01
   1.1220920e+03   3.7209230e+01
   1.1225740e+03   4.6833500e+00
   1.1230560e+03   2.3775880e+01
   1.1235380e+03   3.3495240e+01
   1.1240200e+03   3.1703490e+01
   1.1245020e+03   3.1509400e+01
   1.1249840e+03   3.2690800e+01
   1.1254660e+03   3.3428960e+01
   1.1259490e+03   3.3420650e+01
   1.1264310e+03   3.2833620e+01
   1.1269130e+03   3.2912230e+01
   1.1273950e+03   3.1441160e+01
   1.1278770e+03   2.5045650e+01
   1.1283590e+03   1.4916750e+01
   1.1288410e+03   1.0423710e+01
   1.1293230e+03   1.1657470e+01
   1.1298060e+03   1.8261230e+01
   1.1302880e+03   3.3402830e+01
   1.1307700e+03   4.6666260e+01
   1.1312520e+03   4.5213750e+01
   1.1317340e+03   3.6500240e+01
   1.1322160e+03   2.9524780e+01
   1.1326980e+03   2.4044310e+01
   1.1331800e+03   2.6453740e+01
   1.1336620e+03   3.8826660e+01
   1.1341450e+03   5.0325320e+01
   1.1346270e+03   5.4942870e+01
   1.1351090e+03   5.3965820e+01
   1.1355910e+03   4.4725220e+01
   1.1360730e+03   3.1680420e+01
   1.1365550e+03   2.6444950e+01
   1.1370370e+03   4.1219600e+01
   1.1375190e+03   5.1020510e+01
   1.1380010e+03   5.4954590e+01
   1.1384840e+03   5.2468990e+01
   1.1389660e+03   3.6999510e+01
   1.1394480e+03   1.6114750e+01
   1.1399300e+03   1.0888180e+01
   1.1404120e+03   2.0665770e+01
   1.1408940e+03   2.9204830e+01
   1.1413760e+03   2.6489260e+01
   1.1418580e+03   2.6445800e+01
   1.1423410e+03   3.5439450e+01
   1.1428230e+03   4.6244380e+01
   1.1433050e+03   4.1658330e+01
   1.1437870e+03   2.6463990e+01
   1.1442690e+03   2.4251340e+01
   1.1447510e+03   4.0234620e+01
   1.1452330e+03   5.4936160e+01
   1.1457150e+03   5.8156250e+01
   1.1461980e+03   5.5780760e+01
   1.1466800e+03   5.0067020e+01
   1.1471620e+03   4.2179690e+01
   1.1476440e+03   3.5731320e+01
   1.1481260e+03   3.0932130e+01
   1.1486080e+03   3.0375490e+01
   1.1490900e+03   3.5555300e+01
   1.1495720e+03   4.3472530e+01
   1.1500540e+03   5.9144170e+01
   1.1505360e+03   7.1186400e+01
   1.1510190e+03   6.6217770e+01
   1.1515010e+03   4.2423950e+01
   1.1519830e+03   2.7858890e+01
   1.1524650e+03   2.2498660e+01
   1.1529470e+03   2.4354610e+01
   1.1534290e+03   3.8134890e+01
   1.1539110e+03   5.3768680e+01
   1.1543930e+03   6.0732540e+01
   1.1548760e+03   6.0805910e+01
   1.1553580e+03   5.5592650e+01
   1.1558400e+03   4.2452030e+01
   1.1563220e+03   3.7961550e+01
   1.1568040e+03   4.3863160e+01
   1.1572860e+03   5.1533330e+01
   1.1577680e+03   5.3387700e+01
   1.1582500e+03   5.2380130e+01
   1.1587330e+03   5.1635380e+01
   1.1592150e+03   5.1810790e+01
   1.1596970e+03   5.2171260e+01
   1.1601790e+03   5.2670530e+01
   1.1606610e+03   5.0369020e+01
   1.1611430e+03   4.4820920e+01
   1.1616250e+03   4.0950440e+01
   1.1621070e+03   4.4766360e+01
   1.1625890e+03   5.1308720e+01
   1.1630720e+03   5.0713380e+01
   1.1635540e+03   4.2962400e+01
   1.1640360e+03   3.5495360e+01
   1.1645180e+03   2.5885990e+01
   1.1650000e+03   2.4999150e+01
   1.1654820e+03   3.8263550e+01
   1.1659640e+03   5.7236450e+01
   1.1664460e+03   6.7280760e+01
   1.1669280e+03   7.0831180e+01
   1.1674110e+03   7.1023190e+01
   1.1678930e+03   6.7497920e+01
   1.1683750e+03   6.7128050e+01
   1.1688570e+03   7.8299930e+01
   1.1693390e+03   8.3655880e+01
   1.1698210e+03   7.5073240e+01
   1.1703030e+03   5.8572880e+01
   1.1707850e+03   4.4559570e+01
   1.1712680e+03   3.4272340e+01
   1.1717500e+03   3.3121340e+01
   1.1722320e+03   4.8915530e+01
   1.1727140e+03   6.3105960e+01
   1.1731960e+03   6.6735600e+01
   1.1736780e+03   6.7764160e+01
   1.1741600e+03   7.0424440e+01
   1.1746420e+03   7.3892700e+01
   1.1751250e+03   7.4790650e+01
   1.1756070e+03   7.3447140e+01
   1.1760890e+03   7.1478760e+01
   1.1765710e+03   7.2193480e+01
   1.1770530e+03   6.8980220e+01
   1.1775350e+03   5.0367070e+01
   1.1780170e+03   3.2208500e+01
   1.1784990e+03   3.2505980e+01
   1.1789810e+03   5.0227780e+01
   1.1794640e+03   5.0868900e+01
   1.1799460e+03   3.6069700e+01
   1.1804280e+03   2.7754520e+01
   1.1809100e+03   4.5168700e+01
   1.1813920e+03   6.1662720e+01
   1.1818740e+03   6.0211670e+01
   1.1823560e+03   5.0854980e+01
   1.1828380e+03   5.0236940e+01
   1.1833200e+03   5.8868410e+01
   1.1838030e+03   6.1324100e+01
   1.1842850e+03   5.6189090e+01
   1.1847670e+03   5.2450200e+01
   1.1852490e+03   6.1897090e+01
   1.1857310e+03   7.0235840e+01
   1.1862130e+03   6.2729130e+01
   1.1866950e+03   4.6810420e+01
   1.1871770e+03   4.5294920e+01
   1.1876600e+03   5.9609380e+01
   1.1881420e+03   6.8591310e+01
   1.1886240e+03   6.8239620e+01
   1.1891060e+03   6.4751710e+01
   1.1895880e+03   6.1570560e+01
   1.1900700e+03   5.8973750e+01
   1.1905520e+03   5.8674800e+01
   1.1910340e+03   5.9796630e+01
   1.1915160e+03   5.4655030e+01
   1.1919990e+03   4.2102420e+01
   1.1924810e+03   3.3009030e+01
   1.1929630e+03   3.0452760e+01
   1.1934450e+03   3.0473390e+01
   1.1939270e+03   2.7438230e+01
   1.1944090e+03   2.5989380e+01
   1.1948910e+03   3.3115840e+01
   1.1953730e+03   4.9247190e+01
   1.1958550e+03   5.9118040e+01
   1.1963380e+03   6.2522950e+01
   1.1968200e+03   6.0961670e+01
   1.1973020e+03   5.2426270e+01
   1.1977840e+03   4.3744260e+01
   1.1982660e+03   4.5484380e+01
   1.1987480e+03   5.0280030e+01
   1.1992300e+03   4.7700200e+01
   1.1997120e+03   3.4987670e+01
   1.2001950e+03   2.7508540e+01
   1.2006770e+03   2.5482790e+01
   1.2011590e+03   2.7015750e+01
   1.2016410e+03   3.4651980e+01
   1.2021230e+03   4.0579710e+01
   1.2026050e+03   2.8482790e+01
   1.2030870e+03   1.1267940e+01
   1.2035690e+03   1.2399410e+01
   1.2040520e+03   4.6067260e+01
   1.2045340e+03   5.8940920e+01
   1.2050160e+03   4.7678100e+01
   1.2054980e+03   3.6049800e+01
   1.2059800e+03   4.5295780e+01
   1.2064620e+03   5.9235960e+01
   1.2069440e+03   5.7297970e+01
   1.2074260e+03   4.5772830e+01
   1.2079080e+03   3.9563480e+01
   1.2083910e+03   4.2096190e+01
   1.2088730e+03   4.3672730e+01
   1.2093550e+03   4.3825560e+01
   1.2098370e+03   4.2811770e+01
   1.2103190e+03   4.0624510e+01
   1.2108010e+03   3.7940550e+01
   1.2112830e+03   3.3165410e+01
   1.2117650e+03   2.8388180e+01
   1.2122470e+03   3.2367920e+01
   1.2127300e+03   5.0396240e+01
   1.2132120e+03   6.0365840e+01
   1.2136940e+03   5.8781740e+01
   1.2141760e+03   5.4379760e+01
   1.2146580e+03   5.6729860e+01
   1.2151400e+03   6.0295650e+01
   1.2156220e+03   6.0071660e+01
   1.2161040e+03   5.5336790e+01
   1.2165870e+03   4.2619020e+01
   1.2170690e+03   1.4431880e+01
   1.2175510e+03   5.8469240e+00
   1.2180330e+03   2.7375980e+01
   1.2185150e+03   4.8553470e+01
   1.2189970e+03   2.6016110e+01
   1.2194790e+03   9.2310790e+00
   1.2199610e+03   2.1117070e+01
   1.2204430e+03   7.9560550e+00
   1.2209260e+03   3.0914310e+00
   1.2214080e+03   1.0444090e+01
   1.2218900e+03   1.8472900e+01
   1.2223720e+03   2.9194700e+01
   1.2228540e+03   3.5210080e+01
   1.2233360e+03   2.2255620e+01
   1.2238180e+03   3.5960690e+00
   1.2243000e+03   6.8889160e+00
   1.2247820e+03   6.9346920e+00
   1.2252650e+03   2.9533690e+00
   1.2257470e+03   2.6980710e+01
   1.2262290e+03   3.9368410e+01
   1.2267110e+03   2.8171260e+01
   1.2271930e+03   1.3289790e+01
   1.2276750e+03   2.1823120e+01
   1.2281570e+03   3.8691280e+01
   1.2286390e+03   4.5374390e+01
   1.2291220e+03   3.8788450e+01
   1.2296040e+03   3.3890620e+01
   1.2300860e+03   3.0500610e+01
   1.2305680e+03   3.1595830e+01
   1.2310500e+03   4.1275020e+01
   1.2315320e+03   4.9604860e+01
   1.2320140e+03   4.0771120e+01
   1.2324960e+03   2.6337890e+01
   1.2329790e+03   2.1029660e+01
   1.2334610e+03   2.6811400e+01
   1.2339430e+03   3.4343260e+01
   1.2344250e+03   4.4318360e+01
   1.2349070e+03   4.7856930e+01
   1.2353890e+03   3.6010740e+01
   1.2358710e+03   2.3495480e+01
   1.2363530e+03   2.6231570e+01
   1.2368350e+03   3.6628660e+01
   1.2373180e+03   4.6421390e+01
   1.2378000e+03   5.6943360e+01
   1.2382820e+03   4.9186040e+01
   1.2387640e+03   2.2151000e+01
   1.2392460e+03   1.4060060e+00
   1.2397280e+03   4.0521240e+00
   1.2402100e+03   1.5468990e+01
   1.2406920e+03   2.9000730e+01
   1.2411750e+03   4.0939090e+01
   1.2416570e+03   4.5910400e+01
   1.2421390e+03   4.2920650e+01
   1.2426210e+03   3.9315310e+01
   1.2431030e+03   3.5047240e+01
   1.2435850e+03   3.2658450e+01
   1.2440670e+03   3.5890010e+01
   1.2445490e+03   3.9100590e+01
   1.2450310e+03   3.9241700e+01
   1.2455140e+03   3.6496090e+01
   1.2459960e+03   2.9854860e+01
   1.2464780e+03   1.8175780e+01
   1.2469600e+03   1.9297730e+01
   1.2474420e+03   3.2738530e+01
   1.2479240e+03   4.2796880e+01
   1.2484060e+03   3.3787720e+01
   1.2488880e+03   2.4612920e+01
   1.2493700e+03   2.6704960e+01
   1.2498530e+03   3.4403930e+01
   1.2503350e+03   4.0753420e+01
   1.2508170e+03   4.5738890e+01
   1.2512990e+03   5.2597900e+01
   1.2517810e+03   6.0776610e+01
   1.2522630e+03   6.1457280e+01
   1.2527450e+03   3.7425780e+01
   1.2532270e+03   1.8882690e+01
   1.2537100e+03   2.5305540e+01
   1.2541920e+03   3.9471070e+01
   1.2546740e+03   3.7874760e+01
   1.2551560e+03   2.3639040e+01
   1.2556380e+03   2.0497190e+01
   1.2561200e+03   2.8972530e+01
   1.2566020e+03   3.7079710e+01
   1.2570840e+03   4.1304690e+01
   1.2575670e+03   3.9261470e+01
   1.2580490e+03   2.6442870e+01
   1.2585310e+03   1.2636110e+01
   1.2590130e+03   1.4140500e+01
   1.2594950e+03   2.5702030e+01
   1.2599770e+03   2.9126100e+01
   1.2604590e+03   2.3437740e+01
   1.2609410e+03   2.0915650e+01
   1.2614230e+03   3.2844600e+01
   1.2619060e+03   4.0542480e+01
   1.2623880e+03   3.9653560e+01
   1.2628700e+03   3.3397710e+01
   1.2633520e+03   2.1899050e+01
   1.2638340e+03   9.9779050e+00
   1.2643160e+03   1.3000980e+01
   1.2647980e+03   3.0399540e+01
   1.2652800e+03   3.9526370e+01
   1.2657620e+03   2.7383420e+01
   1.2662450e+03   1.5701290e+01
   1.2667270e+03   7.3427730e+00
   1.2672090e+03   3.3752440e+00
   1.2676910e+03   3.2264400e+00
   1.2681730e+03   8.4975590e+00
   1.2686550e+03   1.2713010e+01
   1.2691370e+03   1.4674070e+01
   1.2696190e+03   1.7203610e+01
   1.2701020e+03   2.0060420e+01
   1.2705840e+03   2.3714970e+01
   1.2710660e+03   2.6222290e+01
   1.2715480e+03   2.7393550e+01
   1.2720300e+03   3.0114260e+01
   1.2725120e+03   3.0554440e+01
   1.2729940e+03   1.9922240e+01
   1.2734760e+03   2.2790500e-01
   1.2739580e+03   4.4461670e+00
   1.2744410e+03   1.0109010e+01
   1.2749230e+03   3.1752320e+01
   1.2754050e+03   6.0896120e+01
   1.2758870e+03   8.1457520e+01
   1.2763690e+03   7.0916020e+01
   1.2768510e+03   4.8526730e+01
   1.2773330e+03   3.0084470e+01
   1.2778150e+03   1.6815430e+01
   1.2782970e+03   5.8004150e+00
   1.2787800e+03   3.3570560e+00
   1.2792620e+03   7.4512940e+00
   1.2797440e+03   4.9975590e+00
   1.2802260e+03   1.6088870e+00
   1.2807080e+03   1.4407960e+00
   1.2811900e+03   2.5477290e+00
   1.2816720e+03   4.1682130e+00
   1.2821540e+03   5.5118410e+00
   1.2826370e+03   2.3457030e+00
   1.2831190e+03   4.7468260e+00
   1.2836010e+03   9.5189210e+00
   1.2840830e+03   1.0178100e+01
   1.2845650e+03   1.2480590e+01
   1.2850470e+03   2.6574460e+01
   1.2855290e+03   3.5145260e+01
   1.2860110e+03   2.6874390e+01
   1.2864940e+03   9.9705810e+00
   1.2869760e+03   8.0836180e+00
   1.2874580e+03   1.7690190e+01
   1.2879400e+03   2.8302730e+01
   1.2884220e+03   3.8499760e+01
   1.2889040e+03   4.2605710e+01
   1.2893860e+03   3.1437870e+01
   1.2898680e+03   2.3240840e+01
   1.2903500e+03   2.4895390e+01
   1.2908330e+03   3.2213870e+01
   1.2913150e+03   3.8861820e+01
   1.2917970e+03   4.4828120e+01
   1.2922790e+03   4.8256100e+01
   1.2927610e+03   4.7914310e+01
   1.2932430e+03   5.2204960e+01
   1.2937250e+03   6.5123290e+01
   1.2942070e+03   7.3552980e+01
   1.2946890e+03   7.0742190e+01
   1.2951720e+03   6.6168950e+01
   1.2956540e+03   7.2339840e+01
   1.2961360e+03   8.1474000e+01
   1.2966180e+03   8.2791260e+01
   1.2971000e+03   7.3262450e+01
   1.2975820e+03   6.2113280e+01
   1.2980640e+03   5.2219850e+01
   1.2985460e+03   4.5226560e+01
   1.2990290e+03   4.2315190e+01
   1.2995110e+03   4.6279790e+01
   1.2999930e+03   6.3996340e+01
   1.3004750e+03   8.2301640e+01
   1.3009570e+03   8.5648930e+01
   1.3014390e+03   7.6511230e+01
   1.3019210e+03   7.1506350e+01
   1.3024030e+03   7.0604860e+01
   1.3028850e+03   7.4383790e+01
   1.3033680e+03   8.5411010e+01
   1.3038500e+03   9.0597900e+01
   1.3043320e+03   7.2619750e+01
   1.3048140e+03   5.4077510e+01
   1.3052960e+03   5.0013790e+01
   1.3057780e+03   5.5723390e+01
   1.3062600e+03   5.3860350e+01
   1.3067420e+03   4.6930050e+01
   1.3072240e+03   4.5489010e+01
   1.3077070e+03   5.3677980e+01
   1.3081890e+03   5.7935910e+01
   1.3086710e+03   5.2536380e+01
   1.3091530e+03   4.1275880e+01
   1.3096350e+03   2.1686400e+01
   1.3101170e+03   1.9201660e+00
   1.3105990e+03   2.3905030e+00
   1.3110810e+03   1.5149540e+01
   1.3115640e+03   2.5547240e+01
   1.3120460e+03   3.1127320e+01
   1.3125280e+03   2.9463620e+01
   1.3130100e+03   1.8174680e+01
   1.3134920e+03   7.8505860e+00
   1.3139740e+03   1.8177490e+00
   1.3144560e+03   1.7919900e-01
   1.3149380e+03   0.0000000e+00
   1.5000000e+03   0.0000000e+00
