   1.0000000e+02   0.0000000e+00
   1.1976190e+02   9.5314973e-01
   1.2309524e+02   8.2019626e-01
   1.2642857e+02   5.7993036e-01
   1.2976190e+02   4.6153846e-01
   1.3309524e+02   3.1180753e-01
   1.3619048e+02   2.2950301e-01
   1.3952381e+02   1.7252295e-01
   1.4285714e+02   9.3067426e-02
   1.4619048e+02   6.2361507e-02
   1.4952381e+02   3.7986705e-02
   1.5285714e+02   1.7727129e-02
   1.5619048e+02   1.0446344e-02
   1.5928571e+02   3.1655587e-04
   1.6261905e+02  -3.1655587e-04
   1.6595238e+02   0.0000000e+00
   1.6928571e+02   1.3611903e-02
   1.7261905e+02   3.9569484e-02
   1.7595238e+02   8.9585312e-02
   1.7928571e+02   2.4849636e-01
   1.8261905e+02   3.7575182e-01
   1.8571429e+02   4.4539411e-01
   1.8904762e+02   4.2956632e-01
   1.9238095e+02   3.3808167e-01
   1.9571429e+02   2.1114277e-01
   1.9904762e+02   1.1712567e-01
   2.0238095e+02   5.4447610e-02
   2.0571429e+02   2.5324470e-02
   2.0880952e+02   1.1079456e-02
   2.1214286e+02   2.2158911e-03
   2.1880952e+02  -3.1655587e-04
   2.2214286e+02  -3.1655587e-04
   2.2547619e+02   1.2662235e-03
   2.2880952e+02   1.4245014e-02
   2.3190476e+02   1.4561570e-02
   2.3523810e+02   9.8132320e-03
   2.3857143e+02   7.5973409e-03
   2.4190476e+02   3.7986705e-03
   2.4523810e+02  -3.1655587e-04
   2.4857143e+02  -3.1655587e-04
   2.5190476e+02   6.3311174e-03
   2.5500000e+02   6.3311174e-03
   2.5833333e+02   0.0000000e+00
   2.6166667e+02   0.0000000e+00
   2.6500000e+02   2.2158911e-03
   2.6833333e+02  -3.1655587e-04
   2.7166667e+02  -3.1655587e-04
   2.7500000e+02  -3.1655587e-04
   2.7809524e+02   3.1655587e-04
   2.8142857e+02   0.0000000e+00
   2.8476190e+02   1.5827794e-03
   2.8809524e+02   1.6777461e-02
   2.9142857e+02   1.6460905e-02
   2.9476190e+02   1.4245014e-02
   2.9809524e+02   1.4878126e-02
   3.0119048e+02   1.2662235e-02
   3.0452381e+02   1.0446344e-02
   3.0785714e+02   4.7483381e-03
   3.1119048e+02   6.3311174e-03
   3.1452381e+02   5.6980057e-03
   3.1785714e+02   1.1396011e-02
   3.2119048e+02   1.2978791e-02
   3.2428571e+02   7.2807851e-03
   3.2761905e+02   7.2807851e-03
   3.3095238e+02   1.5511238e-02
   3.3428571e+02   1.4245014e-02
   3.3761905e+02   1.5194682e-02
   3.4095238e+02   1.9309908e-02
   3.4428571e+02   1.9943020e-02
   3.4761905e+02   1.9943020e-02
   3.5071429e+02   2.5957582e-02
   3.5404762e+02   4.2418487e-02
   3.5738095e+02   4.3684710e-02
   3.6071429e+02   6.9009180e-02
   3.6404762e+02   7.0275404e-02
   3.6738095e+02   5.7613169e-02
   3.7071429e+02   6.0462172e-02
   3.7380952e+02   6.2678063e-02
   3.7714286e+02   7.1541627e-02
   3.8047619e+02   8.8319088e-02
   3.8380952e+02   9.7499209e-02
   3.8714286e+02   9.9715100e-02
   3.9047619e+02   8.4836974e-02
   3.9380952e+02   8.3570750e-02
   3.9690476e+02   4.5267490e-02
   4.0023810e+02   3.7670149e-02
   4.0357143e+02   3.2605255e-02
   4.0690476e+02   2.4691358e-02
   4.1023810e+02   2.4691358e-02
   4.1357143e+02   2.7540361e-02
   4.1690476e+02   2.8490028e-02
   4.2000000e+02   2.9123140e-02
   4.2333333e+02   2.9439696e-02
   4.2666667e+02   2.6274137e-02
   4.3000000e+02   2.8490028e-02
   4.3333333e+02   3.1339031e-02
   4.3666667e+02   3.1022475e-02
   4.4000000e+02   2.1209243e-02
   4.4309524e+02   1.9943020e-02
   4.4642857e+02   2.2475467e-02
   4.4976190e+02   2.2475467e-02
   4.5309524e+02   2.2792023e-02
   4.5642857e+02   2.2792023e-02
   4.5976190e+02   2.1842355e-02
   4.6309524e+02   2.7540361e-02
   4.6619048e+02   3.0705920e-02
   4.6952381e+02   3.5454258e-02
   4.7285714e+02   2.1209243e-02
   4.7619048e+02   1.6777461e-02
   4.7952381e+02   2.2158911e-03
   4.8619048e+02   0.0000000e+00
   4.8928571e+02   2.8490028e-03
   4.9261905e+02   8.2304527e-03
   4.9595238e+02   6.9642292e-03
   4.9928571e+02   3.4821146e-03
   5.0261905e+02   1.2345679e-02
   5.0595238e+02   1.1712567e-02
   5.0928571e+02   0.0000000e+00
   5.1261905e+02   0.0000000e+00
   5.1571429e+02   0.0000000e+00
   5.1904762e+02   9.4966762e-04
   5.2238095e+02   8.5470085e-03
   5.2571429e+02   8.5470085e-03
   5.2904762e+02  -3.1655587e-04
   5.3238095e+02   6.3311174e-04
   5.3571429e+02   9.4966762e-04
   5.3880952e+02   1.5827794e-03
   5.4214286e+02   2.5324470e-03
   5.4547619e+02  -3.1655587e-04
   5.4880952e+02   9.4966762e-04
   5.5214286e+02   8.8635644e-03
   5.5547619e+02   1.1396011e-02
   5.5880952e+02   9.1801203e-03
   5.6190476e+02   9.1801203e-03
   5.6523810e+02   1.4245014e-02
   5.6857143e+02   8.2304527e-03
   5.7190476e+02   6.6476733e-03
   5.7523810e+02   6.3311174e-03
   5.7857143e+02   3.4821146e-03
   5.8190476e+02  -3.1655587e-04
   5.8500000e+02  -3.1655587e-04
   5.8833333e+02   3.1655587e-04
   5.9166667e+02   3.1655587e-04
   5.9500000e+02  -3.1655587e-04
   5.9833333e+02   2.5324470e-03
   6.0166667e+02   4.4317822e-03
   6.0500000e+02   2.2158911e-03
   6.0809524e+02   2.2158911e-03
   6.1142857e+02   1.2662235e-03
   6.1476190e+02   2.2158911e-03
   6.1809524e+02   3.7986705e-03
   6.2142857e+02   2.5324470e-03
   6.2476190e+02   2.8490028e-03
   6.2809524e+02   3.4821146e-03
   6.3119048e+02   1.6460905e-02
   6.3452381e+02   4.8433048e-02
   6.3785714e+02   8.4520418e-02
   6.4119048e+02   1.0636277e-01
   6.4452381e+02   9.7815764e-02
   6.4785714e+02   6.6476733e-02
   6.5119048e+02   6.5527066e-02
   6.5428571e+02   7.5023742e-02
   6.5761905e+02   7.6606521e-02
   6.6095238e+02   1.3137069e-01
   6.6428571e+02   1.8043685e-01
   6.6761905e+02   2.4944603e-01
   6.7095238e+02   3.1908832e-01
   6.7428571e+02   3.6688826e-01
   6.7761905e+02   3.7796771e-01
   6.8071429e+02   3.3839823e-01
   6.8404762e+02   2.1177588e-01
   6.8738095e+02   2.0829376e-01
   6.9071429e+02   1.2883824e-01
   6.9404762e+02   1.2630579e-01
   6.9738095e+02   8.5470085e-02
   7.0071429e+02   6.5210510e-02
   7.0380952e+02   5.4764166e-02
   7.0714286e+02   5.2548275e-02
   7.1047619e+02   3.0389364e-02
   7.1380952e+02   9.8132320e-03
   7.1714286e+02   0.0000000e+00
   7.2047619e+02   1.5827794e-03
   7.2380952e+02   3.1655587e-03
   7.2690476e+02   1.2345679e-02
   7.3023810e+02   1.3295347e-02
   7.3357143e+02   3.0705920e-02
   7.3690476e+02   2.8806584e-02
   7.4023810e+02   1.7410573e-02
   7.4357143e+02   7.9138968e-03
   7.4690476e+02   1.2662235e-03
   7.5000000e+02   3.1655587e-03
   7.5333333e+02   1.5827794e-03
   7.5666667e+02   2.5324470e-03
   7.6000000e+02   6.9642292e-03
   7.6333333e+02   7.9138968e-03
   7.6666667e+02   6.3311174e-03
   7.7000000e+02   3.4821146e-03
   7.7309524e+02   5.0648940e-03
   7.7642857e+02   1.2978791e-02
   7.7976190e+02   1.7410573e-02
   7.8309524e+02   6.6476733e-03
   7.8642857e+02   9.4966762e-04
   7.8976190e+02   0.0000000e+00
   7.9309524e+02   3.7986705e-03
   7.9619048e+02   1.1712567e-02
   7.9952381e+02   2.2475467e-02
   8.0285714e+02   4.5584046e-02
   8.0619048e+02   6.1095283e-02
   8.0952381e+02   7.1541627e-02
   8.1285714e+02   7.9772080e-02
   8.1619048e+02   8.2621083e-02
   8.1928571e+02   8.6736309e-02
   8.2261905e+02   9.5283318e-02
   8.2595238e+02   9.2117759e-02
   8.2928571e+02   8.8319088e-02
   8.3261905e+02   7.9772080e-02
   8.3595238e+02   7.9772080e-02
   8.3928571e+02   6.4893954e-02
   8.4238095e+02   6.3944286e-02
   8.4571429e+02   3.7037037e-02
   8.4904762e+02   2.4374802e-02
   8.5238095e+02   2.2792023e-02
   8.5571429e+02   9.1801203e-03
   8.5904762e+02   1.0129788e-02
   8.6238095e+02   4.4317822e-03
   8.6571429e+02   4.7483381e-03
   8.6880952e+02   7.2807851e-03
   8.7214286e+02   6.6476733e-03
   8.7547619e+02   6.3311174e-04
   8.7880952e+02   9.4966762e-04
   8.8214286e+02   8.5470085e-03
   8.8547619e+02   1.1396011e-02
   8.8880952e+02   1.5511238e-02
   8.9190476e+02   1.4245014e-02
   8.9523810e+02   1.1712567e-02
   8.9857143e+02  -3.1655587e-04
   9.0190476e+02  -1.2662235e-03
   9.0523810e+02   0.0000000e+00
   9.1190476e+02   7.5973409e-03
   9.1500000e+02   1.0129788e-02
   9.1833333e+02   1.5194682e-02
   9.2166667e+02   1.2029123e-02
   9.2500000e+02   6.0145616e-03
   9.2833333e+02   5.3814498e-03
   9.3166667e+02   1.2029123e-02
   9.3500000e+02   1.4561570e-02
   9.3809524e+02   1.5827794e-02
   9.4142857e+02   2.5324470e-03
   9.4476190e+02   1.8993352e-03
   9.4809524e+02   2.5324470e-03
   9.5142857e+02   3.7986705e-03
   9.5476190e+02   2.5324470e-03
   9.5809524e+02   2.5324470e-03
   9.6119048e+02   3.1655587e-04
   9.6452381e+02   9.4966762e-04
   9.6785714e+02   3.4821146e-03
   9.7119048e+02   1.5827794e-03
   9.7452381e+02   2.2158911e-03
   9.7785714e+02   7.9138968e-03
   9.8119048e+02   1.0446344e-02
   9.8428571e+02   3.7986705e-03
   9.8761905e+02   3.4821146e-03
   9.9095238e+02  -3.1655587e-04
   9.9428571e+02   0.0000000e+00
   9.9761905e+02   9.1801203e-03
   1.0009524e+03   1.4878126e-02
   1.0042857e+03   2.0892688e-02
   1.0076190e+03   2.5007914e-02
   1.0107143e+03   2.7540361e-02
   1.0140476e+03   2.2792023e-02
   1.0173810e+03   2.2792023e-02
   1.0207143e+03   1.5827794e-02
   1.0240476e+03   1.6460905e-02
   1.0273810e+03   2.6907249e-02
   1.0307143e+03   3.5770814e-02
   1.0338095e+03   4.9699272e-02
   1.0371429e+03   6.1095283e-02
   1.0404762e+03   7.0591959e-02
   1.0438095e+03   7.2174739e-02
   1.0471429e+03   6.4893954e-02
   1.0504762e+03   5.2548275e-02
   1.0538095e+03   5.1282051e-02
   1.0569048e+03   3.9886040e-02
   1.0602381e+03   3.7037037e-02
   1.0635714e+03   3.0705920e-02
   1.0669048e+03   3.3871478e-02
   1.0702381e+03   2.7223805e-02
   1.0735714e+03   3.0389364e-02
   1.0769048e+03   2.7540361e-02
   1.0800000e+03   2.0892688e-02
   1.0833333e+03   1.1712567e-02
   1.0866667e+03   4.7483381e-03
   1.0900000e+03   0.0000000e+00
   1.0933333e+03   0.0000000e+00
   1.0966667e+03   0.0000000e+00
   1.1000000e+03   0.0000000e+00
   1.1030952e+03   1.3928458e-02
   1.1064286e+03   3.5770814e-02
   1.1097619e+03   5.5713833e-02
   1.1130952e+03   6.5843621e-02
   1.1164286e+03   5.4447610e-02
   1.1197619e+03   3.1339031e-02
   1.1230952e+03   1.1396011e-02
   1.1261905e+03  -3.1655587e-04
   1.1295238e+03  -3.1655587e-04
   1.1328571e+03  -3.1655587e-04
   1.1361905e+03   0.0000000e+00
   1.1492857e+03   0.0000000e+00
   1.1626190e+03   0.0000000e+00
   1.1659524e+03   0.0000000e+00
   1.1692857e+03   0.0000000e+00
   1.1726190e+03   6.6476733e-03
   1.1757143e+03   1.5827794e-02
   1.1790476e+03   2.8806584e-02
   1.1823810e+03   5.2548275e-02
   1.1857143e+03   6.6793289e-02
   1.1890476e+03   5.8562836e-02
   1.1923810e+03   4.7483381e-02
   1.1957143e+03   3.3554922e-02
   1.1988095e+03   9.1801203e-03
   1.2021429e+03   6.6476733e-03
   1.2054762e+03   1.4245014e-02
   1.2088095e+03   1.4561570e-02
   1.2121429e+03   2.1842355e-02
   1.2154762e+03   2.8490028e-02
   1.2188095e+03   2.6274137e-02
   1.2219048e+03   2.8806584e-02
   1.2252381e+03   2.9123140e-02
   1.2285714e+03   3.2605255e-02
   1.2319048e+03   3.0389364e-02
   1.2352381e+03   2.3741690e-02
   1.2385714e+03   2.3425135e-02
   1.2419048e+03   1.8993352e-02
   1.2450000e+03   1.6144349e-02
   1.2483333e+03   9.1801203e-03
   1.2516667e+03   1.0762900e-02
   1.2550000e+03   1.7727129e-02
   1.2583333e+03   1.5511238e-02
   1.2616667e+03   8.8635644e-03
   1.2650000e+03  -3.1655587e-04
   1.2680952e+03   0.0000000e+00
   1.2714286e+03   1.5827794e-03
   1.2747619e+03   1.5827794e-03
   1.2780952e+03   2.5324470e-03
   1.2814286e+03   5.3814498e-03
   1.2847619e+03   1.9943020e-02
   1.2880952e+03   2.2792023e-02
   1.2911905e+03   3.0072808e-02
   1.2945238e+03   3.6720481e-02
   1.2978571e+03   5.1598607e-02
   1.5000000e+03   0.0000000e+00
