   1.0000000e+02   0.0000000e+00
   1.4777240e+02   0.0000000e+00
   1.4825460e+02   4.9297200e-01
   1.4873670e+02   1.1646800e+00
   1.4921880e+02   7.0170300e-01
   1.4970090e+02   1.3204950e+00
   1.5018300e+02   1.0902000e-02
   1.5066510e+02   2.6676800e-01
   1.5114730e+02   3.8227700e-01
   1.5162940e+02   1.5381840e+00
   1.5211150e+02   1.4841500e-01
   1.5259360e+02   3.7093300e-01
   1.5307570e+02   1.2504160e+00
   1.5355780e+02   1.2911770e+00
   1.5404000e+02   1.7522130e+00
   1.5452210e+02   8.5838000e-01
   1.5500420e+02   1.0688950e+00
   1.5548630e+02   9.7117600e-01
   1.5596840e+02   1.9295850e+00
   1.5645050e+02   2.0536790e+00
   1.5693270e+02   1.1659250e+00
   1.5741480e+02   2.8388300e-01
   1.5789690e+02   1.3246740e+00
   1.5837900e+02   5.3743800e-01
   1.5886110e+02   7.2427400e-01
   1.5934320e+02   1.0167200e-01
   1.5982540e+02   5.6547999e-02
   1.6030750e+02   2.6705001e-02
   1.6078960e+02   4.4972500e-01
   1.6127170e+02   5.3242100e-01
   1.6175380e+02   5.3854200e-01
   1.6223590e+02   6.2751700e-01
   1.6271810e+02   9.8230700e-01
   1.6320020e+02   1.3935410e+00
   1.6368230e+02   1.5699030e+00
   1.6416440e+02   1.1394330e+00
   1.6464650e+02   6.4377500e-01
   1.6512860e+02   4.0802700e-01
   1.6561080e+02   5.3383800e-01
   1.6609290e+02   6.5777700e-01
   1.6657500e+02   5.6250700e-01
   1.6705710e+02   3.4977200e-01
   1.6753920e+02   2.0376700e-01
   1.6802130e+02   2.3280100e-01
   1.6850350e+02   3.4429500e-01
   1.6898560e+02   4.8869000e-01
   1.6946770e+02   6.8033300e-01
   1.6994980e+02   8.5334000e-01
   1.7043190e+02   9.8559500e-01
   1.7091400e+02   1.0687320e+00
   1.7139620e+02   1.0789460e+00
   1.7187830e+02   9.4230100e-01
   1.7236040e+02   7.5497800e-01
   1.7284250e+02   6.0056300e-01
   1.7332460e+02   4.6772800e-01
   1.7380670e+02   3.8527600e-01
   1.7428890e+02   4.1661400e-01
   1.7477100e+02   5.2723400e-01
   1.7525310e+02   6.0583300e-01
   1.7573520e+02   5.2925200e-01
   1.7621730e+02   3.9915300e-01
   1.7669940e+02   3.6739300e-01
   1.7718160e+02   5.2304900e-01
   1.7766370e+02   6.9320000e-01
   1.7814580e+02   7.5917500e-01
   1.7862790e+02   7.3585000e-01
   1.7911000e+02   6.8870000e-01
   1.7959210e+02   6.5964500e-01
   1.8007430e+02   6.4808600e-01
   1.8055640e+02   6.2817300e-01
   1.8103850e+02   5.9561000e-01
   1.8152060e+02   5.5112900e-01
   1.8200270e+02   4.6189100e-01
   1.8248480e+02   3.3592700e-01
   1.8296700e+02   2.4803600e-01
   1.8344910e+02   2.6136200e-01
   1.8393120e+02   3.5658600e-01
   1.8441330e+02   4.9186100e-01
   1.8489540e+02   6.9909100e-01
   1.8537750e+02   8.9886100e-01
   1.8585960e+02   9.3391200e-01
   1.8634180e+02   8.0516200e-01
   1.8682390e+02   6.2297300e-01
   1.8730600e+02   4.3107900e-01
   1.8778810e+02   2.4630200e-01
   1.8827020e+02   1.6119800e-01
   1.8875230e+02   2.4050200e-01
   1.8923450e+02   4.0080300e-01
   1.8971660e+02   4.3603700e-01
   1.9019870e+02   3.4131900e-01
   1.9068080e+02   2.1801000e-01
   1.9116290e+02   1.4845500e-01
   1.9164510e+02   1.2914000e-01
   1.9212720e+02   1.3423300e-01
   1.9260930e+02   1.7105200e-01
   1.9309140e+02   2.2219200e-01
   1.9357350e+02   2.2517300e-01
   1.9405560e+02   1.7436900e-01
   1.9453780e+02   1.1630500e-01
   1.9501990e+02   1.0619600e-01
   1.9550200e+02   1.4118700e-01
   1.9598410e+02   1.6683400e-01
   1.9646620e+02   1.0725400e-01
   1.9694830e+02   6.6290000e-03
   1.9743050e+02   2.1692000e-02
   1.9791260e+02   3.1389002e-02
   1.9839470e+02   1.3775000e-01
   1.9887680e+02   2.1140900e-01
   1.9935890e+02   2.7703100e-01
   1.9984100e+02   3.0189100e-01
   2.0032320e+02   2.5608100e-01
   2.0080530e+02   1.7684900e-01
   2.0128740e+02   1.5579700e-01
   2.0176950e+02   2.1967900e-01
   2.0225160e+02   3.1884300e-01
   2.0273370e+02   4.1723100e-01
   2.0321590e+02   5.2010300e-01
   2.0369800e+02   5.7287300e-01
   2.0418010e+02   5.5884700e-01
   2.0466220e+02   4.8152500e-01
   2.0514430e+02   3.5278400e-01
   2.0562640e+02   1.5006300e-01
   2.0610860e+02   3.3984002e-02
   2.0659070e+02   6.8786003e-02
   2.0707280e+02   8.0003999e-02
   2.0755490e+02   1.9480900e-01
   2.0803700e+02   2.0153000e-01
   2.0851910e+02   1.1668700e-01
   2.0900130e+02   1.1068500e-01
   2.0948340e+02   2.1741400e-01
   2.0996550e+02   3.3665600e-01
   2.1044760e+02   3.5623100e-01
   2.1092970e+02   2.4752800e-01
   2.1141180e+02   1.3911700e-01
   2.1189400e+02   4.6195999e-02
   2.1237610e+02   2.9302999e-02
   2.1285820e+02   1.7085001e-02
   2.1334030e+02   1.2455300e-01
   2.1382240e+02   2.8976600e-01
   2.1430450e+02   3.7475300e-01
   2.1478670e+02   3.6115600e-01
   2.1526880e+02   3.2703700e-01
   2.1575090e+02   2.7663900e-01
   2.1623300e+02   2.0889400e-01
   2.1671510e+02   2.1933400e-01
   2.1719720e+02   3.2276800e-01
   2.1767940e+02   4.7354200e-01
   2.1816150e+02   6.1492100e-01
   2.1864360e+02   7.7650000e-01
   2.1912570e+02   8.2730200e-01
   2.1960780e+02   7.0574500e-01
   2.2008990e+02   4.0955100e-01
   2.2057210e+02   2.5365300e-01
   2.2105420e+02   3.0809500e-01
   2.2153630e+02   4.1723700e-01
   2.2201840e+02   4.0548800e-01
   2.2250050e+02   1.9595700e-01
   2.2298260e+02   4.6932999e-02
   2.2346480e+02   3.8474001e-02
   2.2394690e+02   1.7262500e-01
   2.2442900e+02   2.3603100e-01
   2.2491110e+02   1.9533000e-01
   2.2539320e+02   1.2201700e-01
   2.2587530e+02   9.0961002e-02
   2.2635750e+02   1.2178300e-01
   2.2683960e+02   1.4900800e-01
   2.2732170e+02   1.5950500e-01
   2.2780380e+02   1.5333600e-01
   2.2828590e+02   1.3752100e-01
   2.2876800e+02   1.0176900e-01
   2.2925020e+02   6.8084002e-02
   2.2973230e+02   5.9891000e-02
   2.3021440e+02   9.1131002e-02
   2.3069650e+02   1.2140100e-01
   2.3117860e+02   1.4774700e-01
   2.3166070e+02   1.6659500e-01
   2.3214290e+02   1.6388400e-01
   2.3262500e+02   1.2030600e-01
   2.3310710e+02   7.7878997e-02
   2.3358920e+02   7.9752997e-02
   2.3407130e+02   1.6686200e-01
   2.3455340e+02   2.2586500e-01
   2.3503560e+02   2.0919300e-01
   2.3551770e+02   1.1501900e-01
   2.3599980e+02   6.4788997e-02
   2.3648190e+02   7.9131998e-02
   2.3696400e+02   1.1407500e-01
   2.3744610e+02   1.2733600e-01
   2.3792830e+02   8.5106000e-02
   2.3841040e+02   9.1821998e-02
   2.3889250e+02   1.9483600e-01
   2.3937460e+02   3.8553400e-01
   2.3985670e+02   4.6288700e-01
   2.4033880e+02   3.3911400e-01
   2.4082100e+02   2.0483400e-01
   2.4130310e+02   2.3590000e-01
   2.4178520e+02   6.0394100e-01
   2.4226730e+02   7.8005800e-01
   2.4274940e+02   6.0847600e-01
   2.4323150e+02   1.3235700e-01
   2.4371370e+02   1.2991800e-01
   2.4419580e+02   8.8620998e-02
   2.4467790e+02   5.2425999e-02
   2.4516000e+02   1.5305200e-01
   2.4564210e+02   1.9663000e-01
   2.4612420e+02   2.3594000e-01
   2.4660640e+02   2.9709500e-01
   2.4708850e+02   3.6631400e-01
   2.4757060e+02   3.2754800e-01
   2.4805270e+02   7.6628998e-02
   2.4853480e+02   1.4473300e-01
   2.4901690e+02   1.5601000e-01
   2.4949900e+02   1.8323200e-01
   2.4998120e+02   4.1367700e-01
   2.5046330e+02   4.7268100e-01
   2.5094540e+02   3.9144000e-01
   2.5142750e+02   3.1626700e-01
   2.5190960e+02   2.5504400e-01
   2.5239170e+02   1.8877500e-01
   2.5287390e+02   9.2382997e-02
   2.5335600e+02   9.4936997e-02
   2.5383810e+02   1.5632600e-01
   2.5432020e+02   1.9436000e-02
   2.5480230e+02   2.4633400e-01
   2.5528440e+02   3.7812700e-01
   2.5576660e+02   3.1202700e-01
   2.5624870e+02   2.2737900e-01
   2.5673080e+02   2.3061500e-01
   2.5721290e+02   3.8472600e-01
   2.5769500e+02   4.4601300e-01
   2.5817720e+02   3.5679500e-01
   2.5865930e+02   1.8626700e-01
   2.5914140e+02   1.3379500e-01
   2.5962350e+02   2.7209900e-01
   2.6010560e+02   3.9679000e-01
   2.6058770e+02   3.9523800e-01
   2.6106990e+02   1.9284800e-01
   2.6155200e+02   1.0707200e-01
   2.6203410e+02   1.7972400e-01
   2.6251620e+02   3.4549900e-01
   2.6299830e+02   4.7929400e-01
   2.6348040e+02   5.9547400e-01
   2.6396260e+02   6.3883300e-01
   2.6444470e+02   5.6622200e-01
   2.6492680e+02   3.4050900e-01
   2.6540890e+02   2.1088400e-01
   2.6589100e+02   2.0742400e-01
   2.6637310e+02   2.6858600e-01
   2.6685530e+02   2.8197700e-01
   2.6733740e+02   2.2120300e-01
   2.6781950e+02   1.8907900e-01
   2.6830160e+02   2.5314600e-01
   2.6878370e+02   4.4085200e-01
   2.6926580e+02   4.6558300e-01
   2.6974800e+02   2.6109600e-01
   2.7023010e+02   1.8878000e-02
   2.7071220e+02   1.3088500e-01
   2.7119430e+02   2.9470000e-02
   2.7167640e+02   8.0848001e-02
   2.7215850e+02   1.3556800e-01
   2.7264070e+02   1.3488300e-01
   2.7312280e+02   1.3627900e-01
   2.7360490e+02   1.4909300e-01
   2.7408700e+02   1.4600900e-01
   2.7456910e+02   6.9519997e-02
   2.7505120e+02   1.0850900e-01
   2.7553340e+02   2.1163700e-01
   2.7601550e+02   1.7049900e-01
   2.7649760e+02   1.1530000e-03
   2.7697970e+02   1.1948200e-01
   2.7746180e+02   1.8151200e-01
   2.7794390e+02   2.2201500e-01
   2.7842600e+02   2.8193400e-01
   2.7890810e+02   3.6500300e-01
   2.7939030e+02   4.2554700e-01
   2.7987240e+02   4.3932600e-01
   2.8035450e+02   4.2357800e-01
   2.8083660e+02   4.9112700e-01
   2.8131870e+02   6.7420400e-01
   2.8180080e+02   8.0263700e-01
   2.8228300e+02   6.4718000e-01
   2.8276510e+02   1.9947900e-01
   2.8324720e+02   3.1645000e-02
   2.8372930e+02   1.0940900e-01
   2.8421140e+02   4.7921800e-01
   2.8469350e+02   6.5063800e-01
   2.8517570e+02   6.1179800e-01
   2.8565780e+02   5.0162100e-01
   2.8613990e+02   4.1235700e-01
   2.8662200e+02   3.4129500e-01
   2.8710410e+02   2.4495800e-01
   2.8758620e+02   1.0315700e-01
   2.8806840e+02   4.5136001e-02
   2.8855050e+02   1.1452800e-01
   2.8903260e+02   1.0544300e-01
   2.8951470e+02   6.4663999e-02
   2.8999680e+02   1.3536000e-02
   2.9047890e+02   1.1192500e-01
   2.9096110e+02   1.0367500e-01
   2.9144320e+02   5.4784000e-02
   2.9192530e+02   2.3370200e-01
   2.9240740e+02   1.9012200e-01
   2.9288950e+02   5.3872000e-02
   2.9337160e+02   2.6966200e-01
   2.9385380e+02   3.0385000e-01
   2.9433590e+02   2.1521800e-01
   2.9481800e+02   1.9405700e-01
   2.9530010e+02   2.5621300e-01
   2.9578220e+02   3.4845200e-01
   2.9626430e+02   4.2839500e-01
   2.9674650e+02   4.8994500e-01
   2.9722860e+02   5.0737200e-01
   2.9771070e+02   4.4766900e-01
   2.9819280e+02   3.4009300e-01
   2.9867490e+02   2.2561300e-01
   2.9915700e+02   1.0042200e-01
   2.9963920e+02   2.6497999e-02
   3.0012130e+02   1.1449200e-01
   3.0060340e+02   3.0766500e-01
   3.0108550e+02   4.5708200e-01
   3.0156760e+02   4.9006000e-01
   3.0204970e+02   4.6031000e-01
   3.0253190e+02   4.0908700e-01
   3.0301400e+02   3.3222700e-01
   3.0349610e+02   2.7949800e-01
   3.0397820e+02   3.2082300e-01
   3.0446030e+02   4.0795800e-01
   3.0494240e+02   4.5733300e-01
   3.0542460e+02   4.3462200e-01
   3.0590670e+02   3.7619100e-01
   3.0638880e+02   2.7968300e-01
   3.0687090e+02   1.6765500e-01
   3.0735300e+02   1.1501700e-01
   3.0783510e+02   2.1672200e-01
   3.0831730e+02   3.6825300e-01
   3.0879940e+02   4.3619800e-01
   3.0928150e+02   3.6382100e-01
   3.0976360e+02   2.6479000e-01
   3.1024570e+02   2.1677400e-01
   3.1072780e+02   2.1169700e-01
   3.1121000e+02   2.2322900e-01
   3.1169210e+02   2.7563900e-01
   3.1217420e+02   3.3605900e-01
   3.1265630e+02   3.4239200e-01
   3.1313840e+02   2.6232000e-01
   3.1362050e+02   2.1741100e-01
   3.1410270e+02   3.1859600e-01
   3.1458480e+02   4.9885700e-01
   3.1506690e+02   6.4218300e-01
   3.1554900e+02   7.2856000e-01
   3.1603110e+02   7.4277400e-01
   3.1651320e+02   6.2749500e-01
   3.1699540e+02   3.5801600e-01
   3.1747750e+02   1.7080400e-01
   3.1795960e+02   2.4098400e-01
   3.1844170e+02   4.2278500e-01
   3.1892380e+02   5.5267800e-01
   3.1940590e+02   4.9745500e-01
   3.1988810e+02   4.5426500e-01
   3.2037020e+02   5.2062700e-01
   3.2085230e+02   6.9367900e-01
   3.2133440e+02   8.3686200e-01
   3.2181650e+02   8.4884100e-01
   3.2229860e+02   8.4894500e-01
   3.2278080e+02   9.2780300e-01
   3.2326290e+02   1.0174450e+00
   3.2374500e+02   1.2798190e+00
   3.2422710e+02   1.7164790e+00
   3.2470920e+02   2.3387190e+00
   3.2519130e+02   3.2193570e+00
   3.2567350e+02   4.6478400e+00
   3.2615560e+02   6.1342780e+00
   3.2663770e+02   7.4505510e+00
   3.2711980e+02   8.7767420e+00
   3.2760190e+02   9.6457630e+00
   3.2808400e+02   9.7798190e+00
   3.2856620e+02   9.4220350e+00
   3.2904830e+02   9.2090840e+00
   3.2953040e+02   9.1082560e+00
   3.3001250e+02   9.1847770e+00
   3.3049460e+02   9.4944080e+00
   3.3097670e+02   1.0153900e+01
   3.3145890e+02   1.0721690e+01
   3.3194100e+02   1.1134760e+01
   3.3242310e+02   1.1485720e+01
   3.3290520e+02   1.1899630e+01
   3.3338730e+02   1.2412370e+01
   3.3386940e+02   1.2943680e+01
   3.3435160e+02   1.3453690e+01
   3.3483370e+02   1.3926610e+01
   3.3531580e+02   1.4525700e+01
   3.3579790e+02   1.5284170e+01
   3.3628000e+02   1.6124470e+01
   3.3676210e+02   1.6914720e+01
   3.3724430e+02   1.7513640e+01
   3.3772640e+02   1.8433770e+01
   3.3820850e+02   1.9658020e+01
   3.3869060e+02   2.1253630e+01
   3.3917270e+02   2.3762620e+01
   3.3965480e+02   2.7366350e+01
   3.4013700e+02   3.1472730e+01
   3.4061910e+02   3.5865480e+01
   3.4110120e+02   4.0524470e+01
   3.4158330e+02   4.4937580e+01
   3.4206540e+02   4.8761750e+01
   3.4254750e+02   5.2560510e+01
   3.4302970e+02   5.8938310e+01
   3.4351180e+02   6.8647680e+01
   3.4399390e+02   7.4961940e+01
   3.4447600e+02   7.3398570e+01
   3.4495810e+02   6.4489310e+01
   3.4544020e+02   5.3854330e+01
   3.4592240e+02   4.1126300e+01
   3.4640450e+02   2.8596670e+01
   3.4688660e+02   1.9678960e+01
   3.4736870e+02   1.4156230e+01
   3.4785080e+02   1.0350150e+01
   3.4833290e+02   8.0330510e+00
   3.4881510e+02   6.8517990e+00
   3.4929720e+02   5.9021840e+00
   3.4977930e+02   5.1823010e+00
   3.5026140e+02   4.6436120e+00
   3.5074350e+02   4.3833660e+00
   3.5122560e+02   4.2900240e+00
   3.5170780e+02   4.0348670e+00
   3.5218990e+02   3.4428220e+00
   3.5267200e+02   2.7232420e+00
   3.5315410e+02   2.1217050e+00
   3.5363620e+02   1.6364990e+00
   3.5411830e+02   1.2916820e+00
   3.5460050e+02   1.1817260e+00
   3.5508260e+02   1.1961650e+00
   3.5556470e+02   1.1736490e+00
   3.5604680e+02   1.0689520e+00
   3.5652890e+02   9.6956300e-01
   3.5701100e+02   9.4587300e-01
   3.5749320e+02   9.8458700e-01
   3.5797530e+02   1.0546480e+00
   3.5845740e+02   1.1689770e+00
   3.5893950e+02   1.2902310e+00
   3.5942160e+02   1.3343500e+00
   3.5990370e+02   1.2725000e+00
   3.6038590e+02   1.3695340e+00
   3.6086800e+02   1.7829540e+00
   3.6135010e+02   2.4369220e+00
   3.6183220e+02   3.2389980e+00
   3.6231430e+02   4.3449640e+00
   3.6279640e+02   5.4209040e+00
   3.6327860e+02   6.3818840e+00
   3.6376070e+02   7.2140610e+00
   3.6424280e+02   7.8142770e+00
   3.6472490e+02   7.9331320e+00
   3.6520700e+02   7.9312300e+00
   3.6568910e+02   8.0547660e+00
   3.6617130e+02   8.4455630e+00
   3.6665340e+02   8.8438400e+00
   3.6713550e+02   9.2153470e+00
   3.6761760e+02   9.5609030e+00
   3.6809970e+02   9.8777960e+00
   3.6858180e+02   1.0078830e+01
   3.6906400e+02   1.0325560e+01
   3.6954610e+02   1.0687510e+01
   3.7002820e+02   1.1217530e+01
   3.7051030e+02   1.1742460e+01
   3.7099240e+02   1.2218160e+01
   3.7147450e+02   1.2711220e+01
   3.7195670e+02   1.3307820e+01
   3.7243880e+02   1.3984680e+01
   3.7292090e+02   1.4780130e+01
   3.7340300e+02   1.5600470e+01
   3.7388510e+02   1.6438660e+01
   3.7436720e+02   1.7930750e+01
   3.7484940e+02   2.0166990e+01
   3.7533150e+02   2.2956680e+01
   3.7581360e+02   2.6196240e+01
   3.7629570e+02   3.0072850e+01
   3.7677780e+02   3.3867920e+01
   3.7725990e+02   3.7436570e+01
   3.7774210e+02   4.0883270e+01
   3.7822420e+02   4.4440330e+01
   3.7870630e+02   4.8011640e+01
   3.7918840e+02   5.1957320e+01
   3.7967050e+02   5.8007390e+01
   3.8015260e+02   6.6260100e+01
   3.8063480e+02   6.7828350e+01
   3.8111690e+02   6.1444230e+01
   3.8159900e+02   5.0829740e+01
   3.8208110e+02   3.9970080e+01
   3.8256320e+02   2.9073680e+01
   3.8304530e+02   2.0019080e+01
   3.8352750e+02   1.3966040e+01
   3.8400960e+02   1.0288490e+01
   3.8449170e+02   7.6159980e+00
   3.8497380e+02   5.9620620e+00
   3.8545590e+02   4.8479080e+00
   3.8593800e+02   3.9443830e+00
   3.8642020e+02   3.2422030e+00
   3.8690230e+02   2.7155280e+00
   3.8738440e+02   2.3785000e+00
   3.8786650e+02   2.1729230e+00
   3.8834860e+02   2.0994630e+00
   3.8883070e+02   2.1218280e+00
   3.8931290e+02   2.0878060e+00
   3.8979500e+02   1.8288390e+00
   3.9027710e+02   1.4950840e+00
   3.9075920e+02   1.2590320e+00
   3.9124130e+02   1.1590660e+00
   3.9172340e+02   1.0798820e+00
   3.9220560e+02   9.3154300e-01
   3.9268770e+02   7.5687300e-01
   3.9316980e+02   6.1995600e-01
   3.9365190e+02   5.6206500e-01
   3.9413400e+02   5.2908700e-01
   3.9461610e+02   4.9069100e-01
   3.9509830e+02   4.4697400e-01
   3.9558040e+02   4.2782900e-01
   3.9606250e+02   4.8919000e-01
   3.9654460e+02   5.5422400e-01
   3.9702670e+02   5.6499300e-01
   3.9750890e+02   4.7506500e-01
   3.9799100e+02   3.7206300e-01
   3.9847310e+02   2.4369300e-01
   3.9895520e+02   1.0905000e-01
   3.9943730e+02   2.6997000e-02
   3.9991940e+02   5.2080002e-02
   4.0040160e+02   8.9094996e-02
   4.0088370e+02   9.6138000e-02
   4.0136580e+02   5.8490001e-02
   4.0184790e+02   5.5674002e-02
   4.0233000e+02   1.3618900e-01
   4.0281210e+02   2.2183900e-01
   4.0329420e+02   2.1122900e-01
   4.0377630e+02   4.9408000e-02
   4.0425850e+02   1.0686500e-01
   4.0474060e+02   2.3795600e-01
   4.0522270e+02   3.4130400e-01
   4.0570480e+02   3.7319400e-01
   4.0618690e+02   3.1414100e-01
   4.0666900e+02   2.1894700e-01
   4.0715120e+02   1.2767100e-01
   4.0763330e+02   2.9066000e-02
   4.0811540e+02   1.0785000e-02
   4.0859750e+02   3.6270998e-02
   4.0907960e+02   1.1425200e-01
   4.0956170e+02   1.0051100e-01
   4.1004390e+02   7.5409999e-03
   4.1052600e+02   9.9276997e-02
   4.1100810e+02   1.0216600e-01
   4.1149020e+02   4.1223999e-02
   4.1197230e+02   1.3453000e-02
   4.1245440e+02   1.7416000e-02
   4.1293660e+02   7.1726002e-02
   4.1341870e+02   2.4533400e-01
   4.1390080e+02   4.8986600e-01
   4.1438290e+02   6.5713400e-01
   4.1486500e+02   6.7259500e-01
   4.1534710e+02   6.3200700e-01
   4.1582930e+02   6.5092500e-01
   4.1631140e+02   7.2086100e-01
   4.1679350e+02   8.0171800e-01
   4.1727560e+02   8.8094000e-01
   4.1775770e+02   9.5268000e-01
   4.1823980e+02   1.0039070e+00
   4.1872200e+02   1.0271000e+00
   4.1920410e+02   1.0555750e+00
   4.1968620e+02   1.1436100e+00
   4.2016830e+02   1.2444550e+00
   4.2065040e+02   1.2845450e+00
   4.2113250e+02   1.1482920e+00
   4.2161470e+02   1.0272900e+00
   4.2209680e+02   1.0060420e+00
   4.2257890e+02   1.0849360e+00
   4.2306100e+02   1.2029220e+00
   4.2354310e+02   1.3280440e+00
   4.2402520e+02   1.4997990e+00
   4.2450740e+02   1.7426440e+00
   4.2498950e+02   2.1564460e+00
   4.2547160e+02   2.5156080e+00
   4.2595370e+02   2.7811970e+00
   4.2643580e+02   2.9857540e+00
   4.2691790e+02   3.1985750e+00
   4.2740010e+02   3.3871470e+00
   4.2788220e+02   3.6278790e+00
   4.2836430e+02   3.9663080e+00
   4.2884640e+02   4.4275850e+00
   4.2932850e+02   4.8157410e+00
   4.2981060e+02   5.1435490e+00
   4.3029280e+02   5.3807050e+00
   4.3077490e+02   5.5113970e+00
   4.3125700e+02   5.5492570e+00
   4.3173910e+02   5.4156630e+00
   4.3222120e+02   5.0873970e+00
   4.3270330e+02   4.5858960e+00
   4.3318550e+02   3.9004680e+00
   4.3366760e+02   2.9956400e+00
   4.3414970e+02   2.1990410e+00
   4.3463180e+02   1.7575130e+00
   4.3511390e+02   1.6175130e+00
   4.3559600e+02   1.4659830e+00
   4.3607820e+02   1.2892160e+00
   4.3656030e+02   1.0887590e+00
   4.3704240e+02   8.1647100e-01
   4.3752450e+02   5.1179000e-01
   4.3800660e+02   3.1857300e-01
   4.3848870e+02   3.4489300e-01
   4.3897090e+02   4.6755700e-01
   4.3945300e+02   5.4235800e-01
   4.3993510e+02   5.7423800e-01
   4.4041720e+02   5.7905200e-01
   4.4089930e+02   5.5047300e-01
   4.4138140e+02   5.0875200e-01
   4.4186360e+02   4.7078300e-01
   4.4234570e+02   4.3279000e-01
   4.4282780e+02   4.1969900e-01
   4.4330990e+02   5.0821100e-01
   4.4379200e+02   6.2066400e-01
   4.4427410e+02   6.3192100e-01
   4.4475630e+02   3.8772500e-01
   4.4523840e+02   1.3700700e-01
   4.4572050e+02   4.0465001e-02
   4.4620260e+02   1.3943300e-01
   4.4668470e+02   1.5315000e-01
   4.4716680e+02   4.5799999e-04
   4.4764900e+02   1.7822900e-01
   4.4813110e+02   2.9508300e-01
   4.4861320e+02   3.3816300e-01
   4.4909530e+02   3.3067700e-01
   4.4957740e+02   2.3192800e-01
   4.5005950e+02   9.3009003e-02
   4.5054170e+02   3.0185999e-02
   4.5102380e+02   8.3465002e-02
   4.5150590e+02   1.4004100e-01
   4.5198800e+02   1.6854500e-01
   4.5247010e+02   1.7284300e-01
   4.5295220e+02   1.6375900e-01
   4.5343440e+02   1.3742400e-01
   4.5391650e+02   1.0660500e-01
   4.5439860e+02   7.9717003e-02
   4.5488070e+02   5.6327000e-02
   4.5536280e+02   4.7028001e-02
   4.5584490e+02   5.8293998e-02
   4.5632710e+02   7.7096000e-02
   4.5680920e+02   5.5775002e-02
   4.5729130e+02   3.7299999e-04
   4.5777340e+02   4.2920001e-03
   4.5825550e+02   1.5981400e-01
   4.5873760e+02   3.9329300e-01
   4.5921980e+02   4.5420500e-01
   4.5970190e+02   3.2616800e-01
   4.6018400e+02   1.9268600e-01
   4.6066610e+02   2.4070600e-01
   4.6114820e+02   3.8679900e-01
   4.6163030e+02   4.9824500e-01
   4.6211250e+02   5.4203100e-01
   4.6259460e+02   5.1360400e-01
   4.6307670e+02   3.4087400e-01
   4.6355880e+02   8.8330001e-02
   4.6404090e+02   6.0252000e-02
   4.6452300e+02   7.4947998e-02
   4.6500520e+02   2.6560300e-01
   4.6548730e+02   3.7849900e-01
   4.6596940e+02   3.8154000e-01
   4.6645150e+02   3.8072900e-01
   4.6693360e+02   4.1275800e-01
   4.6741570e+02   4.5034300e-01
   4.6789790e+02   4.6786800e-01
   4.6838000e+02   4.6132400e-01
   4.6886210e+02   4.2020000e-01
   4.6934420e+02   3.0937400e-01
   4.6982630e+02   1.5765000e-01
   4.7030840e+02   8.2822002e-02
   4.7079060e+02   1.1777400e-01
   4.7127270e+02   1.8201200e-01
   4.7175480e+02   2.4316400e-01
   4.7223690e+02   2.9836700e-01
   4.7271900e+02   3.8592100e-01
   4.7320110e+02   5.4117800e-01
   4.7368330e+02   6.6358400e-01
   4.7416540e+02   5.9350800e-01
   4.7464750e+02   3.1934500e-01
   4.7512960e+02   1.2524900e-01
   4.7561170e+02   9.5338002e-02
   4.7609380e+02   1.6326000e-01
   4.7657600e+02   1.7751500e-01
   4.7705810e+02   1.3597700e-01
   4.7754020e+02   9.2444003e-02
   4.7802230e+02   7.4146003e-02
   4.7850440e+02   8.7684996e-02
   4.7898650e+02   1.7683300e-01
   4.7946870e+02   3.5439800e-01
   4.7995080e+02   4.8187700e-01
   4.8043290e+02   3.4798600e-01
   4.8091500e+02   1.0558700e-01
   4.8139710e+02   1.0842000e-02
   4.8187920e+02   1.9981700e-01
   4.8236140e+02   4.2174500e-01
   4.8284350e+02   4.3690300e-01
   4.8332560e+02   3.0227500e-01
   4.8380770e+02   1.9394900e-01
   4.8428980e+02   1.5027300e-01
   4.8477190e+02   1.7350300e-01
   4.8525410e+02   3.0365800e-01
   4.8573620e+02   5.9778300e-01
   4.8621830e+02   7.6142900e-01
   4.8670040e+02   6.6175900e-01
   4.8718250e+02   4.6294300e-01
   4.8766460e+02   3.1721800e-01
   4.8814680e+02   2.6329800e-01
   4.8862890e+02   2.1181800e-01
   4.8911100e+02   1.3561500e-01
   4.8959310e+02   4.3547999e-02
   4.9007520e+02   2.3890000e-03
   4.9055730e+02   2.1660000e-03
   4.9103950e+02   4.8066001e-02
   4.9152160e+02   1.7350500e-01
   4.9200370e+02   3.7881100e-01
   4.9248580e+02   5.2677900e-01
   4.9296790e+02   6.0174600e-01
   4.9345000e+02   6.1252300e-01
   4.9393220e+02   5.5106800e-01
   4.9441430e+02   4.2588000e-01
   4.9489640e+02   2.8505800e-01
   4.9537850e+02   1.1365600e-01
   4.9586060e+02   2.6752001e-02
   4.9634270e+02   1.8777000e-02
   4.9682490e+02   1.0774000e-01
   4.9730700e+02   2.4099300e-01
   4.9778910e+02   3.3214800e-01
   4.9827120e+02   3.9023900e-01
   4.9875330e+02   4.2145800e-01
   4.9923540e+02   4.2647700e-01
   4.9971760e+02   4.0885300e-01
   5.0019970e+02   3.2342800e-01
   5.0068180e+02   2.4000300e-01
   5.0116390e+02   2.3166600e-01
   5.0164600e+02   4.2003600e-01
   5.0212810e+02   5.3198700e-01
   5.0261030e+02   4.3054000e-01
   5.0309240e+02   2.0287300e-01
   5.0357450e+02   3.1463001e-02
   5.0405660e+02   4.5816001e-02
   5.0453870e+02   6.7996003e-02
   5.0502080e+02   1.3589000e-02
   5.0550300e+02   1.1636100e-01
   5.0598510e+02   2.0137400e-01
   5.0646720e+02   2.4167800e-01
   5.0694930e+02   2.3484400e-01
   5.0743140e+02   1.5627700e-01
   5.0791350e+02   3.1539999e-02
   5.0839570e+02   1.1923400e-01
   5.0887780e+02   6.8166003e-02
   5.0935990e+02   5.3792998e-02
   5.0984200e+02   1.3971200e-01
   5.1032410e+02   1.8963800e-01
   5.1080620e+02   2.2549700e-01
   5.1128840e+02   2.4095400e-01
   5.1177050e+02   2.5252600e-01
   5.1225260e+02   3.0961200e-01
   5.1273470e+02   4.0831700e-01
   5.1321680e+02   5.0278600e-01
   5.1369890e+02   6.0433700e-01
   5.1418100e+02   6.6573500e-01
   5.1466310e+02   5.7387600e-01
   5.1514530e+02   2.6548500e-01
   5.1562740e+02   3.2396000e-02
   5.1610950e+02   1.7165300e-01
   5.1659160e+02   4.7777700e-01
   5.1707370e+02   6.8110500e-01
   5.1755580e+02   6.2874100e-01
   5.1803800e+02   5.2261500e-01
   5.1852010e+02   3.9930800e-01
   5.1900220e+02   2.7158500e-01
   5.1948430e+02   1.9269800e-01
   5.1996640e+02   1.8459400e-01
   5.2044850e+02   2.1827500e-01
   5.2093070e+02   2.9994100e-01
   5.2141280e+02   4.6393500e-01
   5.2189490e+02   5.1604100e-01
   5.2237700e+02   3.9052100e-01
   5.2285910e+02   2.4505400e-01
   5.2334120e+02   2.6768600e-01
   5.2382340e+02   5.1987600e-01
   5.2430550e+02   6.4864300e-01
   5.2478760e+02   5.7685700e-01
   5.2526970e+02   3.8487300e-01
   5.2575180e+02   2.3380800e-01
   5.2623390e+02   1.2282500e-01
   5.2671610e+02   8.0548003e-02
   5.2719820e+02   1.6243100e-01
   5.2768030e+02   3.1784900e-01
   5.2816240e+02   4.1583000e-01
   5.2864450e+02   4.5853400e-01
   5.2912660e+02   4.7767900e-01
   5.2960880e+02   4.9751100e-01
   5.3009090e+02   5.1298400e-01
   5.3057300e+02   5.0416900e-01
   5.3105510e+02   4.6478300e-01
   5.3153720e+02   4.2216300e-01
   5.3201930e+02   4.1867500e-01
   5.3250150e+02   4.1689400e-01
   5.3298360e+02   3.5870600e-01
   5.3346570e+02   1.0152200e-01
   5.3394780e+02   8.8448003e-02
   5.3442990e+02   7.8124002e-02
   5.3491200e+02   1.0845900e-01
   5.3539420e+02   2.2613300e-01
   5.3587630e+02   1.6656200e-01
   5.3635840e+02   1.1810600e-01
   5.3684050e+02   1.7542500e-01
   5.3732260e+02   3.9032000e-01
   5.3780470e+02   5.0096800e-01
   5.3828690e+02   4.7455200e-01
   5.3876900e+02   3.8782700e-01
   5.3925110e+02   3.1167300e-01
   5.3973320e+02   2.4826800e-01
   5.4021530e+02   2.4256800e-01
   5.4069740e+02   3.2673300e-01
   5.4117960e+02   4.4087000e-01
   5.4166170e+02   4.4067500e-01
   5.4214380e+02   3.3854400e-01
   5.4262590e+02   2.6100200e-01
   5.4310800e+02   3.2153500e-01
   5.4359010e+02   4.3083400e-01
   5.4407230e+02   4.3855000e-01
   5.4455440e+02   3.4854500e-01
   5.4503650e+02   2.2763500e-01
   5.4551860e+02   5.5006001e-02
   5.4600070e+02   8.9454003e-02
   5.4648280e+02   1.1194300e-01
   5.4696500e+02   5.2239001e-02
   5.4744710e+02   2.1675200e-01
   5.4792920e+02   3.5379600e-01
   5.4841130e+02   4.3250900e-01
   5.4889340e+02   4.0975800e-01
   5.4937550e+02   5.9687000e-02
   5.4985770e+02   1.4990000e-01
   5.5033980e+02   4.2539999e-02
   5.5082190e+02   3.0740700e-01
   5.5130400e+02   5.0346300e-01
   5.5178610e+02   4.9133200e-01
   5.5226820e+02   4.1887400e-01
   5.5275040e+02   3.2525100e-01
   5.5323250e+02   2.0081600e-01
   5.5371460e+02   1.8311200e-01
   5.5419670e+02   3.0487100e-01
   5.5467880e+02   4.5371400e-01
   5.5516090e+02   5.0543500e-01
   5.5564310e+02   4.6989000e-01
   5.5612520e+02   4.3045000e-01
   5.5660730e+02   4.0347900e-01
   5.5708940e+02   3.7454700e-01
   5.5757150e+02   3.1817300e-01
   5.5805360e+02   2.4260600e-01
   5.5853580e+02   1.7137800e-01
   5.5901790e+02   9.8273002e-02
   5.5950000e+02   4.8572998e-02
   5.5998210e+02   5.0317001e-02
   5.6046420e+02   9.8513000e-02
   5.6094640e+02   1.6065200e-01
   5.6142850e+02   2.4845900e-01
   5.6191060e+02   3.2285500e-01
   5.6239270e+02   3.5128700e-01
   5.6287480e+02   3.0317500e-01
   5.6335690e+02   3.1159400e-01
   5.6383910e+02   4.6956200e-01
   5.6432120e+02   6.4426100e-01
   5.6480330e+02   7.1602700e-01
   5.6528540e+02   6.3246200e-01
   5.6576750e+02   5.4717500e-01
   5.6624960e+02   4.8065200e-01
   5.6673180e+02   4.2366500e-01
   5.6721390e+02   3.1356300e-01
   5.6769600e+02   1.2703400e-01
   5.6817810e+02   1.2513000e-02
   5.6866020e+02   6.8511002e-02
   5.6914230e+02   2.3633200e-01
   5.6962450e+02   3.0481200e-01
   5.7010660e+02   2.7575500e-01
   5.7058870e+02   2.1831400e-01
   5.7107080e+02   1.5840600e-01
   5.7155290e+02   1.1340000e-01
   5.7203500e+02   1.2072100e-01
   5.7251720e+02   1.9736300e-01
   5.7299930e+02   2.6588200e-01
   5.7348140e+02   2.6389500e-01
   5.7396350e+02   2.2409200e-01
   5.7444560e+02   1.8315800e-01
   5.7492770e+02   9.8462000e-02
   5.7540990e+02   7.4028000e-02
   5.7589200e+02   2.1631000e-01
   5.7637410e+02   4.4460000e-01
   5.7685620e+02   5.3395200e-01
   5.7733830e+02   3.0423000e-01
   5.7782040e+02   1.2503700e-01
   5.7830260e+02   1.1430300e-01
   5.7878470e+02   2.6778400e-01
   5.7926680e+02   3.4112000e-01
   5.7974890e+02   3.0916900e-01
   5.8023100e+02   2.5847100e-01
   5.8071310e+02   2.5675700e-01
   5.8119530e+02   3.0286100e-01
   5.8167740e+02   2.9771500e-01
   5.8215950e+02   2.2768100e-01
   5.8264160e+02   1.5017500e-01
   5.8312370e+02   1.5087400e-01
   5.8360580e+02   2.0202300e-01
   5.8408800e+02   2.1278100e-01
   5.8457010e+02   1.3142400e-01
   5.8505220e+02   4.5926001e-02
   5.8553430e+02   6.9922999e-02
   5.8601640e+02   1.5897500e-01
   5.8649850e+02   2.0509300e-01
   5.8698070e+02   5.7659999e-02
   5.8746280e+02   5.2469000e-02
   5.8794490e+02   5.4382998e-02
   5.8842700e+02   3.6698100e-01
   5.8890910e+02   5.5097000e-01
   5.8939120e+02   4.3106700e-01
   5.8987340e+02   2.5715300e-01
   5.9035550e+02   1.4524100e-01
   5.9083760e+02   1.0124900e-01
   5.9131970e+02   1.1046500e-01
   5.9180180e+02   2.0181500e-01
   5.9228390e+02   3.0115600e-01
   5.9276610e+02   3.1712800e-01
   5.9324820e+02   2.3417000e-01
   5.9373030e+02   1.6623500e-01
   5.9421240e+02   1.2662700e-01
   5.9469450e+02   1.1913300e-01
   5.9517660e+02   1.6205300e-01
   5.9565880e+02   2.4659000e-01
   5.9614090e+02   3.2814000e-01
   5.9662300e+02   4.0298200e-01
   5.9710510e+02   4.5302100e-01
   5.9758720e+02   4.3979600e-01
   5.9806930e+02   3.7465300e-01
   5.9855150e+02   3.1595100e-01
   5.9903360e+02   3.1892800e-01
   5.9951570e+02   3.1792300e-01
   5.9999780e+02   2.7557100e-01
   6.0047990e+02   1.8225400e-01
   6.0096200e+02   9.8362997e-02
   6.0144420e+02   1.4116000e-02
   6.0192630e+02   3.9889999e-02
   6.0240840e+02   3.7944000e-02
   6.0289050e+02   7.4073002e-02
   6.0337260e+02   1.3675900e-01
   6.0385470e+02   1.1900200e-01
   6.0433690e+02   6.9247998e-02
   6.0481900e+02   7.2081998e-02
   6.0530110e+02   1.2804700e-01
   6.0578320e+02   1.7465800e-01
   6.0626530e+02   1.8646800e-01
   6.0674740e+02   1.8605600e-01
   6.0722960e+02   2.5608000e-01
   6.0771170e+02   3.7257200e-01
   6.0819380e+02   4.3183600e-01
   6.0867590e+02   2.8021600e-01
   6.0915800e+02   6.3864000e-02
   6.0964010e+02   5.3160000e-03
   6.1012230e+02   7.2140999e-02
   6.1060440e+02   1.5789600e-01
   6.1108650e+02   1.5763600e-01
   6.1156860e+02   1.4278000e-01
   6.1205070e+02   1.8174400e-01
   6.1253280e+02   3.2757400e-01
   6.1301500e+02   4.0544900e-01
   6.1349710e+02   3.0769000e-01
   6.1397920e+02   1.6505700e-01
   6.1446130e+02   1.1466300e-01
   6.1494340e+02   2.2229600e-01
   6.1542550e+02   2.9173900e-01
   6.1590770e+02   2.9760700e-01
   6.1638980e+02   2.6018100e-01
   6.1687190e+02   2.1932500e-01
   6.1735400e+02   1.7313900e-01
   6.1783610e+02   1.2682600e-01
   6.1831820e+02   6.9366001e-02
   6.1880040e+02   2.1475000e-02
   6.1928250e+02   6.3721001e-02
   6.1976460e+02   1.8324100e-01
   6.2024670e+02   2.6898300e-01
   6.2072880e+02   2.0818600e-01
   6.2121090e+02   9.6257001e-02
   6.2169310e+02   3.8208000e-02
   6.2217520e+02   4.0786002e-02
   6.2265730e+02   7.9044998e-02
   6.2313940e+02   2.0352500e-01
   6.2362150e+02   3.1913300e-01
   6.2410360e+02   3.4394900e-01
   6.2458580e+02   2.0223800e-01
   6.2506790e+02   9.0424001e-02
   6.2555000e+02   1.8158000e-02
   6.2603210e+02   1.0620000e-02
   6.2651420e+02   2.6369000e-02
   6.2699630e+02   1.8517900e-01
   6.2747850e+02   2.5365200e-01
   6.2796060e+02   1.6239100e-01
   6.2844270e+02   3.3859999e-03
   6.2892480e+02   2.2293000e-02
   6.2940690e+02   1.0655700e-01
   6.2988900e+02   2.2392300e-01
   6.3037120e+02   2.6172500e-01
   6.3085330e+02   2.4586900e-01
   6.3133540e+02   2.0269200e-01
   6.3181750e+02   1.4078600e-01
   6.3229960e+02   1.1528100e-01
   6.3278170e+02   2.0330000e-01
   6.3326390e+02   3.2141900e-01
   6.3374600e+02   4.0866000e-01
   6.3422810e+02   4.5702300e-01
   6.3471020e+02   4.4469700e-01
   6.3519230e+02   2.5705100e-01
   6.3567440e+02   7.3876001e-02
   6.3615660e+02   3.5310999e-02
   6.3663870e+02   2.8087500e-01
   6.3712080e+02   4.4044400e-01
   6.3760290e+02   4.8997900e-01
   6.3808500e+02   4.5377800e-01
   6.3856710e+02   3.4329600e-01
   6.3904930e+02   1.3713000e-01
   6.3953140e+02   8.6970003e-03
   6.4001350e+02   2.9130001e-03
   6.4049560e+02   6.8773001e-02
   6.4097770e+02   1.1173200e-01
   6.4145980e+02   1.3113000e-01
   6.4194200e+02   1.5581300e-01
   6.4242410e+02   2.0563800e-01
   6.4290620e+02   2.5881100e-01
   6.4338830e+02   2.8385000e-01
   6.4387040e+02   2.9764800e-01
   6.4435250e+02   3.3384000e-01
   6.4483470e+02   4.6170100e-01
   6.4531680e+02   5.5181800e-01
   6.4579890e+02   5.1646600e-01
   6.4628100e+02   3.2810200e-01
   6.4676310e+02   2.1908400e-01
   6.4724520e+02   3.0919600e-01
   6.4772740e+02   4.1802300e-01
   6.4820950e+02   4.3870500e-01
   6.4869160e+02   3.1383200e-01
   6.4917370e+02   2.9876700e-01
   6.4965580e+02   4.4271200e-01
   6.5013790e+02   5.9672700e-01
   6.5062010e+02   5.5375600e-01
   6.5110220e+02   3.2915400e-01
   6.5158430e+02   2.0461800e-01
   6.5206640e+02   2.5435800e-01
   6.5254850e+02   3.6120500e-01
   6.5303060e+02   3.4894700e-01
   6.5351280e+02   2.6449600e-01
   6.5399490e+02   2.1748400e-01
   6.5447700e+02   3.2870600e-01
   6.5495910e+02   4.1687000e-01
   6.5544120e+02   3.0838600e-01
   6.5592330e+02   7.8628004e-02
   6.5640550e+02   5.0941002e-02
   6.5688760e+02   6.1646000e-02
   6.5736970e+02   2.0883400e-01
   6.5785180e+02   3.4333700e-01
   6.5833390e+02   4.6195100e-01
   6.5881600e+02   5.1682300e-01
   6.5929820e+02   4.8681800e-01
   6.5978030e+02   4.2990000e-01
   6.6026240e+02   3.7351400e-01
   6.6074450e+02   3.2039800e-01
   6.6122660e+02   2.7414200e-01
   6.6170870e+02   2.3110600e-01
   6.6219090e+02   2.2201400e-01
   6.6267300e+02   3.0273600e-01
   6.6315510e+02   4.3486500e-01
   6.6363720e+02   5.4280200e-01
   6.6411930e+02   6.2247900e-01
   6.6460140e+02   6.3742800e-01
   6.6508360e+02   4.8212100e-01
   6.6556570e+02   2.7668100e-01
   6.6604780e+02   1.6985600e-01
   6.6652990e+02   3.0762500e-01
   6.6701200e+02   4.0847300e-01
   6.6749410e+02   3.7516200e-01
   6.6797630e+02   2.7019400e-01
   6.6845840e+02   2.0633700e-01
   6.6894050e+02   1.9092900e-01
   6.6942260e+02   2.0261600e-01
   6.6990470e+02   2.3845000e-01
   6.7038680e+02   2.9739900e-01
   6.7086900e+02   3.9117900e-01
   6.7135110e+02   5.2423200e-01
   6.7183320e+02   6.2166700e-01
   6.7231530e+02   6.5585000e-01
   6.7279740e+02   6.2680900e-01
   6.7327950e+02   4.7599100e-01
   6.7376170e+02   2.3058700e-01
   6.7424380e+02   8.1557997e-02
   6.7472590e+02   2.7714600e-01
   6.7520800e+02   5.3965400e-01
   6.7569010e+02   6.1293900e-01
   6.7617220e+02   4.6139800e-01
   6.7665440e+02   3.3801100e-01
   6.7713650e+02   3.7381700e-01
   6.7761860e+02   4.2605200e-01
   6.7810070e+02   3.8929800e-01
   6.7858280e+02   1.9028000e-01
   6.7906490e+02   1.1027600e-01
   6.7954710e+02   2.0062800e-01
   6.8002920e+02   3.3893100e-01
   6.8051130e+02   3.9921500e-01
   6.8099340e+02   3.8122800e-01
   6.8147550e+02   3.3421400e-01
   6.8195760e+02   2.5033700e-01
   6.8243980e+02   1.8452100e-01
   6.8292190e+02   2.5144800e-01
   6.8340400e+02   3.9862000e-01
   6.8388610e+02   4.8120200e-01
   6.8436820e+02   4.2825100e-01
   6.8485030e+02   3.3936700e-01
   6.8533250e+02   2.7087400e-01
   6.8581460e+02   2.2149500e-01
   6.8629670e+02   1.8705500e-01
   6.8677880e+02   1.1934600e-01
   6.8726090e+02   1.1953900e-01
   6.8774300e+02   3.0118800e-01
   6.8822520e+02   5.8898700e-01
   6.8870730e+02   6.5236000e-01
   6.8918940e+02   3.8900100e-01
   6.8967150e+02   1.2590200e-01
   6.9015360e+02   2.3940001e-02
   6.9063570e+02   6.9293000e-02
   6.9111790e+02   3.8968999e-02
   6.9160000e+02   6.9427997e-02
   6.9208210e+02   1.8065200e-01
   6.9256420e+02   2.7828700e-01
   6.9304630e+02   3.3412400e-01
   6.9352840e+02   2.6518200e-01
   6.9401060e+02   7.1213000e-02
   6.9449270e+02   8.7237000e-02
   6.9497480e+02   6.9665000e-02
   6.9545690e+02   2.2040000e-03
   6.9593900e+02   2.9826000e-02
   6.9642110e+02   1.6594000e-02
   6.9690330e+02   5.4726001e-02
   6.9738540e+02   9.6470997e-02
   6.9786750e+02   1.1323400e-01
   6.9834960e+02   6.8186000e-02
   6.9883170e+02   7.3633999e-02
   6.9931380e+02   1.5435500e-01
   6.9979600e+02   1.6161300e-01
   7.0027810e+02   1.1226300e-01
   7.0076020e+02   1.9687001e-02
   7.0124230e+02   2.0798500e-01
   7.0172440e+02   2.7608600e-01
   7.0220650e+02   1.4591200e-01
   7.0268870e+02   3.5693999e-02
   7.0317080e+02   1.0189800e-01
   7.0365290e+02   9.4976000e-02
   7.0413500e+02   9.3875997e-02
   7.0461710e+02   1.1509300e-01
   7.0509920e+02   1.6365800e-01
   7.0558140e+02   3.0201100e-01
   7.0606350e+02   4.7411800e-01
   7.0654560e+02   5.0379800e-01
   7.0702770e+02   2.6653300e-01
   7.0750980e+02   5.6488998e-02
   7.0799190e+02   7.3439002e-02
   7.0847410e+02   1.2342200e-01
   7.0895620e+02   5.7679001e-02
   7.0943830e+02   1.4367900e-01
   7.0992040e+02   2.9077500e-01
   7.1040250e+02   2.2824500e-01
   7.1088460e+02   5.5612002e-02
   7.1136670e+02   6.2084001e-02
   7.1184880e+02   2.2585500e-01
   7.1233090e+02   3.6738900e-01
   7.1281300e+02   3.3281400e-01
   7.1329520e+02   2.4927600e-01
   7.1377730e+02   2.2814000e-01
   7.1425940e+02   2.7671400e-01
   7.1474150e+02   3.1618100e-01
   7.1522360e+02   3.2013600e-01
   7.1570570e+02   2.9801600e-01
   7.1618790e+02   2.4640100e-01
   7.1667000e+02   1.4030700e-01
   7.1715210e+02   1.1310900e-01
   7.1763420e+02   1.8852300e-01
   7.1811630e+02   2.9315700e-01
   7.1859840e+02   3.7201500e-01
   7.1908060e+02   4.2371900e-01
   7.1956270e+02   4.2798500e-01
   7.2004480e+02   3.7849800e-01
   7.2052690e+02   3.0966300e-01
   7.2100900e+02   2.3954300e-01
   7.2149110e+02   1.7880000e-01
   7.2197330e+02   1.4665700e-01
   7.2245540e+02   1.6078500e-01
   7.2293750e+02   1.7424600e-01
   7.2341960e+02   1.5234200e-01
   7.2390170e+02   1.2236500e-01
   7.2438390e+02   1.1994000e-01
   7.2486600e+02   2.0849100e-01
   7.2534810e+02   2.3535800e-01
   7.2583020e+02   1.5639400e-01
   7.2631230e+02   3.5468001e-02
   7.2679440e+02   5.2060001e-03
   7.2727660e+02   4.1019998e-02
   7.2775870e+02   8.9249000e-02
   7.2824080e+02   1.1784000e-01
   7.2872290e+02   1.3735800e-01
   7.2920500e+02   1.6599500e-01
   7.2968710e+02   2.0128600e-01
   7.3016930e+02   2.3399700e-01
   7.3065140e+02   2.8882900e-01
   7.3113350e+02   3.1412500e-01
   7.3161560e+02   2.4472200e-01
   7.3209770e+02   1.1209100e-01
   7.3257980e+02   1.6773000e-02
   7.3306200e+02   3.1475998e-02
   7.3354410e+02   1.8748000e-02
   7.3402620e+02   9.6988000e-02
   7.3450830e+02   2.8635800e-01
   7.3499040e+02   3.5379300e-01
   7.3547250e+02   2.6397100e-01
   7.3595470e+02   1.7487600e-01
   7.3643680e+02   1.7154200e-01
   7.3691890e+02   2.2489300e-01
   7.3740100e+02   2.0072500e-01
   7.3788310e+02   1.0812800e-01
   7.3836520e+02   5.6453999e-02
   7.3884740e+02   1.8786200e-01
   7.3932950e+02   3.5309500e-01
   7.3981160e+02   3.7435500e-01
   7.4029370e+02   2.4803800e-01
   7.4077580e+02   1.5853600e-01
   7.4125790e+02   2.0603000e-01
   7.4174010e+02   2.8647700e-01
   7.4222220e+02   3.4633600e-01
   7.4270430e+02   3.8402200e-01
   7.4318640e+02   4.0816200e-01
   7.4366850e+02   4.2921800e-01
   7.4415060e+02   4.1649800e-01
   7.4463280e+02   3.2064000e-01
   7.4511490e+02   1.5152400e-01
   7.4559700e+02   5.3167999e-02
   7.4607910e+02   3.3417001e-02
   7.4656120e+02   7.4894004e-02
   7.4704330e+02   2.1930000e-01
   7.4752550e+02   3.9397600e-01
   7.4800760e+02   4.8846900e-01
   7.4848970e+02   4.8501800e-01
   7.4897180e+02   4.2754200e-01
   7.4945390e+02   2.5603200e-01
   7.4993600e+02   8.5936002e-02
   7.5041820e+02   2.9417999e-02
   7.5090030e+02   1.9771400e-01
   7.5138240e+02   2.8474300e-01
   7.5186450e+02   2.7170800e-01
   7.5234660e+02   1.9438100e-01
   7.5282870e+02   8.9681000e-02
   7.5331090e+02   4.1586999e-02
   7.5379300e+02   1.1379400e-01
   7.5427510e+02   1.2125700e-01
   7.5475720e+02   6.7460999e-02
   7.5523930e+02   1.1627800e-01
   7.5572140e+02   3.4680300e-01
   7.5620360e+02   4.5404800e-01
   7.5668570e+02   3.2492400e-01
   7.5716780e+02   1.9161200e-01
   7.5764990e+02   2.0361700e-01
   7.5813200e+02   2.7979900e-01
   7.5861410e+02   3.0290300e-01
   7.5909630e+02   1.6525700e-01
   7.5957840e+02   9.7760998e-02
   7.6006050e+02   1.6867400e-01
   7.6054260e+02   3.0178200e-01
   7.6102470e+02   3.2650400e-01
   7.6150680e+02   2.3207300e-01
   7.6198900e+02   2.0818800e-01
   7.6247110e+02   3.3139500e-01
   7.6295320e+02   4.8788500e-01
   7.6343530e+02   4.9159200e-01
   7.6391740e+02   3.8162800e-01
   7.6439950e+02   2.5511000e-01
   7.6488170e+02   9.1596000e-02
   7.6536380e+02   7.6090000e-03
   7.6584590e+02   6.0470000e-02
   7.6632800e+02   2.2772900e-01
   7.6681010e+02   3.3623500e-01
   7.6729220e+02   2.8662000e-01
   7.6777440e+02   2.7244000e-01
   7.6825650e+02   3.5545800e-01
   7.6873860e+02   4.8570800e-01
   7.6922070e+02   5.0942800e-01
   7.6970280e+02   4.1851600e-01
   7.7018490e+02   3.1399700e-01
   7.7066710e+02   2.0777400e-01
   7.7114920e+02   1.3491900e-01
   7.7163130e+02   2.0127900e-01
   7.7211340e+02   3.6589700e-01
   7.7259550e+02   4.8632800e-01
   7.7307760e+02   4.3170400e-01
   7.7355980e+02   3.6596100e-01
   7.7404190e+02   4.2141400e-01
   7.7452400e+02   5.5894500e-01
   7.7500610e+02   5.9259800e-01
   7.7548820e+02   3.6039400e-01
   7.7597030e+02   2.0456700e-01
   7.7645250e+02   2.5118400e-01
   7.7693460e+02   4.4602400e-01
   7.7741670e+02   4.9424700e-01
   7.7789880e+02   3.8393400e-01
   7.7838090e+02   2.9711000e-01
   7.7886300e+02   3.6209700e-01
   7.7934520e+02   4.8752600e-01
   7.7982730e+02   4.9113600e-01
   7.8030940e+02   3.9233800e-01
   7.8079150e+02   2.8175200e-01
   7.8127360e+02   1.5106700e-01
   7.8175570e+02   7.6410003e-02
   7.8223790e+02   1.5179400e-01
   7.8272000e+02   3.6076300e-01
   7.8320210e+02   4.5580600e-01
   7.8368420e+02   3.0654000e-01
   7.8416630e+02   2.0998600e-01
   7.8464840e+02   3.1376900e-01
   7.8513060e+02   5.7561100e-01
   7.8561270e+02   6.1170400e-01
   7.8609480e+02   4.0897700e-01
   7.8657690e+02   2.2215100e-01
   7.8705900e+02   2.3358400e-01
   7.8754110e+02   3.5213100e-01
   7.8802330e+02   4.3844200e-01
   7.8850540e+02   4.9163200e-01
   7.8898750e+02   5.1644900e-01
   7.8946960e+02   2.2620900e-01
   7.8995170e+02   5.6847000e-01
   7.9043380e+02   7.6189500e-01
   7.9091600e+02   8.1366500e-01
   7.9139810e+02   3.0296400e-01
   7.9188020e+02   5.1962900e-01
   7.9236230e+02   4.4505100e-01
   7.9284440e+02   3.5858400e-01
   7.9332650e+02   6.7772400e-01
   7.9380870e+02   2.4961200e-01
   7.9429080e+02   5.6243400e-01
   7.9477290e+02   5.7957000e-01
   7.9525500e+02   7.3211900e-01
   7.9573710e+02   5.9165700e-01
   7.9621920e+02   5.4181200e-01
   7.9670140e+02   7.8522100e-01
   7.9718350e+02   8.6634200e-01
   7.9766560e+02   6.9240300e-01
   7.9814770e+02   8.5396700e-01
   7.9862980e+02   4.1625800e-01
   7.9911190e+02   5.0452900e-01
   7.9959410e+02   8.1977200e-01
   8.0007620e+02   6.6086300e-01
   8.0055830e+02   8.2807700e-01
   8.0104040e+02   8.7116600e-01
   8.0152250e+02   3.4995100e-01
   8.0200460e+02   8.1027600e-01
   8.0248680e+02   8.4620300e-01
   8.0296890e+02   4.4636000e-01
   8.0345100e+02   8.7323100e-01
   8.0393310e+02   5.3358900e-01
   8.0441520e+02   4.6762500e-01
   8.0489730e+02   6.0763500e-01
   8.0537950e+02   5.3304600e-01
   8.0586160e+02   7.9697600e-01
   8.0634370e+02   7.3495700e-01
   8.0682580e+02   6.4389000e-01
   8.0730790e+02   6.8000900e-01
   8.0779000e+02   3.5595200e-01
   8.0827220e+02   7.0026400e-01
   8.0875430e+02   5.8813300e-01
   8.0923640e+02   7.0304000e-01
   8.0971850e+02   8.6951400e-01
   8.1020060e+02   5.8881200e-01
   8.1068270e+02   5.0549700e-01
   8.1116490e+02   4.6910400e-01
   8.1164700e+02   5.8930400e-01
   8.1212910e+02   7.3272900e-01
   8.1261120e+02   7.8378000e-01
   8.1309330e+02   7.3767800e-01
   8.1357540e+02   7.3665100e-01
   8.1405760e+02   8.8222300e-01
   8.1453970e+02   9.8059600e-01
   8.1502180e+02   9.3387300e-01
   8.1550390e+02   7.5515000e-01
   8.1598600e+02   6.6969500e-01
   8.1646810e+02   6.8358000e-01
   8.1695030e+02   7.0676000e-01
   8.1743240e+02   6.7286000e-01
   8.1791450e+02   6.1434700e-01
   8.1839660e+02   5.9420000e-01
   8.1887870e+02   6.0738500e-01
   8.1936080e+02   6.1381700e-01
   8.1984300e+02   5.6739100e-01
   8.2032510e+02   5.3103200e-01
   8.2080720e+02   5.5283700e-01
   8.2128930e+02   6.3253300e-01
   8.2177140e+02   6.7289300e-01
   8.2225350e+02   6.6201800e-01
   8.2273570e+02   6.3410800e-01
   8.2321780e+02   5.9382700e-01
   8.2369990e+02   5.4907900e-01
   8.2418200e+02   5.3138400e-01
   8.2466410e+02   5.4075500e-01
   8.2514620e+02   5.7709300e-01
   8.2562840e+02   7.0580600e-01
   8.2611050e+02   8.1346600e-01
   8.2659260e+02   7.5124700e-01
   8.2707470e+02   5.5349500e-01
   8.2755680e+02   4.0232200e-01
   8.2803890e+02   3.6914100e-01
   8.2852110e+02   3.8165100e-01
   8.2900320e+02   4.3361700e-01
   8.2948530e+02   5.1183900e-01
   8.2996740e+02   5.2586700e-01
   8.3044950e+02   4.5479500e-01
   8.3093160e+02   4.3588900e-01
   8.3141380e+02   5.4913500e-01
   8.3189590e+02   7.3424100e-01
   8.3237800e+02   8.9139700e-01
   8.3286010e+02   1.0116900e+00
   8.3334220e+02   1.0627730e+00
   8.3382430e+02   9.6814800e-01
   8.3430650e+02   8.5694000e-01
   8.3478860e+02   8.1165800e-01
   8.3527070e+02   8.1253500e-01
   8.3575280e+02   7.7433500e-01
   8.3623490e+02   6.2527700e-01
   8.3671700e+02   5.5605700e-01
   8.3719920e+02   6.4588800e-01
   8.3768130e+02   8.2315400e-01
   8.3816340e+02   8.7537300e-01
   8.3864550e+02   8.1151800e-01
   8.3912760e+02   7.6425900e-01
   8.3960970e+02   8.1540200e-01
   8.4009190e+02   8.6877200e-01
   8.4057400e+02   7.6481600e-01
   8.4105610e+02   5.8079600e-01
   8.4153820e+02   4.8918600e-01
   8.4202030e+02   6.5385100e-01
   8.4250240e+02   7.9614300e-01
   8.4298460e+02   8.5099600e-01
   8.4346670e+02   8.3653000e-01
   8.4394880e+02   7.5852500e-01
   8.4443090e+02   5.8364100e-01
   8.4491300e+02   5.2049800e-01
   8.4539510e+02   6.4302100e-01
   8.4587730e+02   8.1797000e-01
   8.4635940e+02   8.3350600e-01
   8.4684150e+02   7.4670300e-01
   8.4732360e+02   7.0279200e-01
   8.4780570e+02   7.7741500e-01
   8.4828780e+02   8.3059300e-01
   8.4877000e+02   7.3286800e-01
   8.4925210e+02   5.8172700e-01
   8.4973420e+02   5.1763800e-01
   8.5021630e+02   6.2216800e-01
   8.5069840e+02   6.8844800e-01
   8.5118050e+02   6.9129400e-01
   8.5166270e+02   6.7158800e-01
   8.5214480e+02   6.9744200e-01
   8.5262690e+02   7.5974800e-01
   8.5310900e+02   7.6493000e-01
   8.5359110e+02   6.7212700e-01
   8.5407320e+02   5.9306600e-01
   8.5455540e+02   6.7659900e-01
   8.5503750e+02   8.3721000e-01
   8.5551960e+02   9.7814600e-01
   8.5600170e+02   1.0990030e+00
   8.5648380e+02   1.1466110e+00
   8.5696590e+02   1.0640500e+00
   8.5744810e+02   9.4615400e-01
   8.5793020e+02   8.5864300e-01
   8.5841230e+02   8.0272200e-01
   8.5889440e+02   7.7960200e-01
   8.5937650e+02   7.9363000e-01
   8.5985860e+02   8.1700800e-01
   8.6034080e+02   8.0684000e-01
   8.6082290e+02   7.9271000e-01
   8.6130500e+02   8.4919200e-01
   8.6178710e+02   9.9076800e-01
   8.6226920e+02   1.0814720e+00
   8.6275130e+02   1.0144000e+00
   8.6323350e+02   9.0456900e-01
   8.6371560e+02   8.1833900e-01
   8.6419770e+02   7.5654800e-01
   8.6467980e+02   7.5198800e-01
   8.6516190e+02   8.3141200e-01
   8.6564400e+02   8.9312000e-01
   8.6612620e+02   8.4533200e-01
   8.6660830e+02   7.3495100e-01
   8.6709040e+02   7.1724900e-01
   8.6757250e+02   7.7394600e-01
   8.6805460e+02   8.0959000e-01
   8.6853670e+02   7.5732800e-01
   8.6901890e+02   6.8128300e-01
   8.6950100e+02   6.1760800e-01
   8.6998310e+02   5.7460700e-01
   8.7046520e+02   5.6702700e-01
   8.7094730e+02   5.9945200e-01
   8.7142940e+02   6.2945400e-01
   8.7191160e+02   6.3555000e-01
   8.7239370e+02   6.2922000e-01
   8.7287580e+02   6.8268000e-01
   8.7335790e+02   7.8731600e-01
   8.7384000e+02   8.3446100e-01
   8.7432210e+02   7.1813100e-01
   8.7480430e+02   5.6247900e-01
   8.7528640e+02   4.8813200e-01
   8.7576850e+02   4.7719200e-01
   8.7625060e+02   4.8856000e-01
   8.7673270e+02   5.5813700e-01
   8.7721480e+02   5.8425200e-01
   8.7769700e+02   5.0204000e-01
   8.7817910e+02   3.8832100e-01
   8.7866120e+02   4.3454800e-01
   8.7914330e+02   6.6250500e-01
   8.7962540e+02   8.0935800e-01
   8.8010750e+02   8.0398100e-01
   8.8058970e+02   7.1952400e-01
   8.8107180e+02   6.2693300e-01
   8.8155390e+02   5.4149100e-01
   8.8203600e+02   4.7274500e-01
   8.8251810e+02   4.0943400e-01
   8.8300020e+02   3.7169800e-01
   8.8348240e+02   3.8544800e-01
   8.8396450e+02   4.1939000e-01
   8.8444660e+02   4.2226100e-01
   8.8492870e+02   3.8114400e-01
   8.8541080e+02   3.6540900e-01
   8.8589290e+02   3.8850500e-01
   8.8637510e+02   4.0562700e-01
   8.8685720e+02   3.3930600e-01
   8.8733930e+02   2.2949700e-01
   8.8782140e+02   1.8008900e-01
   8.8830350e+02   2.0970700e-01
   8.8878560e+02   2.4940700e-01
   8.8926780e+02   2.6603600e-01
   8.8974990e+02   2.7219900e-01
   8.9023200e+02   2.7192100e-01
   8.9071410e+02   2.6158900e-01
   8.9119620e+02   2.7264900e-01
   8.9167830e+02   3.2257700e-01
   8.9216050e+02   3.4966800e-01
   8.9264260e+02   2.8310100e-01
   8.9312470e+02   1.5959300e-01
   8.9360680e+02   1.4223900e-01
   8.9408890e+02   2.2165700e-01
   8.9457100e+02   2.9784300e-01
   8.9505320e+02   3.0038800e-01
   8.9553530e+02   2.8573000e-01
   8.9601740e+02   3.1096900e-01
   8.9649950e+02   3.6582800e-01
   8.9698160e+02   3.3966300e-01
   8.9746370e+02   1.6206300e-01
   8.9794590e+02   2.5294000e-02
   8.9842800e+02   2.8990000e-03
   8.9891010e+02   4.1816998e-02
   8.9939220e+02   6.3005999e-02
   8.9987430e+02   6.3800998e-02
   9.0035640e+02   6.6519000e-02
   9.0083860e+02   1.0156200e-01
   9.0132070e+02   1.2241800e-01
   9.0180280e+02   3.4304999e-02
   9.0228490e+02   9.8288998e-02
   9.0276700e+02   1.6512200e-01
   9.0324910e+02   5.8557998e-02
   9.0373130e+02   2.8979999e-03
   9.0421340e+02   5.2230999e-02
   9.0469550e+02   1.1621100e-01
   9.0517760e+02   3.1107999e-02
   9.0565970e+02   1.8814500e-01
   9.0614180e+02   2.9663400e-01
   9.0662400e+02   2.4626700e-01
   9.0710610e+02   1.5000800e-01
   9.0758820e+02   9.2106000e-02
   9.0807030e+02   6.5286003e-02
   9.0855240e+02   7.0487000e-02
   9.0903450e+02   1.3220900e-01
   9.0951670e+02   1.3563900e-01
   9.0999880e+02   5.4549999e-03
   9.1048090e+02   1.1276500e-01
   9.1096300e+02   1.1213600e-01
   9.1144510e+02   1.0529000e-02
   9.1192720e+02   6.3372001e-02
   9.1240940e+02   4.4736002e-02
   9.1289150e+02   1.5402000e-02
   9.1337360e+02   8.9330003e-03
   9.1385570e+02   2.3943000e-02
   9.1433780e+02   7.9662003e-02
   9.1481990e+02   1.6675700e-01
   9.1530210e+02   2.1087600e-01
   9.1578420e+02   1.2466800e-01
   9.1626630e+02   7.2287999e-02
   9.1674840e+02   1.3482800e-01
   9.1723050e+02   2.7410400e-01
   9.1771260e+02   3.3583700e-01
   9.1819480e+02   3.1966700e-01
   9.1867690e+02   2.6901800e-01
   9.1915900e+02   1.8237000e-01
   9.1964110e+02   9.5867001e-02
   9.2012320e+02   4.3116000e-02
   9.2060530e+02   2.5884001e-02
   9.2108750e+02   4.8005000e-02
   9.2156960e+02   1.9025300e-01
   9.2205170e+02   2.6672200e-01
   9.2253380e+02   2.3673100e-01
   9.2301590e+02   1.4351500e-01
   9.2349800e+02   9.6070003e-03
   9.2398020e+02   1.7092400e-01
   9.2446230e+02   2.2712700e-01
   9.2494440e+02   1.2261300e-01
   9.2542650e+02   1.3042000e-02
   9.2590860e+02   6.3486002e-02
   9.2639070e+02   5.4465000e-02
   9.2687290e+02   4.6529998e-03
   9.2735500e+02   1.3199400e-01
   9.2783710e+02   1.7528800e-01
   9.2831920e+02   3.1773999e-02
   9.2880130e+02   2.1716400e-01
   9.2928340e+02   2.2920500e-01
   9.2976560e+02   6.9380999e-02
   9.3024770e+02   3.3844002e-02
   9.3072980e+02   8.1217997e-02
   9.3121190e+02   7.2640002e-02
   9.3169400e+02   3.4350999e-02
   9.3217610e+02   1.6975100e-01
   9.3265830e+02   2.4841500e-01
   9.3314040e+02   2.7853600e-01
   9.3362250e+02   2.9525100e-01
   9.3410460e+02   2.8446400e-01
   9.3458670e+02   2.9617100e-01
   9.3506880e+02   3.6521500e-01
   9.3555100e+02   4.5321900e-01
   9.3603310e+02   4.5438000e-01
   9.3651520e+02   3.6754500e-01
   9.3699730e+02   2.9371600e-01
   9.3747940e+02   2.6765800e-01
   9.3796150e+02   2.4090200e-01
   9.3844370e+02   1.0409000e-01
   9.3892580e+02   5.2271001e-02
   9.3940790e+02   7.6076001e-02
   9.3989000e+02   1.8977800e-01
   9.4037210e+02   3.3035400e-01
   9.4085420e+02   1.6714400e-01
   9.4133640e+02   2.0563001e-02
   9.4181850e+02   3.1106999e-02
   9.4230060e+02   3.3387100e-01
   9.4278270e+02   4.1349300e-01
   9.4326480e+02   2.4491400e-01
   9.4374690e+02   5.8054999e-02
   9.4422910e+02   3.1415001e-02
   9.4471120e+02   8.8368997e-02
   9.4519330e+02   1.8399500e-01
   9.4567540e+02   3.0592900e-01
   9.4615750e+02   3.5039900e-01
   9.4663960e+02   2.0291900e-01
   9.4712180e+02   8.8780999e-02
   9.4760390e+02   8.6364001e-02
   9.4808600e+02   1.6227500e-01
   9.4856810e+02   1.8441700e-01
   9.4905020e+02   1.5869400e-01
   9.4953230e+02   1.6395200e-01
   9.5001450e+02   2.6070100e-01
   9.5049660e+02   3.5742400e-01
   9.5097870e+02   3.4822200e-01
   9.5146080e+02   2.8280900e-01
   9.5194290e+02   2.4215100e-01
   9.5242500e+02   2.9255900e-01
   9.5290720e+02   2.9388600e-01
   9.5338930e+02   2.0962900e-01
   9.5387140e+02   1.1786700e-01
   9.5435350e+02   1.1328100e-01
   9.5483560e+02   1.8526000e-01
   9.5531770e+02   2.7170000e-01
   9.5579990e+02   3.6839000e-01
   9.5628200e+02   4.3740600e-01
   9.5676400e+02   4.6850000e-01
   9.5724620e+02   4.4486300e-01
   9.5772830e+02   3.1121200e-01
   9.5821040e+02   4.6893001e-02
   9.5869250e+02   6.5366000e-02
   9.5917460e+02   3.5301000e-02
   9.5965670e+02   1.7339500e-01
   9.6013890e+02   2.8731700e-01
   9.6062100e+02   3.6897300e-01
   9.6110310e+02   3.8528700e-01
   9.6158520e+02   3.4392200e-01
   9.6206730e+02   2.9149400e-01
   9.6254940e+02   2.5205300e-01
   9.6303160e+02   2.1511400e-01
   9.6351370e+02   1.3260600e-01
   9.6399580e+02   4.9488001e-02
   9.6447790e+02   6.1648998e-02
   9.6496000e+02   2.2099500e-01
   9.6544210e+02   3.4530100e-01
   9.6592430e+02   4.1956000e-01
   9.6640640e+02   4.4554100e-01
   9.6688850e+02   3.8927100e-01
   9.6737060e+02   2.9263700e-01
   9.6785270e+02   2.6306000e-01
   9.6833480e+02   3.1517900e-01
   9.6881700e+02   3.7435800e-01
   9.6929910e+02   4.0596200e-01
   9.6978120e+02   4.2780600e-01
   9.7026330e+02   4.6446300e-01
   9.7074540e+02   5.1686900e-01
   9.7122750e+02   5.1902800e-01
   9.7170970e+02   4.7108300e-01
   9.7219180e+02   3.7077900e-01
   9.7267390e+02   1.3638600e-01
   9.7315600e+02   9.1030002e-02
   9.7363810e+02   1.3770000e-02
   9.7412020e+02   3.3338200e-01
   9.7460240e+02   5.3569900e-01
   9.7508450e+02   3.6861800e-01
   9.7556660e+02   2.1997100e-01
   9.7604870e+02   2.0386700e-01
   9.7653080e+02   2.5025800e-01
   9.7701290e+02   2.6379800e-01
   9.7749510e+02   2.4355300e-01
   9.7797720e+02   2.1542100e-01
   9.7845930e+02   1.8320800e-01
   9.7894140e+02   1.4063100e-01
   9.7942350e+02   4.5077998e-02
   9.7990560e+02   4.7134001e-02
   9.8038780e+02   6.6413999e-02
   9.8086990e+02   2.9040000e-03
   9.8135200e+02   1.0411500e-01
   9.8183410e+02   2.9418400e-01
   9.8231620e+02   4.0456000e-01
   9.8279830e+02   3.2891500e-01
   9.8328050e+02   1.1753500e-01
   9.8376260e+02   3.9537001e-02
   9.8424470e+02   8.0242001e-02
   9.8472680e+02   1.2857300e-01
   9.8520890e+02   1.1568500e-01
   9.8569100e+02   9.5831998e-02
   9.8617320e+02   1.1841200e-01
   9.8665530e+02   1.6400600e-01
   9.8713740e+02   2.1493400e-01
   9.8761950e+02   2.7696900e-01
   9.8810160e+02   3.2629000e-01
   9.8858370e+02   3.7268300e-01
   9.8906590e+02   3.8958000e-01
   9.8954800e+02   3.1015500e-01
   9.9003010e+02   1.7402400e-01
   9.9051220e+02   1.0891500e-01
   9.9099430e+02   1.3303500e-01
   9.9147640e+02   1.8632400e-01
   9.9195860e+02   2.8913100e-01
   9.9244070e+02   3.6191400e-01
   9.9292280e+02   3.3126400e-01
   9.9340490e+02   2.0586300e-01
   9.9388700e+02   1.5475400e-01
   9.9436910e+02   1.8915800e-01
   9.9485130e+02   2.2421000e-01
   9.9533340e+02   2.1240100e-01
   9.9581550e+02   1.8917800e-01
   9.9629760e+02   2.1800700e-01
   9.9677970e+02   2.7092400e-01
   9.9726180e+02   3.0687400e-01
   9.9774400e+02   3.4087300e-01
   9.9822610e+02   3.2453300e-01
   9.9870820e+02   2.0135500e-01
   9.9919030e+02   6.9929004e-02
   9.9967240e+02   7.4166000e-02
   1.0001550e+03   2.0931900e-01
   1.0006370e+03   3.1263000e-01
   1.0011190e+03   3.7140400e-01
   1.0016010e+03   3.8097600e-01
   1.0020830e+03   3.0208900e-01
   1.0025650e+03   2.0278100e-01
   1.0030470e+03   1.3201100e-01
   1.0035290e+03   9.5592000e-02
   1.0040110e+03   9.6644998e-02
   1.0044940e+03   1.4982500e-01
   1.0049760e+03   2.0511600e-01
   1.0054580e+03   2.4861300e-01
   1.0059400e+03   2.8293700e-01
   1.0064220e+03   3.1081300e-01
   1.0069040e+03   3.3139500e-01
   1.0073860e+03   3.4193100e-01
   1.0078680e+03   3.4991600e-01
   1.0083510e+03   3.3265900e-01
   1.0088330e+03   2.3795700e-01
   1.0093150e+03   1.3694100e-01
   1.0097970e+03   1.1188200e-01
   1.0102790e+03   1.9118100e-01
   1.0107610e+03   2.2554400e-01
   1.0112430e+03   2.0605400e-01
   1.0117250e+03   1.8768900e-01
   1.0122070e+03   2.3057500e-01
   1.0126900e+03   2.9596900e-01
   1.0131720e+03   3.3617300e-01
   1.0136540e+03   3.4775400e-01
   1.0141360e+03   3.2917200e-01
   1.0146180e+03   2.2863400e-01
   1.0151000e+03   1.6291200e-01
   1.0155820e+03   1.6890500e-01
   1.0160640e+03   2.1911800e-01
   1.0165470e+03   2.5884900e-01
   1.0170290e+03   2.9924800e-01
   1.0175110e+03   3.2561000e-01
   1.0179930e+03   3.2702200e-01
   1.0184750e+03   3.2987700e-01
   1.0189570e+03   3.8028200e-01
   1.0194390e+03   4.2879200e-01
   1.0199210e+03   4.1330800e-01
   1.0204030e+03   2.9955800e-01
   1.0208860e+03   2.5109200e-01
   1.0213680e+03   2.8444800e-01
   1.0218500e+03   3.3143600e-01
   1.0223320e+03   3.4315700e-01
   1.0228140e+03   3.4409100e-01
   1.0232960e+03   4.1532900e-01
   1.0237780e+03   5.2918800e-01
   1.0242600e+03   5.8474200e-01
   1.0247430e+03   4.4969300e-01
   1.0252250e+03   3.5370100e-01
   1.0257070e+03   4.0857000e-01
   1.0261890e+03   5.2058600e-01
   1.0266710e+03   5.5213000e-01
   1.0271530e+03   4.9945700e-01
   1.0276350e+03   4.7209400e-01
   1.0281170e+03   4.8630500e-01
   1.0285990e+03   5.0807200e-01
   1.0290820e+03   5.2330500e-01
   1.0295640e+03   5.1459900e-01
   1.0300460e+03   4.2867100e-01
   1.0305280e+03   2.5169300e-01
   1.0310100e+03   2.1960700e-01
   1.0314920e+03   4.7254600e-01
   1.0319740e+03   6.3250400e-01
   1.0324560e+03   4.9963500e-01
   1.0329380e+03   2.2744900e-01
   1.0334210e+03   2.3682200e-01
   1.0339030e+03   4.4754400e-01
   1.0343850e+03   5.9189800e-01
   1.0348670e+03   5.4109200e-01
   1.0353490e+03   4.6091300e-01
   1.0358310e+03   3.7112500e-01
   1.0363130e+03   3.2614400e-01
   1.0367950e+03   3.9808300e-01
   1.0372780e+03   6.1885000e-01
   1.0377600e+03   7.3480200e-01
   1.0382420e+03   7.4174400e-01
   1.0387240e+03   6.9266600e-01
   1.0392060e+03   5.8429000e-01
   1.0396880e+03   4.6197300e-01
   1.0401700e+03   3.7014400e-01
   1.0406520e+03   3.1178700e-01
   1.0411350e+03   2.9218800e-01
   1.0416170e+03   3.3882500e-01
   1.0420990e+03   3.7897900e-01
   1.0425810e+03   3.9776700e-01
   1.0430630e+03   4.0693000e-01
   1.0435450e+03   4.4486000e-01
   1.0440270e+03   4.9167900e-01
   1.0445090e+03   4.6184600e-01
   1.0449910e+03   3.2212900e-01
   1.0454740e+03   2.1059100e-01
   1.0459560e+03   2.2984000e-01
   1.0464380e+03   2.8646300e-01
   1.0469200e+03   3.0887800e-01
   1.0474020e+03   2.9994100e-01
   1.0478840e+03   3.6394000e-01
   1.0483660e+03   5.0327400e-01
   1.0488480e+03   5.9112000e-01
   1.0493300e+03   5.3592200e-01
   1.0498130e+03   4.3987100e-01
   1.0502950e+03   4.3091100e-01
   1.0507770e+03   4.6780000e-01
   1.0512590e+03   4.7345200e-01
   1.0517410e+03   4.2812800e-01
   1.0522230e+03   3.3629500e-01
   1.0527050e+03   1.5995100e-01
   1.0531870e+03   9.6890004e-03
   1.0536700e+03   2.6736001e-02
   1.0541520e+03   1.6002900e-01
   1.0546340e+03   2.3861600e-01
   1.0551160e+03   2.5537700e-01
   1.0555980e+03   2.4016200e-01
   1.0560800e+03   1.5096600e-01
   1.0565620e+03   9.6295998e-02
   1.0570440e+03   1.5426900e-01
   1.0575260e+03   2.7866500e-01
   1.0580090e+03   3.6049700e-01
   1.0584910e+03   3.9934400e-01
   1.0589730e+03   3.9762300e-01
   1.0594550e+03   3.4833200e-01
   1.0599370e+03   2.8843800e-01
   1.0604190e+03   2.4651000e-01
   1.0609010e+03   2.1977400e-01
   1.0613830e+03   2.1638800e-01
   1.0618650e+03   2.4212500e-01
   1.0623480e+03   2.6977300e-01
   1.0628300e+03   2.9075700e-01
   1.0633120e+03   3.3490700e-01
   1.0637940e+03   4.5044100e-01
   1.0642760e+03   5.7646600e-01
   1.0647580e+03   5.2719700e-01
   1.0652400e+03   3.5257100e-01
   1.0657220e+03   1.9917900e-01
   1.0662050e+03   1.0763600e-01
   1.0666870e+03   7.4355997e-02
   1.0671690e+03   1.2032100e-01
   1.0676510e+03   2.0546700e-01
   1.0681330e+03   3.1633000e-01
   1.0686150e+03   4.5313800e-01
   1.0690970e+03   4.8746100e-01
   1.0695790e+03   4.1363800e-01
   1.0700620e+03   3.2486600e-01
   1.0705440e+03   2.7138200e-01
   1.0710260e+03   2.4774000e-01
   1.0715080e+03   2.7013100e-01
   1.0719900e+03   3.2251300e-01
   1.0724720e+03   3.3114200e-01
   1.0729540e+03   2.8034000e-01
   1.0734360e+03   2.2569800e-01
   1.0739180e+03   1.6811500e-01
   1.0744010e+03   1.3615300e-01
   1.0748830e+03   2.0639000e-01
   1.0753650e+03   3.1117100e-01
   1.0758470e+03   3.2279500e-01
   1.0763290e+03   2.0475400e-01
   1.0768110e+03   1.3836100e-01
   1.0772930e+03   2.0916900e-01
   1.0777750e+03   2.9472500e-01
   1.0782570e+03   3.6177100e-01
   1.0787400e+03   3.9923400e-01
   1.0792220e+03   3.4248100e-01
   1.0797040e+03   2.1140400e-01
   1.0801860e+03   1.0087700e-01
   1.0806680e+03   3.8787000e-02
   1.0811500e+03   2.0336000e-02
   1.0816320e+03   6.3658997e-02
   1.0821140e+03   1.4308800e-01
   1.0825960e+03   2.2816600e-01
   1.0830790e+03   3.1800200e-01
   1.0835610e+03   3.7646100e-01
   1.0840430e+03   4.0620900e-01
   1.0845250e+03   3.7593100e-01
   1.0850070e+03   1.8393000e-01
   1.0854890e+03   1.5499000e-02
   1.0859710e+03   5.7620998e-02
   1.0864530e+03   2.3852000e-02
   1.0869360e+03   1.3166800e-01
   1.0874180e+03   3.0099900e-01
   1.0879000e+03   3.8406200e-01
   1.0883820e+03   3.4557700e-01
   1.0888640e+03   2.6236000e-01
   1.0893460e+03   2.1771800e-01
   1.0898280e+03   2.0391800e-01
   1.0903100e+03   2.0350500e-01
   1.0907920e+03   2.1432900e-01
   1.0912750e+03   2.5600800e-01
   1.0917570e+03   4.2603500e-01
   1.0922390e+03   5.1470900e-01
   1.0927210e+03   4.1027400e-01
   1.0932030e+03   2.0290000e-01
   1.0936850e+03   1.5803700e-01
   1.0941670e+03   2.5237200e-01
   1.0946490e+03   3.5053200e-01
   1.0951310e+03   4.2863600e-01
   1.0956140e+03   4.5710000e-01
   1.0960960e+03   3.5609500e-01
   1.0965780e+03   2.4514400e-01
   1.0970600e+03   2.4365200e-01
   1.0975420e+03   3.5706600e-01
   1.0980240e+03   3.5052100e-01
   1.0985060e+03   2.1512800e-01
   1.0989880e+03   9.1617003e-02
   1.0994710e+03   5.4894000e-02
   1.0999530e+03   6.5894000e-02
   1.1004350e+03   8.5221000e-02
   1.1009170e+03   1.1787700e-01
   1.1013990e+03   1.7477000e-01
   1.1018810e+03   2.9213200e-01
   1.1023630e+03   3.7388800e-01
   1.1028450e+03   4.2835600e-01
   1.1033280e+03   4.2203500e-01
   1.1038100e+03   2.7638000e-01
   1.1042920e+03   6.7965001e-02
   1.1047740e+03   6.8515003e-02
   1.1052560e+03   1.2375200e-01
   1.1057380e+03   7.4070998e-02
   1.1062200e+03   2.4961200e-01
   1.1067020e+03   4.7085900e-01
   1.1071840e+03   4.7033000e-01
   1.1076670e+03   3.5965200e-01
   1.1081490e+03   2.8634200e-01
   1.1086310e+03   2.4635600e-01
   1.1091130e+03   2.2303300e-01
   1.1095950e+03   2.1394000e-01
   1.1100770e+03   2.2435100e-01
   1.1105590e+03   2.5326200e-01
   1.1110410e+03   3.0908800e-01
   1.1115230e+03   4.3162900e-01
   1.1120060e+03   5.8422600e-01
   1.1124880e+03   5.9510400e-01
   1.1129700e+03   4.6224900e-01
   1.1134520e+03   3.4067200e-01
   1.1139340e+03   2.5955200e-01
   1.1144160e+03   2.4610800e-01
   1.1148980e+03   4.1581700e-01
   1.1153800e+03   6.1185600e-01
   1.1158630e+03   6.5613000e-01
   1.1163450e+03   5.1503800e-01
   1.1168270e+03   3.3424300e-01
   1.1173090e+03   8.4576003e-02
   1.1177910e+03   7.2867997e-02
   1.1182730e+03   1.3323000e-02
   1.1187550e+03   1.3280700e-01
   1.1192370e+03   1.8351000e-01
   1.1197190e+03   1.7384100e-01
   1.1202020e+03   1.7063600e-01
   1.1206840e+03   1.6524900e-01
   1.1211660e+03   2.3241500e-01
   1.1216480e+03   4.3500500e-01
   1.1221300e+03   5.8315500e-01
   1.1226120e+03   4.5872800e-01
   1.1230940e+03   1.7471100e-01
   1.1235760e+03   5.0682999e-02
   1.1240580e+03   6.5021999e-02
   1.1245410e+03   9.4253004e-02
   1.1250230e+03   9.9110000e-02
   1.1255050e+03   8.9791000e-02
   1.1259870e+03   5.5604000e-02
   1.1264690e+03   2.4664000e-02
   1.1269510e+03   4.8836000e-02
   1.1274330e+03   1.1504100e-01
   1.1279150e+03   1.1978000e-01
   1.1283980e+03   5.6212999e-02
   1.1288800e+03   3.0064000e-02
   1.1293620e+03   1.6158900e-01
   1.1298440e+03   2.9670300e-01
   1.1303260e+03   3.5577900e-01
   1.1308080e+03   3.5524800e-01
   1.1312900e+03   3.2243700e-01
   1.1317720e+03   2.5695200e-01
   1.1322550e+03   2.1530800e-01
   1.1327370e+03   2.1431100e-01
   1.1332190e+03   2.1136000e-01
   1.1337010e+03   1.4707500e-01
   1.1341830e+03   7.9737000e-02
   1.1346650e+03   7.0596002e-02
   1.1351470e+03   1.2063100e-01
   1.1356290e+03   1.4449200e-01
   1.1361110e+03   1.3900300e-01
   1.1365940e+03   1.2729000e-01
   1.1370760e+03   1.2080700e-01
   1.1375580e+03   1.0459600e-01
   1.1380400e+03   5.3066000e-02
   1.1385220e+03   1.4181000e-02
   1.1390040e+03   7.9974003e-02
   1.1394860e+03   1.6239300e-01
   1.1399680e+03   1.4649300e-01
   1.1404500e+03   6.7750001e-03
   1.1409330e+03   1.4899300e-01
   1.1414150e+03   2.0358900e-01
   1.1418970e+03   1.9351100e-01
   1.1423790e+03   1.2922400e-01
   1.1428610e+03   4.0015001e-02
   1.1433430e+03   7.6120002e-03
   1.1438250e+03   5.3392999e-02
   1.1443070e+03   8.5359998e-02
   1.1447900e+03   6.1539002e-02
   1.1452720e+03   3.4565002e-02
   1.1457540e+03   6.3294999e-02
   1.1462360e+03   1.2126400e-01
   1.1467180e+03   1.1283300e-01
   1.1472000e+03   5.1771998e-02
   1.1476820e+03   6.7130001e-03
   1.1481640e+03   2.1699000e-02
   1.1486460e+03   4.3150000e-02
   1.1491290e+03   5.8933001e-02
   1.1496110e+03   7.3868997e-02
   1.1500930e+03   8.5818000e-02
   1.1505750e+03   1.0051800e-01
   1.1510570e+03   1.7981300e-01
   1.1515390e+03   3.1975300e-01
   1.1520210e+03   3.9042600e-01
   1.1525030e+03   2.5216100e-01
   1.1529850e+03   9.5339999e-02
   1.1534680e+03   7.7430001e-03
   1.1539500e+03   6.1809000e-02
   1.1544320e+03   6.1930999e-02
   1.1549140e+03   1.4017000e-02
   1.1553960e+03   1.8119000e-02
   1.1558780e+03   2.2356000e-02
   1.1563600e+03   3.6237001e-02
   1.1568420e+03   1.1936900e-01
   1.1573250e+03   1.9502900e-01
   1.1578070e+03   1.8678200e-01
   1.1582890e+03   1.2012900e-01
   1.1587710e+03   1.0707400e-01
   1.1592530e+03   1.4929700e-01
   1.1597350e+03   2.0390600e-01
   1.1602170e+03   2.6747500e-01
   1.1606990e+03   3.1162700e-01
   1.1611820e+03   3.0084000e-01
   1.1616640e+03   2.6656700e-01
   1.1621460e+03   2.4640900e-01
   1.1626280e+03   2.4529600e-01
   1.1631100e+03   1.6982800e-01
   1.1635920e+03   7.5800001e-04
   1.1640740e+03   5.9737001e-02
   1.1645560e+03   1.2782800e-01
   1.1650380e+03   3.5210800e-01
   1.1655210e+03   3.4293800e-01
   1.1660030e+03   2.1136600e-01
   1.1664850e+03   1.1849600e-01
   1.1669670e+03   8.3301000e-02
   1.1674490e+03   1.2550900e-01
   1.1679310e+03   2.7415800e-01
   1.1684130e+03   3.6631100e-01
   1.1688950e+03   2.6305700e-01
   1.1693770e+03   9.9386998e-02
   1.1698600e+03   6.4158000e-02
   1.1703420e+03   1.1676200e-01
   1.1708240e+03   1.8677400e-01
   1.1713060e+03   3.0420500e-01
   1.1717880e+03   3.3943100e-01
   1.1722700e+03   2.6583800e-01
   1.1727520e+03   1.8654700e-01
   1.1732340e+03   1.9463500e-01
   1.1737170e+03   2.4005400e-01
   1.1741990e+03   2.1015200e-01
   1.1746810e+03   1.4023600e-01
   1.1751630e+03   1.3501600e-01
   1.1756450e+03   3.3916700e-01
   1.1761270e+03   4.2067800e-01
   1.1766090e+03   3.0908100e-01
   1.1770910e+03   1.7669100e-01
   1.1775730e+03   2.3776600e-01
   1.1780560e+03   3.8615000e-01
   1.1785380e+03   3.7383700e-01
   1.1790200e+03   2.2467700e-01
   1.1795020e+03   1.1753600e-01
   1.1799840e+03   1.6453900e-01
   1.1804660e+03   1.8436000e-01
   1.1809480e+03   1.3686700e-01
   1.1814300e+03   7.4483998e-02
   1.1819120e+03   6.2747002e-02
   1.1823950e+03   8.7765001e-02
   1.1828770e+03   1.2377500e-01
   1.1833590e+03   1.6629500e-01
   1.1838410e+03   1.9506800e-01
   1.1843230e+03   1.7600200e-01
   1.1848050e+03   1.7752300e-01
   1.1852870e+03   2.2570700e-01
   1.1857690e+03   2.8984700e-01
   1.1862520e+03   3.2398100e-01
   1.1867340e+03   3.2960700e-01
   1.1872160e+03   3.0608200e-01
   1.1876980e+03   2.5278500e-01
   1.1881800e+03   1.9529100e-01
   1.1886620e+03   9.6528001e-02
   1.1891440e+03   6.4548001e-02
   1.1896260e+03   1.6719000e-01
   1.1901090e+03   3.2596500e-01
   1.1905910e+03   3.4572900e-01
   1.1910730e+03   2.6873500e-01
   1.1915550e+03   2.5022600e-01
   1.1920370e+03   3.2575000e-01
   1.1925190e+03   3.7185200e-01
   1.1930010e+03   3.0781200e-01
   1.1934830e+03   2.1950700e-01
   1.1939650e+03   1.2291500e-01
   1.1944480e+03   4.2822000e-02
   1.1949300e+03   9.9642999e-02
   1.1954120e+03   2.5370900e-01
   1.1958940e+03   3.3563600e-01
   1.1963760e+03   2.7560500e-01
   1.1968580e+03   2.2140300e-01
   1.1973400e+03   2.7186900e-01
   1.1978220e+03   3.2470000e-01
   1.1983040e+03   3.3269000e-01
   1.1987870e+03   2.9812300e-01
   1.1992690e+03   1.9448800e-01
   1.1997510e+03   5.3525001e-02
   1.2002330e+03   9.1121003e-02
   1.2007150e+03   5.1219200e-01
   1.2011970e+03   7.9532900e-01
   1.2016790e+03   5.2702400e-01
   1.2021610e+03   1.9203500e-01
   1.2026440e+03   1.3307900e-01
   1.2031260e+03   2.9730500e-01
   1.2036080e+03   3.0461500e-01
   1.2040900e+03   1.8663700e-01
   1.2045720e+03   1.1609400e-01
   1.2050540e+03   2.1277200e-01
   1.2055360e+03   2.9109100e-01
   1.2060180e+03   2.2282100e-01
   1.2065000e+03   1.3966500e-01
   1.2069830e+03   1.5259700e-01
   1.2074650e+03   2.5005900e-01
   1.2079470e+03   3.0314900e-01
   1.2084290e+03   3.1609100e-01
   1.2089110e+03   3.1812500e-01
   1.2093930e+03   3.3450700e-01
   1.2098750e+03   3.2928100e-01
   1.2103570e+03   2.7381000e-01
   1.2108390e+03   1.9965500e-01
   1.2113220e+03   1.1146300e-01
   1.2118040e+03   1.3128000e-02
   1.2122860e+03   4.6156999e-02
   1.2127680e+03   1.9485700e-01
   1.2132500e+03   3.0821400e-01
   1.2137320e+03   2.8579500e-01
   1.2142140e+03   2.2950300e-01
   1.2146960e+03   1.3001200e-01
   1.2151790e+03   5.9250999e-02
   1.2156610e+03   1.3546400e-01
   1.2161430e+03   3.3230300e-01
   1.2166250e+03   3.2708600e-01
   1.2171070e+03   1.3768500e-01
   1.2175890e+03   3.0637000e-02
   1.2180710e+03   3.1072000e-01
   1.2185530e+03   5.0643900e-01
   1.2190360e+03   3.6774800e-01
   1.2195180e+03   1.0994500e-01
   1.2200000e+03   3.2535002e-02
   1.2204820e+03   6.8295002e-02
   1.2209640e+03   5.0755002e-02
   1.2214460e+03   8.4889997e-03
   1.2219280e+03   3.8394999e-02
   1.2224100e+03   5.6315999e-02
   1.2228920e+03   9.8471999e-02
   1.2233750e+03   1.6670000e-02
   1.2238570e+03   1.7987900e-01
   1.2243390e+03   2.3589000e-01
   1.2248210e+03   2.0302400e-01
   1.2253030e+03   1.8275900e-01
   1.2257850e+03   1.8180400e-01
   1.2262670e+03   1.8084800e-01
   1.2267490e+03   1.7067800e-01
   1.2272310e+03   1.5711200e-01
   1.2277140e+03   1.4278400e-01
   1.2281960e+03   1.2622900e-01
   1.2286780e+03   9.4653003e-02
   1.2291600e+03   5.7785999e-02
   1.2296420e+03   6.4306997e-02
   1.2301240e+03   1.1637400e-01
   1.2306060e+03   1.5955700e-01
   1.2310880e+03   1.4624800e-01
   1.2315710e+03   1.4685600e-01
   1.2320530e+03   1.8487200e-01
   1.2325350e+03   2.4482600e-01
   1.2330170e+03   3.2136300e-01
   1.2334990e+03   3.9660400e-01
   1.2339810e+03   3.9571800e-01
   1.2344630e+03   3.1296800e-01
   1.2349450e+03   2.5335400e-01
   1.2354270e+03   3.1793400e-01
   1.2359100e+03   3.2948900e-01
   1.2363920e+03   1.9934200e-01
   1.2368740e+03   5.4763999e-02
   1.2373560e+03   2.0370400e-01
   1.2378380e+03   5.0033800e-01
   1.2383200e+03   5.4439000e-01
   1.2388020e+03   2.8494900e-01
   1.2392840e+03   1.0310400e-01
   1.2397660e+03   2.1233400e-01
   1.2402490e+03   2.9638800e-01
   1.2407310e+03   2.6898600e-01
   1.2412130e+03   2.0006500e-01
   1.2416950e+03   2.1378400e-01
   1.2421770e+03   2.7269100e-01
   1.2426590e+03   2.9800700e-01
   1.2431410e+03   2.7665900e-01
   1.2436230e+03   2.5722000e-01
   1.2441060e+03   2.1976800e-01
   1.2445880e+03   2.5743500e-01
   1.2450700e+03   4.4463300e-01
   1.2455520e+03   6.2479900e-01
   1.2460340e+03   4.7868100e-01
   1.2465160e+03   1.8360200e-01
   1.2469980e+03   4.9501002e-02
   1.2474800e+03   1.2787900e-01
   1.2479630e+03   1.3955400e-01
   1.2484450e+03   2.3610000e-03
   1.2489270e+03   4.5478001e-02
   1.2494090e+03   1.2183400e-01
   1.2498910e+03   3.2393000e-01
   1.2503730e+03   2.5746200e-01
   1.2508550e+03   8.8712998e-02
   1.2513370e+03   5.8061998e-02
   1.2518190e+03   2.0990300e-01
   1.2523020e+03   2.6656700e-01
   1.2527840e+03   1.8472100e-01
   1.2532660e+03   1.4817600e-01
   1.2537480e+03   2.3463600e-01
   1.2542300e+03   3.4315700e-01
   1.2547120e+03   3.7863700e-01
   1.2551940e+03   3.4704500e-01
   1.2556760e+03   2.0638100e-01
   1.2561580e+03   4.8696999e-02
   1.2566410e+03   6.0306001e-02
   1.2571230e+03   2.1641500e-01
   1.2576050e+03   3.6848200e-01
   1.2580870e+03   2.5764600e-01
   1.2585690e+03   1.1761200e-01
   1.2590510e+03   2.3156700e-01
   1.2595330e+03   4.1753300e-01
   1.2600150e+03   4.2696700e-01
   1.2604980e+03   2.7734400e-01
   1.2609800e+03   2.6644800e-01
   1.2614620e+03   3.9660000e-01
   1.2619440e+03   4.5330300e-01
   1.2624260e+03   3.4813500e-01
   1.2629080e+03   2.4647100e-01
   1.2633900e+03   3.2431300e-01
   1.2638720e+03   4.2194700e-01
   1.2643540e+03   4.0177700e-01
   1.2648370e+03   2.8489600e-01
   1.2653190e+03   1.9705800e-01
   1.2658010e+03   1.3782000e-01
   1.2662830e+03   1.1729500e-01
   1.2667650e+03   1.3622700e-01
   1.2672470e+03   1.9697500e-01
   1.2677290e+03   3.5729500e-01
   1.2682110e+03   5.0493000e-01
   1.2686930e+03   5.7897400e-01
   1.2691760e+03   5.8590200e-01
   1.2696580e+03   5.0915500e-01
   1.2701400e+03   3.8105200e-01
   1.2706220e+03   3.5558900e-01
   1.2711040e+03   5.0027000e-01
   1.2715860e+03   6.1787400e-01
   1.2720680e+03   6.5122800e-01
   1.2725500e+03   5.9878900e-01
   1.2730330e+03   3.8197100e-01
   1.2735150e+03   1.1316000e-01
   1.2739970e+03   8.5293002e-02
   1.2744790e+03   2.2738000e-01
   1.2749610e+03   3.6800000e-01
   1.2754430e+03   4.6286700e-01
   1.2759250e+03   5.0670400e-01
   1.2764070e+03   5.1654400e-01
   1.2768900e+03   4.8495200e-01
   1.2773720e+03   3.9893500e-01
   1.2778540e+03   2.9821400e-01
   1.2783360e+03   2.3782100e-01
   1.2788180e+03   2.2209100e-01
   1.2793000e+03   2.8038300e-01
   1.2797820e+03   4.4380300e-01
   1.2802640e+03   4.9039100e-01
   1.2807460e+03   3.7924400e-01
   1.2812290e+03   2.5410800e-01
   1.2817110e+03   1.5105200e-01
   1.2821930e+03   9.2471004e-02
   1.2826750e+03   1.4532900e-01
   1.2831570e+03   2.3839000e-01
   1.2836390e+03   2.7758800e-01
   1.2841210e+03   2.4872600e-01
   1.2846030e+03   2.4007500e-01
   1.2850850e+03   2.5617100e-01
   1.2855680e+03   2.6577100e-01
   1.2860500e+03   2.5789300e-01
   1.2865320e+03   2.3626600e-01
   1.2870140e+03   1.9694700e-01
   1.2874960e+03   1.5132700e-01
   1.2879780e+03   9.5007002e-02
   1.2884600e+03   3.7353002e-02
   1.2889420e+03   7.7307999e-02
   1.2894250e+03   2.0571400e-01
   1.2899070e+03   2.5187200e-01
   1.2903890e+03   1.4396100e-01
   1.2908710e+03   3.8038000e-02
   1.2913530e+03   5.1686000e-02
   1.2918350e+03   8.1145003e-02
   1.2923170e+03   5.3596001e-02
   1.2927990e+03   4.7010002e-03
   1.2932810e+03   6.5876998e-02
   1.2937640e+03   1.0470200e-01
   1.2942460e+03   0.0000000e+00
   1.5000000e+03   0.0000000e+00
