   1.0000000e+02   0.0000000e+00
   1.6894650e+02   0.0000000e+00
   1.6942860e+02   9.3277340e+01
   1.6991070e+02   1.5205080e+02
   1.7039290e+02   1.7675390e+02
   1.7087500e+02   2.0420310e+02
   1.7135710e+02   2.6803910e+02
   1.7183920e+02   3.3272660e+02
   1.7232130e+02   3.5296090e+02
   1.7280340e+02   3.0907810e+02
   1.7328560e+02   2.5426950e+02
   1.7376770e+02   2.4829690e+02
   1.7424980e+02   2.7392190e+02
   1.7473190e+02   2.8601170e+02
   1.7521400e+02   2.6080470e+02
   1.7569610e+02   2.0558980e+02
   1.7617830e+02   1.6391800e+02
   1.7666040e+02   1.5037500e+02
   1.7714250e+02   1.4201170e+02
   1.7762460e+02   1.0144530e+02
   1.7810670e+02   3.4339840e+01
   1.7858880e+02   2.0089840e+01
   1.7907100e+02   2.0578120e+01
   1.7955310e+02   1.2042970e+01
   1.8003520e+02   2.9097660e+01
   1.8051730e+02   8.5937500e+00
   1.8099940e+02   2.3125000e+01
   1.8148150e+02   3.0777340e+01
   1.8196370e+02   1.3820310e+01
   1.8244580e+02   3.0460940e+01
   1.8292790e+02   1.3206250e+02
   1.8341000e+02   2.7104690e+02
   1.8389210e+02   3.7147270e+02
   1.8437420e+02   3.8342190e+02
   1.8485640e+02   3.5556640e+02
   1.8533850e+02   4.0283980e+02
   1.8582060e+02   5.2969920e+02
   1.8630270e+02   6.8828520e+02
   1.8678480e+02   8.3590230e+02
   1.8726690e+02   9.7426560e+02
   1.8774910e+02   1.1235820e+03
   1.8823120e+02   1.2988440e+03
   1.8871330e+02   1.4898710e+03
   1.8919540e+02   1.6628280e+03
   1.8967750e+02   1.8143320e+03
   1.9015960e+02   1.9563910e+03
   1.9064180e+02   2.0904920e+03
   1.9112390e+02   2.2172150e+03
   1.9160600e+02   2.3855230e+03
   1.9208810e+02   2.6431210e+03
   1.9257020e+02   2.9754530e+03
   1.9305240e+02   3.2750590e+03
   1.9353450e+02   3.5597340e+03
   1.9401660e+02   3.7643710e+03
   1.9449870e+02   3.7723200e+03
   1.9498080e+02   3.5772300e+03
   1.9546290e+02   3.2797500e+03
   1.9594510e+02   2.8809220e+03
   1.9642720e+02   2.3798550e+03
   1.9690930e+02   1.9776990e+03
   1.9739140e+02   1.6980510e+03
   1.9787350e+02   1.4900590e+03
   1.9835560e+02   1.2519570e+03
   1.9883780e+02   9.7477730e+02
   1.9931990e+02   7.2778910e+02
   1.9980200e+02   5.5216020e+02
   2.0028410e+02   4.5174220e+02
   2.0076620e+02   3.8316800e+02
   2.0124830e+02   3.4966020e+02
   2.0173050e+02   3.4154300e+02
   2.0221260e+02   3.3396090e+02
   2.0269470e+02   3.2382030e+02
   2.0317680e+02   3.2570700e+02
   2.0365890e+02   3.5992190e+02
   2.0414100e+02   4.3508980e+02
   2.0462320e+02   4.7234380e+02
   2.0510530e+02   4.5284770e+02
   2.0558740e+02   3.9612110e+02
   2.0606950e+02   3.6373830e+02
   2.0655160e+02   3.5521880e+02
   2.0703370e+02   3.7234770e+02
   2.0751590e+02   4.2698440e+02
   2.0799800e+02   5.2925780e+02
   2.0848010e+02   6.1001950e+02
   2.0896220e+02   6.5467190e+02
   2.0944430e+02   6.7146480e+02
   2.0992640e+02   6.9853520e+02
   2.1040860e+02   7.3416020e+02
   2.1089070e+02   7.8385940e+02
   2.1137280e+02   8.5955470e+02
   2.1185490e+02   9.7967580e+02
   2.1233700e+02   1.0659140e+03
   2.1281910e+02   1.1040470e+03
   2.1330130e+02   1.0974060e+03
   2.1378340e+02   1.0780470e+03
   2.1426550e+02   1.0416840e+03
   2.1474760e+02   9.9960550e+02
   2.1522970e+02   9.6722660e+02
   2.1571180e+02   9.6091020e+02
   2.1619400e+02   9.1633200e+02
   2.1667610e+02   8.0616800e+02
   2.1715820e+02   6.3496880e+02
   2.1764030e+02   5.1082810e+02
   2.1812240e+02   4.4334770e+02
   2.1860450e+02   4.1094140e+02
   2.1908670e+02   3.9865620e+02
   2.1956880e+02   4.1824610e+02
   2.2005090e+02   4.3009770e+02
   2.2053300e+02   4.2830080e+02
   2.2101510e+02   4.1373440e+02
   2.2149720e+02   3.6946880e+02
   2.2197940e+02   2.7413670e+02
   2.2246150e+02   1.7301170e+02
   2.2294360e+02   1.1527340e+02
   2.2342570e+02   1.1579300e+02
   2.2390780e+02   1.3114450e+02
   2.2438990e+02   1.5831640e+02
   2.2487210e+02   2.0139840e+02
   2.2535420e+02   2.1428120e+02
   2.2583630e+02   1.8395700e+02
   2.2631840e+02   1.3631250e+02
   2.2680050e+02   9.3253910e+01
   2.2728270e+02   4.8722660e+01
   2.2776480e+02   3.7644530e+01
   2.2824690e+02   8.1753910e+01
   2.2872900e+02   1.9316020e+02
   2.2921110e+02   2.6057030e+02
   2.2969320e+02   2.6504690e+02
   2.3017540e+02   2.3940620e+02
   2.3065750e+02   2.2771880e+02
   2.3113960e+02   2.4066410e+02
   2.3162170e+02   2.4786330e+02
   2.3210380e+02   2.3842580e+02
   2.3258590e+02   2.0744530e+02
   2.3306810e+02   1.8619530e+02
   2.3355020e+02   1.7543360e+02
   2.3403230e+02   1.7366410e+02
   2.3451440e+02   1.7954690e+02
   2.3499650e+02   1.9333590e+02
   2.3547860e+02   2.1456250e+02
   2.3596080e+02   2.4850390e+02
   2.3644290e+02   3.0037500e+02
   2.3692500e+02   3.3385940e+02
   2.3740710e+02   3.4457420e+02
   2.3788920e+02   3.3914060e+02
   2.3837130e+02   3.3055470e+02
   2.3885350e+02   3.1344920e+02
   2.3933560e+02   2.9094530e+02
   2.3981770e+02   2.6521880e+02
   2.4029980e+02   2.3120700e+02
   2.4078190e+02   2.1212110e+02
   2.4126400e+02   2.0685550e+02
   2.4174620e+02   2.1762890e+02
   2.4222830e+02   2.5130470e+02
   2.4271040e+02   3.2304300e+02
   2.4319250e+02   3.9260550e+02
   2.4367460e+02   4.4406250e+02
   2.4415670e+02   4.6791020e+02
   2.4463890e+02   5.0656250e+02
   2.4512100e+02   5.5650780e+02
   2.4560310e+02   6.2283980e+02
   2.4608520e+02   7.1960160e+02
   2.4656730e+02   8.7370700e+02
   2.4704940e+02   1.0119450e+03
   2.4753160e+02   1.1008710e+03
   2.4801370e+02   1.1113980e+03
   2.4849580e+02   1.1711170e+03
   2.4897790e+02   1.3014100e+03
   2.4946000e+02   1.4700860e+03
   2.4994210e+02   1.6083120e+03
   2.5042430e+02   1.6915470e+03
   2.5090640e+02   1.7842150e+03
   2.5138850e+02   1.9077580e+03
   2.5187060e+02   2.0632890e+03
   2.5235270e+02   2.2575940e+03
   2.5283480e+02   2.4967150e+03
   2.5331700e+02   2.7698710e+03
   2.5379910e+02   3.0554840e+03
   2.5428120e+02   3.3452810e+03
   2.5476330e+02   3.6565780e+03
   2.5524540e+02   4.0011880e+03
   2.5572750e+02   4.3857930e+03
   2.5620970e+02   4.7600740e+03
   2.5669180e+02   5.0928670e+03
   2.5717390e+02   5.4318240e+03
   2.5765600e+02   5.8665940e+03
   2.5813810e+02   6.4003870e+03
   2.5862020e+02   7.0279450e+03
   2.5910240e+02   7.7825940e+03
   2.5958450e+02   8.7065740e+03
   2.6006660e+02   9.5955120e+03
   2.6054870e+02   1.0615520e+04
   2.6103080e+02   1.1470600e+04
   2.6151290e+02   1.1630700e+04
   2.6199510e+02   1.0973170e+04
   2.6247720e+02   9.9035390e+03
   2.6295930e+02   8.4729060e+03
   2.6344140e+02   6.5219840e+03
   2.6392350e+02   4.9120200e+03
   2.6440560e+02   3.6517580e+03
   2.6488780e+02   2.7094730e+03
   2.6536990e+02   2.0297730e+03
   2.6585200e+02   1.6579020e+03
   2.6633410e+02   1.3924650e+03
   2.6681620e+02   1.1629380e+03
   2.6729830e+02   9.7030860e+02
   2.6778050e+02   8.1858200e+02
   2.6826260e+02   7.1332420e+02
   2.6874470e+02   6.4714840e+02
   2.6922680e+02   6.1083590e+02
   2.6970890e+02   6.1268750e+02
   2.7019100e+02   5.9969140e+02
   2.7067320e+02   5.4248830e+02
   2.7115530e+02   4.3525000e+02
   2.7163740e+02   3.4609380e+02
   2.7211950e+02   2.6317190e+02
   2.7260160e+02   2.0807030e+02
   2.7308370e+02   2.3326560e+02
   2.7356590e+02   3.6145310e+02
   2.7404800e+02   4.5490620e+02
   2.7453010e+02   4.3971090e+02
   2.7501220e+02   3.0987110e+02
   2.7549430e+02   2.4858590e+02
   2.7597640e+02   2.7474220e+02
   2.7645860e+02   3.3391410e+02
   2.7694070e+02   3.4081250e+02
   2.7742280e+02   2.8836720e+02
   2.7790490e+02   2.4012110e+02
   2.7838700e+02   2.2767970e+02
   2.7886910e+02   2.4847270e+02
   2.7935130e+02   2.3882030e+02
   2.7983340e+02   1.9061720e+02
   2.8031550e+02   1.3273050e+02
   2.8079760e+02   9.8234380e+01
   2.8127980e+02   8.6843750e+01
   2.8176190e+02   1.0419530e+02
   2.8224400e+02   1.7800390e+02
   2.8272610e+02   2.9326950e+02
   2.8320820e+02   3.1684770e+02
   2.8369030e+02   2.2836720e+02
   2.8417250e+02   1.2314060e+02
   2.8465460e+02   1.4907030e+02
   2.8513670e+02   2.9879300e+02
   2.8561880e+02   3.9078520e+02
   2.8610090e+02   3.1811330e+02
   2.8658300e+02   1.3152340e+02
   2.8706520e+02   6.0824220e+01
   2.8754730e+02   1.1870310e+02
   2.8802940e+02   2.1785940e+02
   2.8851150e+02   2.7012500e+02
   2.8899360e+02   2.7936330e+02
   2.8947570e+02   2.7514060e+02
   2.8995790e+02   2.7251560e+02
   2.9044000e+02   2.6260940e+02
   2.9092210e+02   2.0792970e+02
   2.9140420e+02   1.0429300e+02
   2.9188630e+02   8.2226560e+00
   2.9236840e+02   1.7148440e+01
   2.9285060e+02   1.6257810e+01
   2.9333270e+02   5.9035160e+01
   2.9381480e+02   1.1447270e+02
   2.9429690e+02   1.5944140e+02
   2.9477900e+02   1.2984770e+02
   2.9526110e+02   2.5550780e+01
   2.9574330e+02   6.9285160e+01
   2.9622540e+02   6.4925780e+01
   2.9670750e+02   9.2109380e+00
   2.9718960e+02   6.8277340e+01
   2.9767170e+02   8.6062500e+01
   2.9815380e+02   8.0265620e+01
   2.9863600e+02   7.2234380e+01
   2.9911810e+02   6.2523440e+01
   2.9960020e+02   5.3433590e+01
   3.0008230e+02   4.6332030e+01
   3.0056440e+02   4.1542970e+01
   3.0104650e+02   3.9960940e+01
   3.0152870e+02   4.1843750e+01
   3.0201080e+02   4.6953120e+01
   3.0249290e+02   6.1207030e+01
   3.0297500e+02   8.1757810e+01
   3.0345710e+02   8.9085940e+01
   3.0393920e+02   5.8011720e+01
   3.0442140e+02   9.8359380e+00
   3.0490350e+02   2.5609380e+01
   3.0538560e+02   3.6511720e+01
   3.0586770e+02   4.0808590e+01
   3.0634980e+02   6.1097660e+01
   3.0683190e+02   9.0507810e+01
   3.0731410e+02   1.0390230e+02
   3.0779620e+02   7.6164060e+01
   3.0827830e+02   3.0523440e+01
   3.0876040e+02   1.0812500e+01
   3.0924250e+02   3.8390620e+01
   3.0972460e+02   6.8417970e+01
   3.1020680e+02   1.3216410e+02
   3.1068890e+02   2.0932030e+02
   3.1117100e+02   2.4869920e+02
   3.1165310e+02   1.8651170e+02
   3.1213520e+02   1.0108590e+02
   3.1261730e+02   5.1863280e+01
   3.1309950e+02   5.8074220e+01
   3.1358160e+02   7.2421880e+01
   3.1406370e+02   7.3781250e+01
   3.1454580e+02   6.8101560e+01
   3.1502790e+02   6.6929690e+01
   3.1551000e+02   8.0742190e+01
   3.1599220e+02   9.5656250e+01
   3.1647430e+02   1.0564060e+02
   3.1695640e+02   1.1091800e+02
   3.1743850e+02   1.0738670e+02
   3.1792060e+02   8.3316410e+01
   3.1840270e+02   5.1941410e+01
   3.1888490e+02   3.1753910e+01
   3.1936700e+02   3.1433590e+01
   3.1984910e+02   3.9878910e+01
   3.2033120e+02   6.1132810e+01
   3.2081330e+02   1.0196880e+02
   3.2129540e+02   1.1604690e+02
   3.2177760e+02   6.2765620e+01
   3.2225970e+02   9.0937500e+00
   3.2274180e+02   4.7550780e+01
   3.2322390e+02   1.3031250e+01
   3.2370600e+02   2.3488280e+01
   3.2418810e+02   5.0945310e+01
   3.2467030e+02   6.9664060e+01
   3.2515240e+02   6.8562500e+01
   3.2563450e+02   6.0507810e+00
   3.2611660e+02   5.5445310e+01
   3.2659870e+02   6.5125000e+01
   3.2708080e+02   6.1277340e+01
   3.2756300e+02   1.3976560e+02
   3.2804510e+02   1.1468750e+02
   3.2852720e+02   5.8750000e+00
   3.2900930e+02   4.1562500e+01
   3.2949140e+02   8.2109380e+01
   3.2997350e+02   2.2266410e+02
   3.3045570e+02   2.8378520e+02
   3.3093780e+02   2.0488280e+02
   3.3141990e+02   1.5259380e+02
   3.3190200e+02   1.4885160e+02
   3.3238410e+02   1.8316800e+02
   3.3286620e+02   2.0544530e+02
   3.3334840e+02   2.1417580e+02
   3.3383050e+02   2.1217580e+02
   3.3431260e+02   1.9652340e+02
   3.3479470e+02   1.5489060e+02
   3.3527680e+02   1.3598440e+02
   3.3575890e+02   1.4098830e+02
   3.3624110e+02   1.7065620e+02
   3.3672320e+02   2.4192970e+02
   3.3720530e+02   3.7786330e+02
   3.3768740e+02   4.8543360e+02
   3.3816950e+02   5.0677730e+02
   3.3865160e+02   4.2752340e+02
   3.3913380e+02   3.8625000e+02
   3.3961590e+02   3.9484380e+02
   3.4009800e+02   4.2666410e+02
   3.4058010e+02   4.3585160e+02
   3.4106220e+02   4.2094140e+02
   3.4154430e+02   4.0250000e+02
   3.4202650e+02   3.8491020e+02
   3.4250860e+02   3.6688280e+02
   3.4299070e+02   3.9185160e+02
   3.4347280e+02   4.7777340e+02
   3.4395490e+02   5.7045310e+02
   3.4443700e+02   5.8754300e+02
   3.4491920e+02   5.3817970e+02
   3.4540130e+02   5.0837110e+02
   3.4588340e+02   5.3823050e+02
   3.4636550e+02   6.0729690e+02
   3.4684760e+02   6.5753520e+02
   3.4732970e+02   6.8805860e+02
   3.4781190e+02   7.2006640e+02
   3.4829400e+02   7.8963280e+02
   3.4877610e+02   8.7911330e+02
   3.4925820e+02   9.2823050e+02
   3.4974030e+02   8.9532810e+02
   3.5022250e+02   8.3738670e+02
   3.5070460e+02   8.4062890e+02
   3.5118670e+02   9.0102340e+02
   3.5166880e+02   9.7833590e+02
   3.5215090e+02   1.0690620e+03
   3.5263310e+02   1.1505080e+03
   3.5311520e+02   1.1835310e+03
   3.5359730e+02   1.1355940e+03
   3.5407940e+02   1.0786130e+03
   3.5456150e+02   1.0880120e+03
   3.5504360e+02   1.1411720e+03
   3.5552580e+02   1.1784530e+03
   3.5600790e+02   1.1394960e+03
   3.5649000e+02   1.0799020e+03
   3.5697210e+02   1.0631130e+03
   3.5745420e+02   1.1071520e+03
   3.5793630e+02   1.1634180e+03
   3.5841850e+02   1.2287500e+03
   3.5890060e+02   1.2854800e+03
   3.5938270e+02   1.3034100e+03
   3.5986480e+02   1.2143750e+03
   3.6034690e+02   1.1261170e+03
   3.6082900e+02   1.1121600e+03
   3.6131120e+02   1.1937380e+03
   3.6179330e+02   1.2404180e+03
   3.6227540e+02   1.1787660e+03
   3.6275750e+02   1.0725860e+03
   3.6323960e+02   9.9562890e+02
   3.6372170e+02   9.5925780e+02
   3.6420390e+02   9.4990620e+02
   3.6468600e+02   9.8751950e+02
   3.6516810e+02   1.0743630e+03
   3.6565020e+02   1.1287150e+03
   3.6613230e+02   1.1385740e+03
   3.6661440e+02   1.1161520e+03
   3.6709660e+02   1.0679100e+03
   3.6757870e+02   9.3392580e+02
   3.6806080e+02   8.4911720e+02
   3.6854290e+02   8.5137110e+02
   3.6902500e+02   9.1902340e+02
   3.6950710e+02   9.3973440e+02
   3.6998930e+02   8.9278520e+02
   3.7047140e+02   8.2303910e+02
   3.7095350e+02   7.4851170e+02
   3.7143560e+02   6.5970310e+02
   3.7191770e+02   5.8692970e+02
   3.7239980e+02   5.2453910e+02
   3.7288200e+02   4.8158590e+02
   3.7336410e+02   4.8958200e+02
   3.7384620e+02   5.7768360e+02
   3.7432830e+02   6.4027730e+02
   3.7481040e+02   6.1965620e+02
   3.7529250e+02   5.0476170e+02
   3.7577470e+02   4.4644140e+02
   3.7625680e+02   4.6168750e+02
   3.7673890e+02   4.9951560e+02
   3.7722100e+02   4.7576170e+02
   3.7770310e+02   3.8331640e+02
   3.7818520e+02   3.3617190e+02
   3.7866740e+02   3.9682030e+02
   3.7914950e+02   5.2916800e+02
   3.7963160e+02   5.6989060e+02
   3.8011370e+02   5.0921480e+02
   3.8059580e+02   4.2945310e+02
   3.8107790e+02   4.1480860e+02
   3.8156010e+02   4.5289060e+02
   3.8204220e+02   4.8403910e+02
   3.8252430e+02   5.0251560e+02
   3.8300640e+02   5.0003910e+02
   3.8348850e+02   4.4933590e+02
   3.8397060e+02   3.5425780e+02
   3.8445280e+02   2.6391800e+02
   3.8493490e+02   2.0617580e+02
   3.8541700e+02   1.7622270e+02
   3.8589910e+02   1.7987110e+02
   3.8638120e+02   2.2941410e+02
   3.8686330e+02   2.7208980e+02
   3.8734550e+02   2.3785940e+02
   3.8782760e+02   1.6001560e+02
   3.8830970e+02   1.2076950e+02
   3.8879180e+02   2.1302730e+02
   3.8927390e+02   3.2762110e+02
   3.8975600e+02   3.7423830e+02
   3.9023820e+02   3.4196480e+02
   3.9072030e+02   2.8951170e+02
   3.9120240e+02   2.1846880e+02
   3.9168450e+02   1.5475000e+02
   3.9216660e+02   1.2810550e+02
   3.9264870e+02   1.9296480e+02
   3.9313090e+02   2.5528520e+02
   3.9361300e+02   2.7716410e+02
   3.9409510e+02   2.6109380e+02
   3.9457720e+02   2.3553520e+02
   3.9505930e+02   1.8554690e+02
   3.9554140e+02   1.4169530e+02
   3.9602360e+02   1.2294140e+02
   3.9650570e+02   1.6124610e+02
   3.9698780e+02   1.9006250e+02
   3.9746990e+02   2.1829300e+02
   3.9795200e+02   2.3433980e+02
   3.9843410e+02   1.9953520e+02
   3.9891630e+02   3.0546880e+01
   3.9939840e+02   1.0247270e+02
   3.9988050e+02   1.2546880e+02
   4.0036260e+02   1.9800780e+01
   4.0084470e+02   9.9398440e+01
   4.0132680e+02   8.2734380e+01
   4.0180900e+02   2.2890620e+01
   4.0229110e+02   4.4453130e+00
   4.0277320e+02   1.1972660e+01
   4.0325530e+02   3.1566410e+01
   4.0373740e+02   4.6324220e+01
   4.0421950e+02   5.5957030e+01
   4.0470170e+02   5.3597660e+01
   4.0518380e+02   3.6820310e+01
   4.0566590e+02   1.4867190e+01
   4.0614800e+02   8.5781250e+00
   4.0663010e+02   3.3789060e+01
   4.0711220e+02   4.1421880e+01
   4.0759440e+02   2.1945310e+01
   4.0807650e+02   1.1054690e+01
   4.0855860e+02   2.0187500e+01
   4.0904070e+02   6.1640630e+00
   4.0952280e+02   3.3828130e+00
   4.1000490e+02   1.1437500e+01
   4.1048710e+02   4.4484380e+01
   4.1096920e+02   8.8085940e+01
   4.1145130e+02   1.4920310e+02
   4.1193340e+02   1.9015620e+02
   4.1241550e+02   1.2696090e+02
   4.1289760e+02   2.8671880e+00
   4.1337980e+02   5.7703120e+01
   4.1386190e+02   8.4062500e+01
   4.1434400e+02   2.6965620e+02
   4.1482610e+02   3.2478120e+02
   4.1530820e+02   2.4607030e+02
   4.1579030e+02   1.4560160e+02
   4.1627250e+02   7.0843750e+01
   4.1675460e+02   2.4593750e+01
   4.1723670e+02   1.0710940e+01
   4.1771880e+02   5.6937500e+01
   4.1820090e+02   1.0619530e+02
   4.1868300e+02   1.4311720e+02
   4.1916520e+02   1.6450780e+02
   4.1964730e+02   1.5550000e+02
   4.2012940e+02   5.9437500e+01
   4.2061150e+02   2.9742190e+01
   4.2109370e+02   5.6421880e+01
   4.2157580e+02   2.0117190e+01
   4.2205790e+02   8.6921880e+01
   4.2254000e+02   1.3501560e+02
   4.2302210e+02   1.6380470e+02
   4.2350420e+02   1.7321880e+02
   4.2398640e+02   1.2311720e+02
   4.2446850e+02   9.9054690e+01
   4.2495060e+02   1.3959380e+02
   4.2543270e+02   2.5377340e+02
   4.2591480e+02   2.9342190e+02
   4.2639690e+02   2.0026560e+02
   4.2687910e+02   9.9835940e+01
   4.2736120e+02   1.1686720e+02
   4.2784330e+02   3.1236720e+02
   4.2832540e+02   4.2934380e+02
   4.2880750e+02   3.9964060e+02
   4.2928960e+02   2.7943750e+02
   4.2977180e+02   2.6990620e+02
   4.3025390e+02   3.8915620e+02
   4.3073600e+02   5.2139840e+02
   4.3121810e+02   6.0735940e+02
   4.3170020e+02   6.4757030e+02
   4.3218230e+02   6.3900000e+02
   4.3266450e+02   5.6990620e+02
   4.3314660e+02   4.9070310e+02
   4.3362870e+02   4.8531250e+02
   4.3411080e+02   5.3808590e+02
   4.3459290e+02   5.6925000e+02
   4.3507500e+02   5.3598440e+02
   4.3555720e+02   4.6496090e+02
   4.3603930e+02   3.8631250e+02
   4.3652140e+02   3.0379690e+02
   4.3700350e+02   2.4990620e+02
   4.3748560e+02   2.7604690e+02
   4.3796770e+02   3.3882810e+02
   4.3844990e+02   3.7331250e+02
   4.3893200e+02   3.4404690e+02
   4.3941410e+02   3.1617970e+02
   4.3989620e+02   3.4711720e+02
   4.4037830e+02   4.1642970e+02
   4.4086040e+02   4.7265620e+02
   4.4134260e+02   4.7564840e+02
   4.4182470e+02   4.7124220e+02
   4.4230680e+02   4.9452340e+02
   4.4278890e+02   5.6271090e+02
   4.4327100e+02   5.9332810e+02
   4.4375310e+02   5.4469530e+02
   4.4423530e+02   4.5487500e+02
   4.4471740e+02   3.6649220e+02
   4.4519950e+02   2.5935940e+02
   4.4568160e+02   1.8488280e+02
   4.4616370e+02   1.4861720e+02
   4.4664580e+02   1.5092970e+02
   4.4712800e+02   1.8759380e+02
   4.4761010e+02   3.0332030e+02
   4.4809220e+02   4.0455470e+02
   4.4857430e+02   4.3381250e+02
   4.4905640e+02   3.5900780e+02
   4.4953850e+02   2.9928120e+02
   4.5002070e+02   2.6192190e+02
   4.5050280e+02   2.3689840e+02
   4.5098490e+02   1.9012500e+02
   4.5146700e+02   1.0475780e+02
   4.5194910e+02   8.7085940e+01
   4.5243120e+02   2.2628910e+02
   4.5291340e+02   4.8697660e+02
   4.5339550e+02   5.7336720e+02
   4.5387760e+02   4.6609380e+02
   4.5435970e+02   3.2164060e+02
   4.5484180e+02   3.0842190e+02
   4.5532390e+02   3.9327340e+02
   4.5580610e+02   4.3220310e+02
   4.5628820e+02   3.7430470e+02
   4.5677030e+02   2.8592190e+02
   4.5725240e+02   2.5254690e+02
   4.5773450e+02   2.7095310e+02
   4.5821660e+02   3.1512500e+02
   4.5869880e+02   3.5603910e+02
   4.5918090e+02   4.0066410e+02
   4.5966300e+02   4.6199220e+02
   4.6014510e+02   5.5026560e+02
   4.6062720e+02   6.2966410e+02
   4.6110930e+02   6.7807030e+02
   4.6159150e+02   7.0239060e+02
   4.6207360e+02   7.0948440e+02
   4.6255570e+02   6.7194530e+02
   4.6303780e+02   6.4700780e+02
   4.6351990e+02   6.6556250e+02
   4.6400200e+02   7.2033590e+02
   4.6448420e+02   7.6162500e+02
   4.6496630e+02   7.7730470e+02
   4.6544840e+02   7.8053120e+02
   4.6593050e+02   7.7735160e+02
   4.6641260e+02   7.5976560e+02
   4.6689470e+02   7.4668750e+02
   4.6737690e+02   7.4156250e+02
   4.6785900e+02   7.4030470e+02
   4.6834110e+02   7.3557810e+02
   4.6882320e+02   7.2835160e+02
   4.6930530e+02   7.1451560e+02
   4.6978740e+02   6.9669530e+02
   4.7026960e+02   6.7350780e+02
   4.7075170e+02   6.1760160e+02
   4.7123380e+02   5.1578120e+02
   4.7171590e+02   4.2117970e+02
   4.7219800e+02   3.6320310e+02
   4.7268010e+02   3.4273440e+02
   4.7316230e+02   3.6418750e+02
   4.7364440e+02   4.3942970e+02
   4.7412650e+02   5.2827340e+02
   4.7460860e+02   5.6747660e+02
   4.7509070e+02   5.6140620e+02
   4.7557280e+02   5.3547660e+02
   4.7605500e+02   4.8479690e+02
   4.7653710e+02   4.2808590e+02
   4.7701920e+02   4.0475000e+02
   4.7750130e+02   4.1667190e+02
   4.7798340e+02   4.2007810e+02
   4.7846550e+02   3.5901560e+02
   4.7894770e+02   2.7404690e+02
   4.7942980e+02   2.2250000e+02
   4.7991190e+02   2.3064060e+02
   4.8039400e+02   2.5414060e+02
   4.8087610e+02   2.8150000e+02
   4.8135820e+02   3.0861720e+02
   4.8184040e+02   3.2885160e+02
   4.8232250e+02   3.3035160e+02
   4.8280460e+02   3.0726560e+02
   4.8328670e+02   2.5003120e+02
   4.8376880e+02   1.3671090e+02
   4.8425090e+02   8.9687500e+01
   4.8473310e+02   1.9617970e+02
   4.8521520e+02   3.3379690e+02
   4.8569730e+02   3.8817970e+02
   4.8617940e+02   2.9893750e+02
   4.8666150e+02   2.2743750e+02
   4.8714360e+02   1.9828120e+02
   4.8762580e+02   2.0409380e+02
   4.8810790e+02   2.1231250e+02
   4.8859000e+02   2.2435940e+02
   4.8907210e+02   2.3400000e+02
   4.8955420e+02   2.4242190e+02
   4.9003630e+02   2.5007030e+02
   4.9051850e+02   2.3131250e+02
   4.9100060e+02   1.8171880e+02
   4.9148270e+02   1.1637500e+02
   4.9196480e+02   4.3289060e+01
   4.9244700e+02   2.9460940e+01
   4.9292910e+02   5.1406250e+01
   4.9341120e+02   2.5703120e+01
   4.9389330e+02   1.3572660e+02
   4.9437540e+02   1.6385940e+02
   4.9485750e+02   1.2272660e+02
   4.9533970e+02   8.7617190e+01
   4.9582180e+02   1.2850000e+02
   4.9630390e+02   1.9203120e+02
   4.9678600e+02   2.1380470e+02
   4.9726810e+02   1.7375780e+02
   4.9775020e+02   1.3760940e+02
   4.9823240e+02   1.4801560e+02
   4.9871450e+02   1.8130470e+02
   4.9919660e+02   2.0633590e+02
   4.9967870e+02   2.0989060e+02
   5.0016080e+02   2.0721090e+02
   5.0064290e+02   2.0905470e+02
   5.0112510e+02   2.1367190e+02
   5.0160720e+02   1.9157810e+02
   5.0208930e+02   9.0656250e+01
   5.0257140e+02   7.1484380e+00
   5.0305350e+02   1.1421880e+01
   5.0353560e+02   6.3164060e+01
   5.0401780e+02   1.5493750e+02
   5.0449990e+02   2.7421880e+02
   5.0498200e+02   3.6772660e+02
   5.0546410e+02   3.7666410e+02
   5.0594620e+02   2.8714840e+02
   5.0642830e+02   2.0890620e+02
   5.0691050e+02   1.7291410e+02
   5.0739260e+02   1.7236720e+02
   5.0787470e+02   1.8876560e+02
   5.0835680e+02   2.2367970e+02
   5.0883890e+02   2.4974220e+02
   5.0932100e+02   2.3310940e+02
   5.0980320e+02   1.9262500e+02
   5.1028530e+02   1.8505470e+02
   5.1076740e+02   2.2509380e+02
   5.1124950e+02   2.7885160e+02
   5.1173160e+02   3.0864840e+02
   5.1221370e+02   3.1662500e+02
   5.1269590e+02   3.1800780e+02
   5.1317800e+02   3.4069530e+02
   5.1366010e+02   3.4665620e+02
   5.1414220e+02   2.9950780e+02
   5.1462430e+02   2.0678120e+02
   5.1510640e+02   1.2114060e+02
   5.1558860e+02   3.3687500e+01
   5.1607070e+02   1.9703120e+01
   5.1655280e+02   7.7343750e+00
   5.1703490e+02   1.2714060e+02
   5.1751700e+02   2.1564060e+02
   5.1799910e+02   1.9657810e+02
   5.1848130e+02   1.3934380e+02
   5.1896340e+02   1.3449220e+02
   5.1944550e+02   2.3159380e+02
   5.1992760e+02   2.9454690e+02
   5.2040970e+02   2.8471880e+02
   5.2089180e+02   2.1489840e+02
   5.2137400e+02   1.6924220e+02
   5.2185610e+02   1.4783590e+02
   5.2233820e+02   1.5044530e+02
   5.2282030e+02   1.9339840e+02
   5.2330240e+02   2.7179690e+02
   5.2378450e+02   3.0524220e+02
   5.2426670e+02   2.8142970e+02
   5.2474880e+02   2.4388280e+02
   5.2523090e+02   2.6156250e+02
   5.2571300e+02   3.1450780e+02
   5.2619510e+02   3.2807030e+02
   5.2667720e+02   2.3072660e+02
   5.2715940e+02   1.2585160e+02
   5.2764150e+02   1.7411720e+02
   5.2812360e+02   3.3650780e+02
   5.2860570e+02   4.4300780e+02
   5.2908780e+02   3.4810160e+02
   5.2956990e+02   1.9061720e+02
   5.3005210e+02   6.6398440e+01
   5.3053420e+02   1.4195310e+01
   5.3101630e+02   5.5500000e+01
   5.3149840e+02   4.2500000e+01
   5.3198050e+02   1.8125000e+00
   5.3246260e+02   5.3187500e+01
   5.3294480e+02   1.3989840e+02
   5.3342690e+02   1.9498440e+02
   5.3390900e+02   1.9819530e+02
   5.3439110e+02   1.6293750e+02
   5.3487320e+02   1.3885160e+02
   5.3535530e+02   1.2678120e+02
   5.3583750e+02   1.2524220e+02
   5.3631960e+02   1.3860940e+02
   5.3680170e+02   1.6932030e+02
   5.3728380e+02   1.8215620e+02
   5.3776590e+02   1.8035160e+02
   5.3824800e+02   1.5121880e+02
   5.3873020e+02   3.9632810e+01
   5.3921230e+02   1.3202340e+02
   5.3969440e+02   1.9050000e+02
   5.4017650e+02   6.0023440e+01
   5.4065860e+02   1.2931250e+02
   5.4114070e+02   2.0600780e+02
   5.4162290e+02   1.8852340e+02
   5.4210500e+02   1.4689060e+02
   5.4258710e+02   8.6437500e+01
   5.4306920e+02   4.1343750e+01
   5.4355130e+02   6.0234380e+01
   5.4403340e+02   1.4424220e+02
   5.4451560e+02   2.0833590e+02
   5.4499770e+02   1.8539060e+02
   5.4547980e+02   1.4182030e+02
   5.4596190e+02   1.3260160e+02
   5.4644400e+02   2.2606250e+02
   5.4692610e+02   2.6796880e+02
   5.4740830e+02   1.6692190e+02
   5.4789040e+02   1.5437500e+01
   5.4837250e+02   1.0710940e+01
   5.4885460e+02   2.0285160e+02
   5.4933670e+02   3.5086720e+02
   5.4981880e+02   3.3517190e+02
   5.5030100e+02   1.7153910e+02
   5.5078310e+02   7.2835940e+01
   5.5126520e+02   5.5914060e+01
   5.5174730e+02   6.9132810e+01
   5.5222940e+02   8.4578120e+01
   5.5271150e+02   3.9919410e+00
   5.5319370e+02   1.2587340e+02
   5.5367580e+02   1.9510310e+02
   5.5415790e+02   2.1451080e+02
   5.5464000e+02   3.4874110e+01
   5.5512210e+02   1.1226190e+02
   5.5560420e+02   8.6645990e+01
   5.5608640e+02   5.6806830e+01
   5.5656850e+02   1.7036970e+02
   5.5705060e+02   1.9683560e+01
   5.5753270e+02   1.3097250e+02
   5.5801480e+02   1.3768560e+02
   5.5849690e+02   1.9226050e+02
   5.5897910e+02   1.4319590e+02
   5.5946120e+02   1.2614180e+02
   5.5994330e+02   2.1276100e+02
   5.6042540e+02   2.4197560e+02
   5.6090750e+02   1.8097980e+02
   5.6138960e+02   2.3859710e+02
   5.6187180e+02   8.4290960e+01
   5.6235390e+02   1.1595040e+02
   5.6283600e+02   2.2784590e+02
   5.6331810e+02   1.7206130e+02
   5.6380020e+02   1.2638280e+02
   5.6428230e+02   1.2341410e+02
   5.6476450e+02   1.2824220e+02
   5.6524660e+02   1.3525780e+02
   5.6572870e+02   1.4913280e+02
   5.6621080e+02   1.6368750e+02
   5.6669290e+02   1.4275000e+02
   5.6717500e+02   8.5101560e+01
   5.6765720e+02   1.5859380e+01
   5.6813930e+02   6.9500000e+01
   5.6862140e+02   1.4689060e+02
   5.6910350e+02   1.5690620e+02
   5.6958560e+02   7.7414060e+01
   5.7006770e+02   1.7484380e+01
   5.7054990e+02   7.7695310e+01
   5.7103200e+02   1.1146880e+02
   5.7151410e+02   1.3278120e+02
   5.7199620e+02   1.4879690e+02
   5.7247830e+02   1.5133590e+02
   5.7296040e+02   1.2369530e+02
   5.7344260e+02   7.2601560e+01
   5.7392470e+02   3.9125000e+01
   5.7440680e+02   3.7078120e+01
   5.7488890e+02   5.8242190e+01
   5.7537100e+02   9.9937500e+01
   5.7585310e+02   1.6814060e+02
   5.7633530e+02   2.1983590e+02
   5.7681740e+02   2.6147660e+02
   5.7729950e+02   2.7680470e+02
   5.7778160e+02   2.3174220e+02
   5.7826370e+02   1.1615620e+02
   5.7874580e+02   5.6359380e+01
   5.7922800e+02   8.3781250e+01
   5.7971010e+02   1.5042970e+02
   5.8019220e+02   1.7302340e+02
   5.8067430e+02   1.5785940e+02
   5.8115640e+02   1.3996090e+02
   5.8163850e+02   1.4319530e+02
   5.8212070e+02   1.4885940e+02
   5.8260280e+02   1.1606250e+02
   5.8308490e+02   5.2710940e+01
   5.8356700e+02   2.0351560e+01
   5.8404910e+02   8.4601560e+01
   5.8453130e+02   1.7572660e+02
   5.8501340e+02   2.3964060e+02
   5.8549550e+02   2.6200780e+02
   5.8597760e+02   2.7786720e+02
   5.8645970e+02   2.9382030e+02
   5.8694180e+02   3.0831250e+02
   5.8742400e+02   3.1932810e+02
   5.8790610e+02   3.2888280e+02
   5.8838820e+02   3.2665620e+02
   5.8887030e+02   3.0464060e+02
   5.8935240e+02   2.7659380e+02
   5.8983450e+02   2.8503910e+02
   5.9031670e+02   3.4547660e+02
   5.9079880e+02   3.7876560e+02
   5.9128090e+02   3.3993750e+02
   5.9176300e+02   2.4317190e+02
   5.9224510e+02   1.4742970e+02
   5.9272720e+02   5.1226560e+01
   5.9320940e+02   9.5703130e+00
   5.9369150e+02   7.6328130e+00
   5.9417360e+02   7.8875000e+01
   5.9465570e+02   1.7497660e+02
   5.9513780e+02   3.0468750e+02
   5.9561990e+02   3.9027340e+02
   5.9610210e+02   3.2535940e+02
   5.9658420e+02   1.9049220e+02
   5.9706630e+02   9.3046880e+01
   5.9754850e+02   1.0383590e+02
   5.9803060e+02   1.4854690e+02
   5.9851270e+02   2.1850780e+02
   5.9899480e+02   2.9776560e+02
   5.9947690e+02   3.4575000e+02
   5.9995900e+02   3.3128120e+02
   6.0044120e+02   3.2220310e+02
   6.0092330e+02   3.4577340e+02
   6.0140540e+02   4.0707030e+02
   6.0188750e+02   4.3416410e+02
   6.0236960e+02   4.1538280e+02
   6.0285170e+02   3.8942970e+02
   6.0333390e+02   3.9360940e+02
   6.0381600e+02   4.2490620e+02
   6.0429810e+02   4.3671090e+02
   6.0478020e+02   4.2057030e+02
   6.0526230e+02   3.9418750e+02
   6.0574440e+02   3.7074220e+02
   6.0622660e+02   3.5331250e+02
   6.0670870e+02   3.5490620e+02
   6.0719080e+02   3.8921090e+02
   6.0767290e+02   4.2922660e+02
   6.0815500e+02   4.6366410e+02
   6.0863710e+02   4.8805470e+02
   6.0911930e+02   4.9021880e+02
   6.0960140e+02   4.4308590e+02
   6.1008350e+02   3.9105470e+02
   6.1056560e+02   3.5195310e+02
   6.1104770e+02   3.2649220e+02
   6.1152980e+02   3.1891410e+02
   6.1201200e+02   3.4129690e+02
   6.1249410e+02   3.6896880e+02
   6.1297620e+02   3.8678120e+02
   6.1345830e+02   3.9543750e+02
   6.1394040e+02   3.8894530e+02
   6.1442250e+02   3.6120310e+02
   6.1490470e+02   3.2808590e+02
   6.1538680e+02   3.0819530e+02
   6.1586890e+02   3.0207810e+02
   6.1635100e+02   3.1610940e+02
   6.1683310e+02   3.5906250e+02
   6.1731520e+02   4.1365620e+02
   6.1779740e+02   4.6613280e+02
   6.1827950e+02   5.1045310e+02
   6.1876160e+02   5.2684380e+02
   6.1924370e+02   4.6510940e+02
   6.1972580e+02   3.9150000e+02
   6.2020790e+02   3.6509380e+02
   6.2069010e+02   3.7959380e+02
   6.2117220e+02   4.0433590e+02
   6.2165430e+02   4.5660940e+02
   6.2213640e+02   4.9763280e+02
   6.2261850e+02   5.0111720e+02
   6.2310060e+02   4.6005470e+02
   6.2358280e+02   3.8860940e+02
   6.2406490e+02   2.3586720e+02
   6.2454700e+02   9.9437500e+01
   6.2502910e+02   1.2080470e+02
   6.2551120e+02   3.3939840e+02
   6.2599330e+02   4.9961720e+02
   6.2647550e+02   5.4393750e+02
   6.2695760e+02   5.1992970e+02
   6.2743970e+02   5.2178120e+02
   6.2792180e+02   5.4300780e+02
   6.2840390e+02   5.4146880e+02
   6.2888600e+02   4.7944530e+02
   6.2936820e+02   3.9319530e+02
   6.2985030e+02   3.2228120e+02
   6.3033240e+02   2.6817970e+02
   6.3081450e+02   2.4182810e+02
   6.3129660e+02   2.5042190e+02
   6.3177870e+02   2.8837500e+02
   6.3226090e+02   3.7006250e+02
   6.3274300e+02   5.2638280e+02
   6.3322510e+02   6.0990620e+02
   6.3370720e+02   5.1787500e+02
   6.3418930e+02   3.8556250e+02
   6.3467140e+02   3.2890620e+02
   6.3515360e+02   4.0190620e+02
   6.3563570e+02   4.2728910e+02
   6.3611780e+02   3.7239060e+02
   6.3659990e+02   2.8464060e+02
   6.3708200e+02   2.5879690e+02
   6.3756410e+02   2.9787500e+02
   6.3804630e+02   3.2195310e+02
   6.3852840e+02   2.9836720e+02
   6.3901050e+02   2.5017970e+02
   6.3949260e+02   2.0439840e+02
   6.3997470e+02   1.6803120e+02
   6.4045680e+02   1.8045310e+02
   6.4093900e+02   3.3841410e+02
   6.4142110e+02   5.0920310e+02
   6.4190320e+02   5.5267970e+02
   6.4238530e+02   4.5904690e+02
   6.4286740e+02   3.7224220e+02
   6.4334950e+02   3.7046880e+02
   6.4383170e+02   3.8164840e+02
   6.4431380e+02   3.5328910e+02
   6.4479590e+02   2.4160160e+02
   6.4527800e+02   1.6020310e+02
   6.4576010e+02   8.8906250e+01
   6.4624220e+02   6.5351560e+01
   6.4672440e+02   1.6957810e+02
   6.4720650e+02   4.4783590e+02
   6.4768860e+02   5.9705470e+02
   6.4817070e+02   5.3019530e+02
   6.4865280e+02   3.5392970e+02
   6.4913490e+02   2.7097660e+02
   6.4961710e+02   2.7297660e+02
   6.5009920e+02   2.9788280e+02
   6.5058130e+02   3.3660160e+02
   6.5106340e+02   3.6991410e+02
   6.5154550e+02   3.6090620e+02
   6.5202760e+02   3.1932030e+02
   6.5250980e+02   2.9750000e+02
   6.5299190e+02   3.6443750e+02
   6.5347400e+02   4.2806250e+02
   6.5395610e+02   4.1803910e+02
   6.5443820e+02   3.0982810e+02
   6.5492030e+02   2.3796090e+02
   6.5540250e+02   2.2897660e+02
   6.5588460e+02   2.5297660e+02
   6.5636670e+02   2.9754690e+02
   6.5684880e+02   3.8202340e+02
   6.5733090e+02   4.2800000e+02
   6.5781300e+02   4.2843750e+02
   6.5829520e+02   3.9882810e+02
   6.5877730e+02   3.4157030e+02
   6.5925940e+02   2.6203910e+02
   6.5974150e+02   2.3265620e+02
   6.6022360e+02   2.9206250e+02
   6.6070570e+02   3.7746090e+02
   6.6118790e+02   4.0132810e+02
   6.6167000e+02   3.7726560e+02
   6.6215210e+02   3.4225780e+02
   6.6263420e+02   2.9353120e+02
   6.6311630e+02   2.5753120e+02
   6.6359840e+02   2.5595310e+02
   6.6408060e+02   2.8550000e+02
   6.6456270e+02   3.1658590e+02
   6.6504480e+02   3.7057030e+02
   6.6552690e+02   3.9635160e+02
   6.6600900e+02   3.5535160e+02
   6.6649110e+02   2.2807030e+02
   6.6697330e+02   1.9174220e+02
   6.6745540e+02   2.8857810e+02
   6.6793750e+02   3.9262500e+02
   6.6841960e+02   3.7891410e+02
   6.6890170e+02   2.5303910e+02
   6.6938390e+02   1.9774220e+02
   6.6986600e+02   2.3783590e+02
   6.7034810e+02   3.0849220e+02
   6.7083020e+02   3.5610940e+02
   6.7131230e+02   3.7553120e+02
   6.7179440e+02   3.4837500e+02
   6.7227660e+02   2.2699220e+02
   6.7275870e+02   1.2607030e+02
   6.7324080e+02   1.3175000e+02
   6.7372290e+02   2.1001560e+02
   6.7420500e+02   2.9451560e+02
   6.7468710e+02   4.0608590e+02
   6.7516930e+02   4.7902340e+02
   6.7565140e+02   4.8149220e+02
   6.7613350e+02   4.2750780e+02
   6.7661560e+02   3.8210940e+02
   6.7709770e+02   3.3533590e+02
   6.7757980e+02   3.2105470e+02
   6.7806200e+02   3.6881250e+02
   6.7854410e+02   4.6950000e+02
   6.7902620e+02   5.3142970e+02
   6.7950830e+02   5.5507810e+02
   6.7999040e+02   5.4370310e+02
   6.8047250e+02   4.6542190e+02
   6.8095470e+02   3.6596880e+02
   6.8143680e+02   3.2590620e+02
   6.8191890e+02   3.5578120e+02
   6.8240100e+02   4.0984380e+02
   6.8288310e+02   4.8146090e+02
   6.8336520e+02   5.5154690e+02
   6.8384740e+02   5.9888280e+02
   6.8432950e+02   6.2495310e+02
   6.8481160e+02   6.1909380e+02
   6.8529370e+02   5.3145310e+02
   6.8577580e+02   4.3382810e+02
   6.8625790e+02   4.2814840e+02
   6.8674010e+02   5.5596090e+02
   6.8722220e+02   6.5492190e+02
   6.8770430e+02   6.9142190e+02
   6.8818640e+02   6.8982810e+02
   6.8866850e+02   7.0235160e+02
   6.8915060e+02   7.2905470e+02
   6.8963280e+02   7.7076560e+02
   6.9011490e+02   8.3735160e+02
   6.9059700e+02   9.1589060e+02
   6.9107910e+02   9.8034380e+02
   6.9156120e+02   1.0397190e+03
   6.9204330e+02   1.1208670e+03
   6.9252550e+02   1.2251020e+03
   6.9300760e+02   1.3686800e+03
   6.9348970e+02   1.5785940e+03
   6.9397180e+02   1.8664140e+03
   6.9445390e+02   2.1282970e+03
   6.9493600e+02   2.3631560e+03
   6.9541820e+02   2.5543670e+03
   6.9590030e+02   2.6809690e+03
   6.9638240e+02   2.7139770e+03
   6.9686450e+02   2.8006330e+03
   6.9734660e+02   2.9503590e+03
   6.9782870e+02   3.1308830e+03
   6.9831090e+02   3.3121410e+03
   6.9879300e+02   3.4993910e+03
   6.9927510e+02   3.6977420e+03
   6.9975720e+02   3.9084450e+03
   7.0023930e+02   4.1351880e+03
   7.0072140e+02   4.3937340e+03
   7.0120360e+02   4.6643830e+03
   7.0168570e+02   4.9156090e+03
   7.0216780e+02   5.1450470e+03
   7.0264990e+02   5.3477660e+03
   7.0313200e+02   5.5247810e+03
   7.0361410e+02   5.6734530e+03
   7.0409630e+02   5.7884690e+03
   7.0457840e+02   5.8820160e+03
   7.0506050e+02   5.9322730e+03
   7.0554260e+02   5.9509450e+03
   7.0602470e+02   5.9256330e+03
   7.0650680e+02   5.7902110e+03
   7.0698900e+02   5.5384300e+03
   7.0747110e+02   5.2450230e+03
   7.0795320e+02   4.9604840e+03
   7.0843530e+02   4.6663280e+03
   7.0891740e+02   4.3012110e+03
   7.0939950e+02   3.8725390e+03
   7.0988170e+02   3.4661560e+03
   7.1036380e+02   3.1449140e+03
   7.1084590e+02   2.8718280e+03
   7.1132800e+02   2.6233120e+03
   7.1181010e+02   2.3962190e+03
   7.1229220e+02   2.1841480e+03
   7.1277440e+02   1.9831090e+03
   7.1325650e+02   1.7966880e+03
   7.1373860e+02   1.6197340e+03
   7.1422070e+02   1.4366410e+03
   7.1470280e+02   1.3231480e+03
   7.1518490e+02   1.3129610e+03
   7.1566710e+02   1.3309380e+03
   7.1614920e+02   1.2946950e+03
   7.1663130e+02   1.2091950e+03
   7.1711340e+02   1.1087580e+03
   7.1759550e+02   9.9326560e+02
   7.1807760e+02   8.7510940e+02
   7.1855980e+02   7.6021880e+02
   7.1904190e+02   6.6058590e+02
   7.1952400e+02   6.0149220e+02
   7.2000610e+02   6.4672660e+02
   7.2048820e+02   6.6697660e+02
   7.2097030e+02   5.5501560e+02
   7.2145250e+02   3.7798440e+02
   7.2193460e+02   2.8896090e+02
   7.2241670e+02   3.9858590e+02
   7.2289880e+02   4.7955470e+02
   7.2338090e+02   4.8228120e+02
   7.2386300e+02   4.2717970e+02
   7.2434520e+02   3.9144530e+02
   7.2482730e+02   3.7599220e+02
   7.2530940e+02   3.7396090e+02
   7.2579150e+02   3.9507030e+02
   7.2627360e+02   4.2261720e+02
   7.2675570e+02   4.1119530e+02
   7.2723790e+02   3.6367970e+02
   7.2772000e+02   3.0275000e+02
   7.2820210e+02   1.9735940e+02
   7.2868420e+02   1.1728120e+02
   7.2916630e+02   1.5677340e+02
   7.2964840e+02   3.2796880e+02
   7.3013060e+02   4.1539840e+02
   7.3061270e+02   2.5207810e+02
   7.3109480e+02   7.5757810e+01
   7.3157690e+02   2.5914060e+01
   7.3205900e+02   1.4625780e+02
   7.3254110e+02   2.0740620e+02
   7.3302330e+02   1.9755470e+02
   7.3350540e+02   1.5644530e+02
   7.3398750e+02   1.0231250e+02
   7.3446960e+02   4.2570310e+01
   7.3495170e+02   3.9250000e+01
   7.3543380e+02   1.0644530e+02
   7.3591600e+02   1.8677340e+02
   7.3639810e+02   2.5006250e+02
   7.3688020e+02   2.8122660e+02
   7.3736230e+02   2.4685160e+02
   7.3784440e+02   8.4968750e+01
   7.3832660e+02   4.8320310e+01
   7.3880870e+02   6.5085940e+01
   7.3929080e+02   2.3953120e+01
   7.3977290e+02   1.2054690e+01
   7.4025510e+02   6.4320310e+01
   7.4073720e+02   8.7281250e+01
   7.4121930e+02   5.7585940e+01
   7.4170140e+02   3.6796880e+00
   7.4218350e+02   1.0437500e+01
   7.4266560e+02   1.5828120e+01
   7.4314780e+02   3.8593750e+01
   7.4362990e+02   5.1546880e+01
   7.4411200e+02   4.3656250e+01
   7.4459410e+02   3.2671880e+01
   7.4507620e+02   1.4878120e+02
   7.4555830e+02   2.1869530e+02
   7.4604050e+02   1.6480470e+02
   7.4652260e+02   8.4585940e+01
   7.4700470e+02   8.1328130e+00
   7.4748680e+02   5.5859380e+01
   7.4796890e+02   6.2640620e+01
   7.4845100e+02   4.7968750e+01
   7.4893320e+02   1.4530470e+02
   7.4941530e+02   1.9327340e+02
   7.4989740e+02   1.9271880e+02
   7.5037950e+02   1.4296880e+02
   7.5086160e+02   3.4953120e+01
   7.5134380e+02   5.1593750e+01
   7.5182590e+02   4.5859380e+01
   7.5230800e+02   1.4242190e+01
   7.5279010e+02   3.2789060e+01
   7.5327220e+02   1.0054690e+01
   7.5375430e+02   1.1250000e+00
   7.5423650e+02   7.8312500e+01
   7.5471860e+02   1.5360940e+02
   7.5520070e+02   1.2472660e+02
   7.5568280e+02   4.8515620e+01
   7.5616490e+02   1.4655470e+02
   7.5664700e+02   6.3054690e+01
   7.5712920e+02   4.3562500e+01
   7.5761130e+02   6.8953120e+01
   7.5809340e+02   2.1976560e+01
   7.5857550e+02   2.1843750e+01
   7.5905760e+02   9.3656250e+01
   7.5953970e+02   2.1992190e+02
   7.6002190e+02   2.4448440e+02
   7.6050400e+02   1.9046090e+02
   7.6098610e+02   1.1587500e+02
   7.6146820e+02   2.0390620e+01
   7.6195030e+02   3.9843750e+01
   7.6243240e+02   2.6210940e+01
   7.6291460e+02   1.3283590e+02
   7.6339670e+02   1.7378910e+02
   7.6387880e+02   3.5476560e+01
   7.6436090e+02   2.5257810e+01
   7.6484300e+02   1.2619530e+02
   7.6532510e+02   3.2317190e+02
   7.6580730e+02   3.6710160e+02
   7.6628940e+02   2.1147660e+02
   7.6677150e+02   8.3218750e+01
   7.6725360e+02   1.1343750e+01
   7.6773570e+02   1.5835940e+01
   7.6821780e+02   1.6867190e+01
   7.6870000e+02   1.0031250e+01
   7.6918210e+02   8.1703120e+01
   7.6966420e+02   2.5984380e+02
   7.7014630e+02   3.9410160e+02
   7.7062840e+02   2.8463280e+02
   7.7111050e+02   4.7054690e+01
   7.7159270e+02   9.5140620e+01
   7.7207480e+02   3.8562500e+01
   7.7255690e+02   1.4532810e+02
   7.7303900e+02   1.3645310e+02
   7.7352110e+02   5.4960940e+01
   7.7400320e+02   2.5234380e+00
   7.7448540e+02   2.1937500e+01
   7.7496750e+02   9.8671880e+00
   7.7544960e+02   5.5289060e+01
   7.7593170e+02   1.4643750e+02
   7.7641380e+02   1.9591410e+02
   7.7689590e+02   2.0827340e+02
   7.7737810e+02   2.1150780e+02
   7.7786020e+02   2.3446090e+02
   7.7834230e+02   2.4267970e+02
   7.7882440e+02   1.8479690e+02
   7.7930650e+02   8.0898440e+01
   7.7978860e+02   1.6343750e+01
   7.8027080e+02   4.3812500e+01
   7.8075290e+02   8.8351560e+01
   7.8123500e+02   1.3413280e+02
   7.8171710e+02   1.7833590e+02
   7.8219920e+02   1.8796090e+02
   7.8268130e+02   1.5218750e+02
   7.8316350e+02   1.2399220e+02
   7.8364560e+02   1.3969530e+02
   7.8412770e+02   1.8224220e+02
   7.8460980e+02   1.9742190e+02
   7.8509190e+02   1.8656250e+02
   7.8557400e+02   1.6503120e+02
   7.8605620e+02   1.1258590e+02
   7.8653830e+02   7.5804690e+01
   7.8702040e+02   1.2085940e+02
   7.8750250e+02   2.5004690e+02
   7.8798460e+02   3.1348440e+02
   7.8846670e+02   1.9192970e+02
   7.8894890e+02   7.7742190e+01
   7.8943100e+02   6.2140620e+01
   7.8991310e+02   1.5321090e+02
   7.9039520e+02   1.8595310e+02
   7.9087730e+02   1.4955470e+02
   7.9135940e+02   9.8187500e+01
   7.9184160e+02   7.0960940e+01
   7.9232370e+02   6.1000000e+01
   7.9280580e+02   5.1710940e+01
   7.9328790e+02   4.2320310e+01
   7.9377000e+02   3.1351560e+01
   7.9425210e+02   1.5000000e+00
   7.9473430e+02   1.4867190e+01
   7.9521640e+02   6.4531250e+00
   7.9569850e+02   8.5914060e+01
   7.9618060e+02   1.5657810e+02
   7.9666270e+02   2.0767970e+02
   7.9714480e+02   2.5703910e+02
   7.9762700e+02   3.1785940e+02
   7.9810910e+02   3.9342190e+02
   7.9859120e+02   4.2771880e+02
   7.9907330e+02   4.1900780e+02
   7.9955540e+02   3.9786720e+02
   8.0003750e+02   3.8357030e+02
   8.0051970e+02   3.7750780e+02
   8.0100180e+02   3.8609380e+02
   8.0148390e+02   4.1916410e+02
   8.0196600e+02   4.4504690e+02
   8.0244810e+02   4.1635160e+02
   8.0293020e+02   3.9229690e+02
   8.0341240e+02   4.2259380e+02
   8.0389450e+02   5.6678120e+02
   8.0437660e+02   6.5207030e+02
   8.0485870e+02   6.4281250e+02
   8.0534080e+02   6.1942970e+02
   8.0582290e+02   6.6457810e+02
   8.0630510e+02   7.8160160e+02
   8.0678720e+02   9.0211720e+02
   8.0726930e+02   1.0265940e+03
   8.0775140e+02   1.1196020e+03
   8.0823350e+02   1.1011410e+03
   8.0871560e+02   1.0440780e+03
   8.0919780e+02   1.0665620e+03
   8.0967990e+02   1.2247660e+03
   8.1016200e+02   1.3734690e+03
   8.1064410e+02   1.4683670e+03
   8.1112620e+02   1.5105470e+03
   8.1160830e+02   1.4945780e+03
   8.1209050e+02   1.3767500e+03
   8.1257260e+02   1.3118120e+03
   8.1305470e+02   1.3141640e+03
   8.1353680e+02   1.3450550e+03
   8.1401890e+02   1.3891330e+03
   8.1450100e+02   1.4435310e+03
   8.1498320e+02   1.4169610e+03
   8.1546530e+02   1.2831250e+03
   8.1594740e+02   1.0995310e+03
   8.1642950e+02   8.6853910e+02
   8.1691160e+02   6.4725000e+02
   8.1739370e+02   4.9956250e+02
   8.1787590e+02   4.7080470e+02
   8.1835800e+02   4.6815620e+02
   8.1884010e+02   5.1201560e+02
   8.1932220e+02   5.4809380e+02
   8.1980430e+02   5.0567970e+02
   8.2028640e+02   3.5612500e+02
   8.2076860e+02   3.0662500e+02
   8.2125070e+02   4.0044530e+02
   8.2173280e+02   5.2289060e+02
   8.2221490e+02   5.1961720e+02
   8.2269700e+02   4.2960160e+02
   8.2317910e+02   3.2401560e+02
   8.2366130e+02   2.0316410e+02
   8.2414340e+02   1.2630470e+02
   8.2462550e+02   1.6814060e+02
   8.2510760e+02   2.5930470e+02
   8.2558970e+02   3.2199220e+02
   8.2607180e+02   3.2212500e+02
   8.2655400e+02   3.2825780e+02
   8.2703610e+02   3.4598440e+02
   8.2751820e+02   3.6246090e+02
   8.2800030e+02   3.6068750e+02
   8.2848240e+02   3.4084380e+02
   8.2896450e+02   3.2717190e+02
   8.2944670e+02   3.1463280e+02
   8.2992880e+02   3.2200780e+02
   8.3041090e+02   3.6961720e+02
   8.3089300e+02   4.2664060e+02
   8.3137510e+02   4.4049220e+02
   8.3185720e+02   3.6757810e+02
   8.3233940e+02   3.1371090e+02
   8.3282150e+02   3.4240620e+02
   8.3330360e+02   3.9910160e+02
   8.3378570e+02   4.1463280e+02
   8.3426780e+02   3.6105470e+02
   8.3474990e+02   3.5207030e+02
   8.3523210e+02   4.0849220e+02
   8.3571420e+02   4.7788280e+02
   8.3619630e+02   4.7800780e+02
   8.3667840e+02   4.3326560e+02
   8.3716050e+02   4.4120310e+02
   8.3764260e+02   5.3351560e+02
   8.3812480e+02   6.2617190e+02
   8.3860690e+02   6.6805470e+02
   8.3908900e+02   6.7167970e+02
   8.3957110e+02   6.4551560e+02
   8.4005320e+02   5.6157810e+02
   8.4053530e+02   5.0233590e+02
   8.4101750e+02   4.7460160e+02
   8.4149960e+02   4.7045310e+02
   8.4198170e+02   4.8520310e+02
   8.4246380e+02   5.1953910e+02
   8.4294590e+02   5.7210940e+02
   8.4342800e+02   6.5471090e+02
   8.4391020e+02   6.9307810e+02
   8.4439230e+02   5.4417190e+02
   8.4487440e+02   3.1597660e+02
   8.4535650e+02   1.9749220e+02
   8.4583860e+02   2.5953910e+02
   8.4632070e+02   3.0321880e+02
   8.4680290e+02   2.1113280e+02
   8.4728500e+02   8.9132810e+01
   8.4776710e+02   2.7976560e+01
   8.4824920e+02   3.3953120e+01
   8.4873130e+02   1.0203120e+02
   8.4921340e+02   2.6509380e+02
   8.4969560e+02   4.0421880e+02
   8.5017770e+02   3.7542970e+02
   8.5065980e+02   2.2297660e+02
   8.5114190e+02   8.5250000e+01
   8.5162400e+02   2.6593750e+01
   8.5210610e+02   7.2156250e+01
   8.5258830e+02   4.8250000e+01
   8.5307040e+02   2.0990620e+02
   8.5355250e+02   2.9668750e+02
   8.5403460e+02   2.6264060e+02
   8.5451670e+02   2.2414840e+02
   8.5499880e+02   1.8789060e+02
   8.5548100e+02   1.5024220e+02
   8.5596310e+02   1.0681250e+02
   8.5644520e+02   5.7367190e+01
   8.5692730e+02   4.5156250e+00
   8.5740940e+02   5.4406250e+01
   8.5789150e+02   7.9429690e+01
   8.5837370e+02   1.5343750e+01
   8.5885580e+02   1.3921090e+02
   8.5933790e+02   1.5680470e+02
   8.5982000e+02   4.3132810e+01
   8.6030210e+02   3.6218750e+01
   8.6078420e+02   2.5734380e+01
   8.6126640e+02   1.0123440e+02
   8.6174850e+02   1.0882810e+02
   8.6223060e+02   3.6523440e+01
   8.6271270e+02   2.7085940e+01
   8.6319480e+02   9.1671880e+01
   8.6367690e+02   1.7054690e+02
   8.6415910e+02   2.3128120e+02
   8.6464120e+02   2.7291410e+02
   8.6512330e+02   2.8723440e+02
   8.6560540e+02   2.7700780e+02
   8.6608750e+02   2.7425000e+02
   8.6656960e+02   3.3339840e+02
   8.6705180e+02   3.7708590e+02
   8.6753390e+02   3.4462500e+02
   8.6801600e+02   2.2747660e+02
   8.6849810e+02   1.3601560e+02
   8.6898020e+02   7.5687500e+01
   8.6946230e+02   2.9257810e+01
   8.6994450e+02   1.5492190e+01
   8.7042660e+02   5.2421880e+01
   8.7090870e+02   4.9218750e+01
   8.7139080e+02   8.1250000e+00
   8.7187290e+02   4.9437500e+01
   8.7235500e+02   1.5721090e+02
   8.7283720e+02   2.3977340e+02
   8.7331930e+02   1.9537500e+02
   8.7380140e+02   5.3070310e+01
   8.7428350e+02   1.7734380e+01
   8.7476560e+02   9.7968750e+01
   8.7524770e+02   1.9831250e+02
   8.7572990e+02   2.2700000e+02
   8.7621200e+02   2.0362500e+02
   8.7669410e+02   2.1302340e+02
   8.7717620e+02   2.5502340e+02
   8.7765830e+02   2.7096880e+02
   8.7814040e+02   2.0724220e+02
   8.7862260e+02   1.3303120e+02
   8.7910470e+02   1.6548440e+02
   8.7958690e+02   2.6168750e+02
   8.8006900e+02   3.1252340e+02
   8.8055110e+02   2.0466410e+02
   8.8103320e+02   1.2900780e+02
   8.8151530e+02   1.7121880e+02
   8.8199740e+02   2.7178120e+02
   8.8247960e+02   3.0967190e+02
   8.8296170e+02   2.7387500e+02
   8.8344380e+02   2.3570310e+02
   8.8392590e+02   2.0846090e+02
   8.8440800e+02   1.9350000e+02
   8.8489010e+02   1.9787500e+02
   8.8537230e+02   2.1652340e+02
   8.8585440e+02   2.4160940e+02
   8.8633650e+02   2.7875000e+02
   8.8681860e+02   2.9043750e+02
   8.8730070e+02   2.4377340e+02
   8.8778280e+02   1.7491410e+02
   8.8826500e+02   1.3077340e+02
   8.8874710e+02   1.0545310e+02
   8.8922920e+02   1.3136720e+02
   8.8971130e+02   2.3076560e+02
   8.9019340e+02   3.3801560e+02
   8.9067550e+02   3.6241410e+02
   8.9115770e+02   3.2489060e+02
   8.9163980e+02   2.9138280e+02
   8.9212190e+02   2.7496880e+02
   8.9260400e+02   2.5927340e+02
   8.9308610e+02   2.4875780e+02
   8.9356820e+02   2.2436720e+02
   8.9405040e+02   1.5929690e+02
   8.9453250e+02   4.3750000e+00
   8.9501460e+02   6.7757810e+01
   8.9549670e+02   3.3039060e+01
   8.9597880e+02   3.9718750e+01
   8.9646090e+02   1.0210940e+02
   8.9694310e+02   1.5377340e+02
   8.9742520e+02   1.8449220e+02
   8.9790730e+02   1.9332810e+02
   8.9838940e+02   2.0615620e+02
   8.9887150e+02   2.5557030e+02
   8.9935360e+02   3.0907030e+02
   8.9983580e+02   3.5165620e+02
   9.0031790e+02   3.8437500e+02
   9.0080000e+02   3.4685940e+02
   9.0128210e+02   1.5353120e+02
   9.0176420e+02   1.2007810e+01
   9.0224630e+02   4.7039060e+01
   9.0272850e+02   2.2401560e+02
   9.0321060e+02   2.7071090e+02
   9.0369270e+02   1.9147660e+02
   9.0417480e+02   1.1183590e+02
   9.0465690e+02   1.2082030e+02
   9.0513900e+02   1.5730470e+02
   9.0562120e+02   1.4514840e+02
   9.0610330e+02   1.0181250e+02
   9.0658540e+02   1.0550780e+02
   9.0706750e+02   2.5489840e+02
   9.0754960e+02   3.5829690e+02
   9.0803170e+02   3.5940620e+02
   9.0851390e+02   2.8833590e+02
   9.0899600e+02   2.1903120e+02
   9.0947810e+02   1.4868750e+02
   9.0996020e+02   1.3556250e+02
   9.1044230e+02   2.3764840e+02
   9.1092440e+02   3.6098440e+02
   9.1140660e+02   4.0698440e+02
   9.1188870e+02   3.9393750e+02
   9.1237080e+02   3.5597660e+02
   9.1285290e+02   2.2270310e+02
   9.1333500e+02   1.7364840e+02
   9.1381710e+02   2.8685160e+02
   9.1429930e+02   4.6304690e+02
   9.1478140e+02   5.8075000e+02
   9.1526350e+02   6.3683590e+02
   9.1574560e+02   6.2514060e+02
   9.1622770e+02   5.3589060e+02
   9.1670980e+02   4.4725000e+02
   9.1719200e+02   4.7269530e+02
   9.1767410e+02   5.5306250e+02
   9.1815620e+02   6.0458590e+02
   9.1863830e+02   6.1956250e+02
   9.1912040e+02   5.9412500e+02
   9.1960250e+02   4.4380470e+02
   9.2008470e+02   3.2153910e+02
   9.2056680e+02   3.6204690e+02
   9.2104890e+02   6.1339060e+02
   9.2153100e+02   6.5285940e+02
   9.2201310e+02   4.5557030e+02
   9.2249520e+02   2.5381250e+02
   9.2297740e+02   2.8152340e+02
   9.2345950e+02   4.0202340e+02
   9.2394160e+02   3.9930470e+02
   9.2442370e+02   2.7067970e+02
   9.2490580e+02   1.6675780e+02
   9.2538790e+02   1.5750780e+02
   9.2587010e+02   1.7764840e+02
   9.2635220e+02   2.1697660e+02
   9.2683430e+02   2.6595310e+02
   9.2731640e+02   2.2813280e+02
   9.2779850e+02   8.9460940e+01
   9.2828060e+02   1.8210940e+01
   9.2876280e+02   1.4539060e+01
   9.2924490e+02   4.4164060e+01
   9.2972700e+02   7.6421880e+01
   9.3020910e+02   8.5890620e+01
   9.3069120e+02   8.6359380e+01
   9.3117330e+02   5.3578120e+01
   9.3165550e+02   4.7632810e+01
   9.3213760e+02   1.1685940e+02
   9.3261970e+02   2.1210160e+02
   9.3310180e+02   2.3898440e+02
   9.3358390e+02   1.8842190e+02
   9.3406600e+02   1.3899220e+02
   9.3454820e+02   1.0232810e+02
   9.3503030e+02   7.8718750e+01
   9.3551240e+02   7.8539060e+01
   9.3599450e+02   8.8750000e+01
   9.3647660e+02   8.0890620e+01
   9.3695870e+02   3.0109380e+01
   9.3744090e+02   1.2671880e+01
   9.3792300e+02   8.6656250e+01
   9.3840510e+02   1.7872660e+02
   9.3888720e+02   2.3685940e+02
   9.3936930e+02   2.6336720e+02
   9.3985140e+02   2.5216410e+02
   9.4033360e+02   2.0111720e+02
   9.4081570e+02   1.4879690e+02
   9.4129780e+02   1.4193750e+02
   9.4177990e+02   1.4579690e+02
   9.4226200e+02   9.1914060e+01
   9.4274410e+02   1.7757810e+01
   9.4322630e+02   8.5875000e+01
   9.4370840e+02   8.0000000e+01
   9.4419050e+02   1.1679690e+01
   9.4467260e+02   1.5795310e+02
   9.4515470e+02   3.9217970e+02
   9.4563680e+02   4.6572660e+02
   9.4611900e+02   3.8082030e+02
   9.4660110e+02   3.0277340e+02
   9.4708320e+02   3.0731250e+02
   9.4756530e+02   3.5600000e+02
   9.4804740e+02   4.2248440e+02
   9.4852950e+02   4.9225000e+02
   9.4901170e+02   5.2762500e+02
   9.4949380e+02   4.7253120e+02
   9.4997590e+02   4.3889060e+02
   9.5045800e+02   4.5047660e+02
   9.5094010e+02   4.9135940e+02
   9.5142220e+02   5.4588280e+02
   9.5190440e+02   6.1500780e+02
   9.5238650e+02   6.5488280e+02
   9.5286860e+02   6.4975000e+02
   9.5335070e+02   6.4201560e+02
   9.5383280e+02   6.6145310e+02
   9.5431490e+02   7.0352340e+02
   9.5479710e+02   7.6799220e+02
   9.5527920e+02   8.5800780e+02
   9.5576130e+02   9.5746090e+02
   9.5624340e+02   1.1339140e+03
   9.5672550e+02   1.2312580e+03
   9.5720760e+02   1.1063120e+03
   9.5768980e+02   7.6935940e+02
   9.5817190e+02   6.1879690e+02
   9.5865400e+02   6.5173440e+02
   9.5913610e+02   7.4037500e+02
   9.5961820e+02   8.6192970e+02
   9.6010030e+02   9.4799220e+02
   9.6058250e+02   8.9050780e+02
   9.6106460e+02   7.2223440e+02
   9.6154670e+02   6.5015620e+02
   9.6202880e+02   8.4167970e+02
   9.6251090e+02   9.2579690e+02
   9.6299300e+02   7.7171090e+02
   9.6347520e+02   4.9352340e+02
   9.6395730e+02   3.7203120e+02
   9.6443940e+02   3.9003910e+02
   9.6492150e+02   4.4405470e+02
   9.6540360e+02   5.3304690e+02
   9.6588570e+02   5.8095310e+02
   9.6636790e+02   4.7264840e+02
   9.6685000e+02   3.0943750e+02
   9.6733210e+02   2.2544530e+02
   9.6781420e+02   2.8976560e+02
   9.6829630e+02   3.4378910e+02
   9.6877840e+02   3.8510940e+02
   9.6926060e+02   4.1832810e+02
   9.6974270e+02   4.6345310e+02
   9.7022480e+02   5.0422660e+02
   9.7070690e+02   4.6839840e+02
   9.7118900e+02   3.5560160e+02
   9.7167110e+02   2.5475000e+02
   9.7215330e+02   2.1084380e+02
   9.7263540e+02   1.7934380e+02
   9.7311750e+02   1.4178910e+02
   9.7359960e+02   1.0200780e+02
   9.7408170e+02   9.0125000e+01
   9.7456380e+02   1.0783590e+02
   9.7504600e+02   1.5074220e+02
   9.7552810e+02   2.3644530e+02
   9.7601020e+02   3.2904690e+02
   9.7649230e+02   3.3324220e+02
   9.7697440e+02   2.7943750e+02
   9.7745650e+02   2.5703120e+02
   9.7793870e+02   3.8131250e+02
   9.7842080e+02   4.5428120e+02
   9.7890290e+02   3.6375000e+02
   9.7938500e+02   2.0230470e+02
   9.7986710e+02   8.1562500e+01
   9.8034920e+02   3.4921880e+00
   9.8083140e+02   1.4218750e+00
   9.8131350e+02   1.1973440e+02
   9.8179560e+02   2.5162500e+02
   9.8227770e+02   2.8178910e+02
   9.8275980e+02   2.5835160e+02
   9.8324190e+02   2.5802340e+02
   9.8372410e+02   2.9848440e+02
   9.8420620e+02   3.0755470e+02
   9.8468830e+02   2.1880470e+02
   9.8517040e+02   1.3904690e+02
   9.8565250e+02   1.1730470e+02
   9.8613460e+02   1.4810160e+02
   9.8661680e+02   1.8317190e+02
   9.8709890e+02   2.2242190e+02
   9.8758100e+02   2.5509380e+02
   9.8806310e+02   2.8914060e+02
   9.8854520e+02   3.0197660e+02
   9.8902730e+02   2.4081250e+02
   9.8950950e+02   1.4233590e+02
   9.8999160e+02   1.0275780e+02
   9.9047370e+02   1.8637500e+02
   9.9095580e+02   2.5867190e+02
   9.9143790e+02   3.0216410e+02
   9.9192000e+02   3.2975000e+02
   9.9240220e+02   3.7172660e+02
   9.9288430e+02   4.1679690e+02
   9.9336640e+02   4.0555470e+02
   9.9384850e+02   3.1520310e+02
   9.9433060e+02   2.4194530e+02
   9.9481270e+02   3.1038280e+02
   9.9529490e+02   3.8534380e+02
   9.9577700e+02   3.1753910e+02
   9.9625910e+02   6.7117190e+01
   9.9674120e+02   3.1968750e+01
   9.9722330e+02   4.0609380e+01
   9.9770540e+02   1.5753120e+02
   9.9818760e+02   2.8434380e+02
   9.9866970e+02   3.9010940e+02
   9.9915180e+02   3.7625000e+02
   9.9963390e+02   2.7339840e+02
   1.0001160e+03   2.0452340e+02
   1.0005980e+03   3.1778120e+02
   1.0010800e+03   3.5937500e+02
   1.0015620e+03   1.5721090e+02
   1.0020440e+03   1.2108590e+02
   1.0025270e+03   1.6398440e+02
   1.0030090e+03   4.6406250e+01
   1.0034910e+03   2.4018750e+02
   1.0039730e+03   3.7806250e+02
   1.0044550e+03   4.3402340e+02
   1.0049370e+03   3.0088280e+02
   1.0054190e+03   1.0371880e+02
   1.0059010e+03   7.8593750e+00
   1.0063840e+03   6.7867190e+01
   1.0068660e+03   1.2046090e+02
   1.0073480e+03   1.4354690e+02
   1.0078300e+03   1.5721090e+02
   1.0083120e+03   1.6417970e+02
   1.0087940e+03   1.7003120e+02
   1.0092760e+03   2.3367190e+02
   1.0097580e+03   3.4360160e+02
   1.0102400e+03   4.0872660e+02
   1.0107230e+03   3.3694530e+02
   1.0112050e+03   2.4207810e+02
   1.0116870e+03   1.9289840e+02
   1.0121690e+03   1.7600780e+02
   1.0126510e+03   1.3850000e+02
   1.0131330e+03   3.3195310e+01
   1.0136150e+03   6.5664060e+01
   1.0140970e+03   3.1214060e+02
   1.0145800e+03   5.8463280e+02
   1.0150620e+03   5.9081250e+02
   1.0155440e+03   4.4069530e+02
   1.0160260e+03   3.4677340e+02
   1.0165080e+03   3.5942190e+02
   1.0169900e+03   3.6247660e+02
   1.0174720e+03   2.6371090e+02
   1.0179540e+03   1.8624220e+02
   1.0184360e+03   2.1175780e+02
   1.0189190e+03   3.3336720e+02
   1.0194010e+03   4.1356250e+02
   1.0198830e+03   4.5225000e+02
   1.0203650e+03   4.6382810e+02
   1.0208470e+03   4.3477340e+02
   1.0213290e+03   4.0083590e+02
   1.0218110e+03   3.9847660e+02
   1.0222930e+03   4.1900780e+02
   1.0227760e+03   4.4242190e+02
   1.0232580e+03   5.0192970e+02
   1.0237400e+03   4.9373440e+02
   1.0242220e+03   3.7830470e+02
   1.0247040e+03   2.4154690e+02
   1.0251860e+03   2.2392970e+02
   1.0256680e+03   2.8478910e+02
   1.0261500e+03   2.7343750e+02
   1.0266320e+03   1.6346880e+02
   1.0271150e+03   5.8625000e+01
   1.0275970e+03   4.1734380e+01
   1.0280790e+03   3.3531250e+01
   1.0285610e+03   4.7406250e+01
   1.0290430e+03   1.9458590e+02
   1.0295250e+03   1.9509380e+02
   1.0300070e+03   3.4554690e+01
   1.0304890e+03   1.5535940e+02
   1.0309720e+03   3.6105470e+02
   1.0314540e+03   5.0995310e+02
   1.0319360e+03   4.3009380e+02
   1.0324180e+03   2.2549220e+02
   1.0329000e+03   1.2033590e+02
   1.0333820e+03   3.1857030e+02
   1.0338640e+03   4.2689060e+02
   1.0343460e+03   3.6908590e+02
   1.0348280e+03   2.5967970e+02
   1.0353110e+03   2.2817190e+02
   1.0357930e+03   2.6243750e+02
   1.0362750e+03   2.8270310e+02
   1.0367570e+03   2.8285160e+02
   1.0372390e+03   2.8068750e+02
   1.0377210e+03   3.1671090e+02
   1.0382030e+03   3.2981250e+02
   1.0386850e+03   2.4490620e+02
   1.0391670e+03   8.1054690e+01
   1.0396500e+03   3.0320310e+01
   1.0401320e+03   1.2078120e+02
   1.0406140e+03   2.0482810e+02
   1.0410960e+03   2.3146090e+02
   1.0415780e+03   2.2587500e+02
   1.0420600e+03   2.0805470e+02
   1.0425420e+03   1.9116410e+02
   1.0430240e+03   2.0051560e+02
   1.0435070e+03   2.6229690e+02
   1.0439890e+03   3.1575780e+02
   1.0444710e+03   3.6760940e+02
   1.0449530e+03   3.8906250e+02
   1.0454350e+03   3.2900000e+02
   1.0459170e+03   2.0042190e+02
   1.0463990e+03   2.0163280e+02
   1.0468810e+03   3.2964060e+02
   1.0473640e+03   4.4171880e+02
   1.0478460e+03   4.2642190e+02
   1.0483280e+03   3.7639060e+02
   1.0488100e+03   3.4764840e+02
   1.0492920e+03   3.3809380e+02
   1.0497740e+03   3.2761720e+02
   1.0502560e+03   3.1693750e+02
   1.0507380e+03   3.0134380e+02
   1.0512200e+03   2.8004690e+02
   1.0517030e+03   2.5273440e+02
   1.0521850e+03   2.2600780e+02
   1.0526670e+03   1.9087500e+02
   1.0531490e+03   1.1903120e+02
   1.0536310e+03   1.4523440e+01
   1.0541130e+03   8.7476560e+01
   1.0545950e+03   4.5789060e+01
   1.0550770e+03   3.7085940e+01
   1.0555590e+03   1.3235160e+02
   1.0560420e+03   2.3282810e+02
   1.0565240e+03   2.9300000e+02
   1.0570060e+03   3.1732810e+02
   1.0574880e+03   3.4034380e+02
   1.0579700e+03   3.8675000e+02
   1.0584520e+03   4.3155470e+02
   1.0589340e+03   4.5985160e+02
   1.0594160e+03   4.7607810e+02
   1.0598990e+03   4.7968750e+02
   1.0603810e+03   4.8042190e+02
   1.0608630e+03   4.8190620e+02
   1.0613450e+03   4.7257810e+02
   1.0618270e+03   4.6414840e+02
   1.0623090e+03   4.6960160e+02
   1.0627910e+03   4.8425000e+02
   1.0632730e+03   5.0530470e+02
   1.0637550e+03   5.3128910e+02
   1.0642380e+03   5.4485940e+02
   1.0647200e+03   4.9885940e+02
   1.0652020e+03   4.9893750e+02
   1.0656840e+03   6.0223440e+02
   1.0661660e+03   7.5342190e+02
   1.0666480e+03   7.8631250e+02
   1.0671300e+03   7.2138280e+02
   1.0676120e+03   6.5975000e+02
   1.0680940e+03   6.4291410e+02
   1.0685770e+03   6.1346880e+02
   1.0690590e+03   5.0050780e+02
   1.0695410e+03   3.8325000e+02
   1.0700230e+03   3.4286720e+02
   1.0705050e+03   3.9721880e+02
   1.0709870e+03   4.2785160e+02
   1.0714690e+03   4.3886720e+02
   1.0719510e+03   4.3863280e+02
   1.0724340e+03   4.4229690e+02
   1.0729160e+03   4.2957030e+02
   1.0733980e+03   3.5653120e+02
   1.0738800e+03   2.4789060e+02
   1.0743620e+03   1.8892190e+02
   1.0748440e+03   1.9366410e+02
   1.0753260e+03   2.6787500e+02
   1.0758080e+03   4.5609380e+02
   1.0762910e+03   6.3859380e+02
   1.0767730e+03   6.0928910e+02
   1.0772550e+03   4.4198440e+02
   1.0777370e+03   3.4895310e+02
   1.0782190e+03   3.6353120e+02
   1.0787010e+03   3.9589840e+02
   1.0791830e+03   4.0085160e+02
   1.0796650e+03   4.1517970e+02
   1.0801470e+03   4.8671880e+02
   1.0806300e+03   5.8634380e+02
   1.0811120e+03   5.0335940e+02
   1.0815940e+03   2.4577340e+02
   1.0820760e+03   7.4570310e+01
   1.0825580e+03   1.2785160e+02
   1.0830400e+03   2.2763280e+02
   1.0835220e+03   2.1175000e+02
   1.0840040e+03   1.4605470e+02
   1.0844860e+03   1.2686720e+02
   1.0849690e+03   1.8946880e+02
   1.0854510e+03   2.2021880e+02
   1.0859330e+03   2.1034380e+02
   1.0864150e+03   1.9641410e+02
   1.0868970e+03   2.3044530e+02
   1.0873790e+03   2.7212500e+02
   1.0878610e+03   2.2037500e+02
   1.0883430e+03   9.5187500e+01
   1.0888260e+03   9.3437500e+00
   1.0893080e+03   2.7093750e+01
   1.0897900e+03   6.1437500e+01
   1.0902720e+03   9.8960940e+01
   1.0907540e+03   1.4148440e+02
   1.0912360e+03   2.0540620e+02
   1.0917180e+03   2.7942190e+02
   1.0922000e+03   3.0572660e+02
   1.0926820e+03   2.7243750e+02
   1.0931650e+03   2.3142970e+02
   1.0936470e+03   2.1172660e+02
   1.0941290e+03   1.9721090e+02
   1.0946110e+03   1.7851560e+02
   1.0950930e+03   1.5588280e+02
   1.0955750e+03   1.2695310e+02
   1.0960570e+03   9.0429690e+01
   1.0965390e+03   7.8703120e+01
   1.0970220e+03   1.1226560e+02
   1.0975040e+03   1.5615620e+02
   1.0979860e+03   1.9582030e+02
   1.0984680e+03   2.1517190e+02
   1.0989500e+03   1.8311720e+02
   1.0994320e+03   4.7546880e+01
   1.0999140e+03   3.5078130e+00
   1.1003960e+03   4.7210940e+01
   1.1008790e+03   1.2792190e+02
   1.1013610e+03   2.2073440e+02
   1.1018430e+03   2.9253910e+02
   1.1023250e+03   2.4494530e+02
   1.1028070e+03   1.1382810e+02
   1.1032890e+03   3.4820310e+01
   1.1037710e+03   1.1170310e+02
   1.1042530e+03   1.7478120e+02
   1.1047350e+03   1.9535160e+02
   1.1052180e+03   1.8952340e+02
   1.1057000e+03   1.7109380e+02
   1.1061820e+03   1.4425000e+02
   1.1066640e+03   1.2650780e+02
   1.1071460e+03   1.1976560e+02
   1.1076280e+03   1.3225000e+02
   1.1081100e+03   1.9655470e+02
   1.1085920e+03   2.5385160e+02
   1.1090740e+03   2.7604690e+02
   1.1095570e+03   2.6403910e+02
   1.1100390e+03   2.0344530e+02
   1.1105210e+03   9.2898440e+01
   1.1110030e+03   6.5625000e+00
   1.1114850e+03   3.5171880e+01
   1.1119670e+03   5.2968750e+01
   1.1124490e+03   5.0656250e+01
   1.1129310e+03   2.8718750e+01
   1.1134140e+03   8.0078130e+00
   1.1138960e+03   5.8085940e+01
   1.1143780e+03   1.3463280e+02
   1.1148600e+03   2.5050000e+02
   1.1153420e+03   3.3775000e+02
   1.1158240e+03   3.6169530e+02
   1.1163060e+03   3.3084380e+02
   1.1167880e+03   1.9569530e+02
   1.1172710e+03   2.4140620e+01
   1.1177530e+03   3.3687500e+01
   1.1182350e+03   2.0992970e+02
   1.1187170e+03   3.5882030e+02
   1.1191990e+03   3.6233590e+02
   1.1196810e+03   3.1813280e+02
   1.1201630e+03   3.1593750e+02
   1.1206450e+03   3.4492970e+02
   1.1211270e+03   3.8532030e+02
   1.1216090e+03   4.3242190e+02
   1.1220920e+03   4.5191410e+02
   1.1225740e+03   3.7781250e+02
   1.1230560e+03   3.3334380e+02
   1.1235380e+03   3.6679690e+02
   1.1240200e+03   4.4505470e+02
   1.1245020e+03   5.4174220e+02
   1.1249840e+03   6.4342190e+02
   1.1254660e+03   6.0010160e+02
   1.1259490e+03   3.6657810e+02
   1.1264310e+03   1.5245310e+02
   1.1269130e+03   1.4201560e+02
   1.1273950e+03   1.7389060e+02
   1.1278770e+03   1.1904690e+02
   1.1283590e+03   8.3203130e+00
   1.1288410e+03   7.4953120e+01
   1.1293230e+03   7.9031250e+01
   1.1298060e+03   5.0554690e+01
   1.1302880e+03   7.8125000e+00
   1.1307700e+03   7.6460940e+01
   1.1312520e+03   1.4820310e+02
   1.1317340e+03   2.1264060e+02
   1.1322160e+03   2.5098440e+02
   1.1326980e+03   2.4992190e+02
   1.1331800e+03   2.7456250e+02
   1.1336620e+03   3.3539840e+02
   1.1341450e+03   3.7492970e+02
   1.1346270e+03   3.3725780e+02
   1.1351090e+03   2.6859380e+02
   1.1355910e+03   2.3792190e+02
   1.1360730e+03   2.3524220e+02
   1.1365550e+03   2.3475780e+02
   1.1370370e+03   2.2948440e+02
   1.1375190e+03   2.2770310e+02
   1.1380010e+03   2.3421880e+02
   1.1384840e+03   2.3503120e+02
   1.1389660e+03   2.1593750e+02
   1.1394480e+03   1.7944530e+02
   1.1399300e+03   1.0440620e+02
   1.1404120e+03   2.3750000e+00
   1.1408940e+03   2.4921880e+01
   1.1413760e+03   1.5913280e+02
   1.1418580e+03   3.1332810e+02
   1.1423410e+03   3.6797660e+02
   1.1428230e+03   3.6405470e+02
   1.1433050e+03   3.4275000e+02
   1.1437870e+03   3.1453120e+02
   1.1442690e+03   3.4793750e+02
   1.1447510e+03   4.6521090e+02
   1.1452330e+03   5.2121880e+02
   1.1457150e+03   3.4695310e+02
   1.1461980e+03   1.7548440e+02
   1.1466800e+03   1.3239840e+02
   1.1471620e+03   1.9714060e+02
   1.1476440e+03   2.8352340e+02
   1.1481260e+03   3.9010940e+02
   1.1486080e+03   4.9325000e+02
   1.1490900e+03   6.0357030e+02
   1.1495720e+03   6.6539060e+02
   1.1500540e+03   6.3092190e+02
   1.1505360e+03   5.3032810e+02
   1.1510190e+03   3.6394530e+02
   1.1515010e+03   1.1896880e+02
   1.1519830e+03   5.3781250e+01
   1.1524650e+03   1.7568750e+02
   1.1529470e+03   2.8278910e+02
   1.1534290e+03   2.3540620e+02
   1.1539110e+03   1.5939840e+02
   1.1543930e+03   1.9304690e+02
   1.1548760e+03   2.7534380e+02
   1.1553580e+03   2.9044530e+02
   1.1558400e+03   1.8263280e+02
   1.1563220e+03   1.7162500e+02
   1.1568040e+03   2.8082810e+02
   1.1572860e+03   3.7994530e+02
   1.1577680e+03   3.0782810e+02
   1.1582500e+03   2.0554690e+02
   1.1587330e+03   2.9282810e+02
   1.1592150e+03   5.1100780e+02
   1.1596970e+03   6.2128910e+02
   1.1601790e+03   5.4685160e+02
   1.1606610e+03   4.5273440e+02
   1.1611430e+03   3.4648440e+02
   1.1616250e+03   2.5586720e+02
   1.1621070e+03   2.1452340e+02
   1.1625890e+03   2.0778120e+02
   1.1630720e+03   2.1525000e+02
   1.1635540e+03   2.3439840e+02
   1.1640360e+03   2.6046090e+02
   1.1645180e+03   3.1267970e+02
   1.1650000e+03   3.4337500e+02
   1.1654820e+03   3.2860160e+02
   1.1659640e+03   2.9000780e+02
   1.1664460e+03   2.5955470e+02
   1.1669280e+03   2.4699220e+02
   1.1674110e+03   2.9127340e+02
   1.1678930e+03   4.0138280e+02
   1.1683750e+03   4.8671090e+02
   1.1688570e+03   5.1772660e+02
   1.1693390e+03   5.4645310e+02
   1.1698210e+03   6.2124220e+02
   1.1703030e+03   6.8863280e+02
   1.1707850e+03   5.5731250e+02
   1.1712680e+03   2.9846090e+02
   1.1717500e+03   1.5421090e+02
   1.1722320e+03   2.5747660e+02
   1.1727140e+03   3.3785160e+02
   1.1731960e+03   2.4252340e+02
   1.1736780e+03   1.3529690e+02
   1.1741600e+03   1.1837500e+02
   1.1746420e+03   1.7618750e+02
   1.1751250e+03   2.1420310e+02
   1.1756070e+03   2.3158590e+02
   1.1760890e+03   2.3114840e+02
   1.1765710e+03   1.6803120e+02
   1.1770530e+03   1.4229690e+02
   1.1775350e+03   2.4604690e+02
   1.1780170e+03   3.7220310e+02
   1.1784990e+03   4.3005470e+02
   1.1789810e+03   4.2029690e+02
   1.1794640e+03   3.3224220e+02
   1.1799460e+03   1.7258590e+02
   1.1804280e+03   4.4320310e+01
   1.1809100e+03   1.0046880e+01
   1.1813920e+03   8.0703130e+00
   1.1818740e+03   1.7107810e+02
   1.1823560e+03   3.7057810e+02
   1.1828380e+03   4.3588280e+02
   1.1833200e+03   3.6337500e+02
   1.1838030e+03   2.8226560e+02
   1.1842850e+03   2.0215620e+02
   1.1847670e+03   1.3764060e+02
   1.1852490e+03   7.9523440e+01
   1.1857310e+03   5.9312500e+01
   1.1862130e+03   1.2327340e+02
   1.1866950e+03   2.3603120e+02
   1.1871770e+03   3.2006250e+02
   1.1876600e+03   3.7456250e+02
   1.1881420e+03   4.0472660e+02
   1.1886240e+03   4.0719530e+02
   1.1891060e+03   3.8875780e+02
   1.1895880e+03   3.2683590e+02
   1.1900700e+03   2.7040620e+02
   1.1905520e+03   2.6038280e+02
   1.1910340e+03   2.9525000e+02
   1.1915160e+03   3.6761720e+02
   1.1919990e+03   4.8928910e+02
   1.1924810e+03   5.1885940e+02
   1.1929630e+03   3.9114060e+02
   1.1934450e+03   2.7731250e+02
   1.1939270e+03   4.1478120e+02
   1.1944090e+03   6.0754690e+02
   1.1948910e+03   6.4568750e+02
   1.1953730e+03   5.1217970e+02
   1.1958550e+03   3.8777340e+02
   1.1963380e+03   2.6825780e+02
   1.1968200e+03   1.9646090e+02
   1.1973020e+03   2.1704690e+02
   1.1977840e+03   2.3444530e+02
   1.1982660e+03   7.0421880e+01
   1.1987480e+03   1.2142970e+02
   1.1992300e+03   1.1247660e+02
   1.1997120e+03   1.6304690e+02
   1.2001950e+03   3.2096880e+02
   1.2006770e+03   3.5328910e+02
   1.2011590e+03   3.2190620e+02
   1.2016410e+03   2.2182810e+02
   1.2021230e+03   1.2214840e+02
   1.2026050e+03   1.0777340e+02
   1.2030870e+03   1.4688280e+02
   1.2035690e+03   1.9320310e+02
   1.2040520e+03   2.6582810e+02
   1.2045340e+03   2.5185160e+02
   1.2050160e+03   1.3056250e+02
   1.2054980e+03   4.7179690e+01
   1.2059800e+03   1.6939840e+02
   1.2064620e+03   3.2860940e+02
   1.2069440e+03   2.9883590e+02
   1.2074260e+03   1.6036720e+02
   1.2079080e+03   1.0475780e+02
   1.2083910e+03   1.9038280e+02
   1.2088730e+03   2.3361720e+02
   1.2093550e+03   2.2031250e+02
   1.2098370e+03   2.0128910e+02
   1.2103190e+03   2.1517970e+02
   1.2108010e+03   2.4987500e+02
   1.2112830e+03   3.1406250e+02
   1.2117650e+03   3.8795310e+02
   1.2122470e+03   3.9424220e+02
   1.2127300e+03   2.9792970e+02
   1.2132120e+03   2.4170310e+02
   1.2136940e+03   2.4778120e+02
   1.2141760e+03   2.5935160e+02
   1.2146580e+03   2.1222660e+02
   1.2151400e+03   1.4739060e+02
   1.2156220e+03   1.0685160e+02
   1.2161040e+03   9.2515620e+01
   1.2165870e+03   9.6382810e+01
   1.2170690e+03   1.1743750e+02
   1.2175510e+03   1.5558590e+02
   1.2180330e+03   2.1342190e+02
   1.2185150e+03   2.7646880e+02
   1.2189970e+03   3.3229690e+02
   1.2194790e+03   3.8153120e+02
   1.2199610e+03   4.5516410e+02
   1.2204430e+03   5.3999220e+02
   1.2209260e+03   4.6810940e+02
   1.2214080e+03   1.7702340e+02
   1.2218900e+03   3.2960940e+01
   1.2223720e+03   8.6960940e+01
   1.2228540e+03   5.7101560e+01
   1.2233360e+03   3.8250000e+01
   1.2238180e+03   1.2549220e+02
   1.2243000e+03   8.4125000e+01
   1.2247820e+03   1.0314060e+02
   1.2252650e+03   1.2774220e+02
   1.2257470e+03   5.8617190e+01
   1.2262290e+03   1.6707810e+02
   1.2267110e+03   7.8023440e+01
   1.2271930e+03   3.8929690e+01
   1.2276750e+03   4.9726560e+01
   1.2281570e+03   2.1189840e+02
   1.2286390e+03   2.8475780e+02
   1.2291220e+03   2.4192970e+02
   1.2296040e+03   2.2500000e+02
   1.2300860e+03   2.4208590e+02
   1.2305680e+03   2.2978120e+02
   1.2310500e+03   1.4849220e+02
   1.2315320e+03   5.7671880e+01
   1.2320140e+03   3.7742190e+01
   1.2324960e+03   5.1226560e+01
   1.2329790e+03   4.8812500e+01
   1.2334610e+03   2.2406250e+01
   1.2339430e+03   2.0109380e+01
   1.2344250e+03   4.2304690e+01
   1.2349070e+03   8.3101560e+01
   1.2353890e+03   1.5652340e+02
   1.2358710e+03   2.2032810e+02
   1.2363530e+03   1.9095310e+02
   1.2368350e+03   1.5188280e+02
   1.2373180e+03   2.4801560e+02
   1.2378000e+03   5.2705470e+02
   1.2382820e+03   5.5525780e+02
   1.2387640e+03   3.1787500e+02
   1.2392460e+03   9.8078120e+01
   1.2397280e+03   5.1460940e+01
   1.2402100e+03   8.6750000e+01
   1.2406920e+03   1.8943750e+02
   1.2411750e+03   2.9665620e+02
   1.2416570e+03   3.1206250e+02
   1.2421390e+03   2.1146880e+02
   1.2426210e+03   1.9559380e+02
   1.2431030e+03   2.6542190e+02
   1.2435850e+03   2.9739840e+02
   1.2440670e+03   1.2856250e+02
   1.2445490e+03   8.5234380e+00
   1.2450310e+03   9.4507810e+01
   1.2455140e+03   2.9899220e+02
   1.2459960e+03   4.0352340e+02
   1.2464780e+03   3.9947660e+02
   1.2469600e+03   4.2729690e+02
   1.2474420e+03   4.8700000e+02
   1.2479240e+03   5.1478120e+02
   1.2484060e+03   4.6434380e+02
   1.2488880e+03   3.7762500e+02
   1.2493700e+03   2.3828120e+02
   1.2498530e+03   1.0085940e+02
   1.2503350e+03   3.4421880e+01
   1.2508170e+03   3.8093750e+01
   1.2512990e+03   7.9875000e+01
   1.2517810e+03   1.5653910e+02
   1.2522630e+03   2.3585940e+02
   1.2527450e+03   3.5491410e+02
   1.2532270e+03   4.4064060e+02
   1.2537100e+03   4.1765620e+02
   1.2541920e+03   3.5788280e+02
   1.2546740e+03   3.5600000e+02
   1.2551560e+03   4.0072660e+02
   1.2556380e+03   4.1466410e+02
   1.2561200e+03   3.9349220e+02
   1.2566020e+03   3.4620310e+02
   1.2570840e+03   2.2742970e+02
   1.2575670e+03   1.5005470e+02
   1.2580490e+03   1.6147660e+02
   1.2585310e+03   2.1200780e+02
   1.2590130e+03   2.3884380e+02
   1.2594950e+03   2.4648440e+02
   1.2599770e+03   2.5082810e+02
   1.2604590e+03   2.5266410e+02
   1.2609410e+03   2.4751560e+02
   1.2614230e+03   1.8306250e+02
   1.2619060e+03   1.9223440e+02
   1.2623880e+03   3.4459380e+02
   1.2628700e+03   5.1346090e+02
   1.2633520e+03   4.8443750e+02
   1.2638340e+03   3.3492190e+02
   1.2643160e+03   2.3214060e+02
   1.2647980e+03   2.1822660e+02
   1.2652800e+03   2.4239060e+02
   1.2657620e+03   3.5788280e+02
   1.2662450e+03   4.5158590e+02
   1.2667270e+03   4.8941410e+02
   1.2672090e+03   4.7625000e+02
   1.2676910e+03   3.3909380e+02
   1.2681730e+03   1.7200780e+02
   1.2686550e+03   1.6028910e+02
   1.2691370e+03   3.0708590e+02
   1.2696190e+03   3.7208590e+02
   1.2701020e+03   2.6955470e+02
   1.2705840e+03   2.6340620e+02
   1.2710660e+03   4.3704690e+02
   1.2715480e+03   6.2347660e+02
   1.2720300e+03   5.9150000e+02
   1.2725120e+03   4.6275780e+02
   1.2729940e+03   3.5070310e+02
   1.2734760e+03   2.7604690e+02
   1.2739580e+03   3.1367970e+02
   1.2744410e+03   5.1060160e+02
   1.2749230e+03   5.6360940e+02
   1.2754050e+03   3.6796880e+02
   1.2758870e+03   1.7752340e+02
   1.2763690e+03   3.1943750e+02
   1.2768510e+03   5.3510940e+02
   1.2773330e+03   5.4787500e+02
   1.2778150e+03   3.9069530e+02
   1.2782970e+03   3.6256250e+02
   1.2787800e+03   4.7071090e+02
   1.2792620e+03   5.6567190e+02
   1.2797440e+03   6.2207810e+02
   1.2802260e+03   6.0017190e+02
   1.2807080e+03   3.7511720e+02
   1.2811900e+03   1.4415620e+02
   1.2816720e+03   4.2953120e+01
   1.2821540e+03   5.2906250e+01
   1.2826370e+03   1.4142970e+02
   1.2831190e+03   2.9800780e+02
   1.2836010e+03   4.2644530e+02
   1.2840830e+03   5.1224220e+02
   1.2845650e+03   5.3827340e+02
   1.2850470e+03   4.2552340e+02
   1.2855290e+03   3.3157810e+02
   1.2860110e+03   3.6086720e+02
   1.2864940e+03   4.4199220e+02
   1.2869760e+03   3.4185940e+02
   1.2874580e+03   1.2063280e+02
   1.2879400e+03   2.6226560e+01
   1.2884220e+03   6.0265620e+01
   1.2889040e+03   6.3671880e+00
   1.2893860e+03   2.2288280e+02
   1.2898680e+03   4.1167190e+02
   1.2903500e+03   4.9271880e+02
   1.2908330e+03   4.8699220e+02
   1.2913150e+03   3.9155470e+02
   1.2917970e+03   2.5381250e+02
   1.2922790e+03   1.7326560e+02
   1.2927610e+03   1.7642970e+02
   1.2932430e+03   1.5428910e+02
   1.2937250e+03   6.0875000e+01
   1.2942070e+03   3.8820310e+01
   1.2946890e+03   1.6692970e+02
   1.2951720e+03   3.1225000e+02
   1.2956540e+03   2.3179690e+02
   1.2961360e+03   7.6218750e+01
   1.2966180e+03   6.6523440e+01
   1.2971000e+03   2.2900000e+02
   1.2975820e+03   2.9778910e+02
   1.2980640e+03   2.3542970e+02
   1.2985460e+03   1.7104690e+02
   1.2990290e+03   1.3732030e+02
   1.2995110e+03   1.4013280e+02
   1.2999930e+03   2.4555470e+02
   1.3004750e+03   3.4598440e+02
   1.3009570e+03   2.9743750e+02
   1.3014390e+03   1.3291410e+02
   1.3019210e+03   8.8421880e+01
   1.3024030e+03   1.5753910e+02
   1.3028850e+03   1.8896090e+02
   1.3033680e+03   1.3366410e+02
   1.3038500e+03   6.7664060e+01
   1.3043320e+03   9.0468750e+00
   1.3048140e+03   1.1484380e+00
   1.3052960e+03   0.0000000e+00
   1.5000000e+03   0.0000000e+00
