   1.0000000e+02   0.0000000e+00
   1.5695720e+02   0.0000000e+00
   1.5743930e+02   2.0647800e-01
   1.5792140e+02   3.3245500e-01
   1.5840350e+02   9.5675997e-02
   1.5888560e+02   9.7080003e-03
   1.5936770e+02   2.1296100e-01
   1.5984990e+02   4.3884500e-01
   1.6033200e+02   4.5620300e-01
   1.6081410e+02   3.3367000e-01
   1.6129620e+02   5.1160600e-01
   1.6177830e+02   1.5168910e+00
   1.6226040e+02   2.6400170e+00
   1.6274260e+02   3.2952770e+00
   1.6322470e+02   2.7694820e+00
   1.6370680e+02   2.0135900e+00
   1.6418890e+02   1.2111820e+00
   1.6467100e+02   4.0268700e-01
   1.6515310e+02   2.0390000e-02
   1.6563530e+02   7.4748200e-01
   1.6611740e+02   1.7852920e+00
   1.6659950e+02   2.3093830e+00
   1.6708160e+02   1.3799290e+00
   1.6756370e+02   3.0271700e-01
   1.6804580e+02   3.8490001e-02
   1.6852800e+02   3.6831300e-01
   1.6901010e+02   9.8180800e-01
   1.6949220e+02   1.7340600e+00
   1.6997430e+02   2.4500120e+00
   1.7045640e+02   2.8595620e+00
   1.7093850e+02   2.7731040e+00
   1.7142070e+02   2.4066220e+00
   1.7190280e+02   1.8347430e+00
   1.7238490e+02   1.0511470e+00
   1.7286700e+02   5.4024300e-01
   1.7334910e+02   3.0792400e-01
   1.7383120e+02   3.6953500e-01
   1.7431340e+02   5.0770200e-01
   1.7479550e+02   7.2611800e-01
   1.7527760e+02   9.2230000e-01
   1.7575970e+02   8.9459400e-01
   1.7624180e+02   5.9557000e-01
   1.7672390e+02   3.5653100e-01
   1.7720610e+02   6.5822200e-01
   1.7768820e+02   1.2833120e+00
   1.7817030e+02   1.6704100e+00
   1.7865240e+02   1.2343010e+00
   1.7913450e+02   4.7134400e-01
   1.7961660e+02   3.3697700e-01
   1.8009880e+02   9.8836700e-01
   1.8058090e+02   1.7348140e+00
   1.8106300e+02   1.6966550e+00
   1.8154510e+02   1.0266090e+00
   1.8202720e+02   4.2336500e-01
   1.8250930e+02   3.0260300e-01
   1.8299150e+02   5.0868400e-01
   1.8347360e+02   6.5214200e-01
   1.8395570e+02   6.8446000e-01
   1.8443780e+02   7.3557500e-01
   1.8491990e+02   1.0943090e+00
   1.8540200e+02   1.6970140e+00
   1.8588420e+02   2.1356960e+00
   1.8636630e+02   2.1433070e+00
   1.8684840e+02   1.7941400e+00
   1.8733050e+02   1.2881010e+00
   1.8781260e+02   5.6204000e-01
   1.8829470e+02   1.2566800e-01
   1.8877690e+02   2.7984800e-01
   1.8925900e+02   7.5258002e-02
   1.8974110e+02   4.3788000e-01
   1.9022320e+02   4.2390300e-01
   1.9070530e+02   1.2042800e-01
   1.9118740e+02   1.3548100e-01
   1.9166960e+02   6.5033700e-01
   1.9215170e+02   1.3156700e+00
   1.9263380e+02   1.6319030e+00
   1.9311590e+02   1.6154000e+00
   1.9359800e+02   1.5294760e+00
   1.9408010e+02   1.6586950e+00
   1.9456230e+02   1.8941000e+00
   1.9504440e+02   1.8388330e+00
   1.9552650e+02   1.4924320e+00
   1.9600860e+02   1.0373310e+00
   1.9649070e+02   7.4880000e-01
   1.9697280e+02   6.3603400e-01
   1.9745500e+02   6.2848500e-01
   1.9793710e+02   7.4706800e-01
   1.9841920e+02   9.9197800e-01
   1.9890130e+02   1.0908510e+00
   1.9938340e+02   9.8015400e-01
   1.9986550e+02   7.5443800e-01
   2.0034770e+02   6.2644000e-01
   2.0082980e+02   6.0177400e-01
   2.0131190e+02   6.5416500e-01
   2.0179400e+02   8.1608800e-01
   2.0227610e+02   1.1092780e+00
   2.0275820e+02   1.2647800e+00
   2.0324040e+02   1.2380830e+00
   2.0372250e+02   1.0759070e+00
   2.0420460e+02   8.4672000e-01
   2.0468670e+02   4.8423400e-01
   2.0516880e+02   2.8101700e-01
   2.0565090e+02   5.1153600e-01
   2.0613310e+02   1.2747060e+00
   2.0661520e+02   1.8109780e+00
   2.0709730e+02   1.9958590e+00
   2.0757940e+02   1.9446470e+00
   2.0806150e+02   2.0283490e+00
   2.0854360e+02   2.3034650e+00
   2.0902580e+02   2.5649470e+00
   2.0950790e+02   2.6711440e+00
   2.0999000e+02   2.5864200e+00
   2.1047210e+02   2.5230880e+00
   2.1095420e+02   2.5333520e+00
   2.1143630e+02   2.5643140e+00
   2.1191850e+02   2.4011170e+00
   2.1240060e+02   1.9452670e+00
   2.1288270e+02   1.5056000e+00
   2.1336480e+02   1.3001750e+00
   2.1384690e+02   1.4002250e+00
   2.1432900e+02   1.4555990e+00
   2.1481120e+02   1.4319420e+00
   2.1529330e+02   1.3467600e+00
   2.1577540e+02   1.3317470e+00
   2.1625750e+02   1.4116630e+00
   2.1673960e+02   1.5168060e+00
   2.1722170e+02   1.6219100e+00
   2.1770390e+02   1.7413180e+00
   2.1818600e+02   1.8007770e+00
   2.1866810e+02   1.7707670e+00
   2.1915020e+02   1.6812310e+00
   2.1963230e+02   1.6561930e+00
   2.2011440e+02   1.7680720e+00
   2.2059660e+02   1.8211780e+00
   2.2107870e+02   1.6627010e+00
   2.2156080e+02   1.1400740e+00
   2.2204290e+02   8.3405500e-01
   2.2252500e+02   8.5351000e-01
   2.2300710e+02   1.1040170e+00
   2.2348930e+02   1.2720300e+00
   2.2397140e+02   1.3917770e+00
   2.2445350e+02   1.3704340e+00
   2.2493560e+02   1.1087530e+00
   2.2541770e+02   4.1059300e-01
   2.2589980e+02   5.3080000e-02
   2.2638200e+02   1.9188100e-01
   2.2686410e+02   7.4165002e-02
   2.2734620e+02   1.1191400e-01
   2.2782830e+02   4.5593300e-01
   2.2831040e+02   7.3165300e-01
   2.2879250e+02   8.1528100e-01
   2.2927470e+02   6.4816300e-01
   2.2975680e+02   4.0700700e-01
   2.3023890e+02   5.6653590e-01
   2.3072100e+02   4.1354800e-01
   2.3120310e+02   6.7357100e-01
   2.3168520e+02   7.4576400e-01
   2.3216740e+02   6.4200000e-01
   2.3264950e+02   3.1500400e-01
   2.3313160e+02   4.7460700e-01
   2.3361370e+02   3.1251580e-01
   2.3409580e+02   8.4170000e-01
   2.3457790e+02   4.3935000e-01
   2.3506010e+02   3.6131700e-01
   2.3554220e+02   8.4505800e-01
   2.3602430e+02   1.3058090e+00
   2.3650640e+02   1.4759460e+00
   2.3698850e+02   1.2272050e+00
   2.3747060e+02   9.5948200e-01
   2.3795280e+02   6.3394500e-01
   2.3843490e+02   3.0532100e-01
   2.3891700e+02   1.2604900e-01
   2.3939910e+02   1.5688300e-01
   2.3988120e+02   2.4468600e-01
   2.4036330e+02   3.2386000e-01
   2.4084550e+02   3.6502500e-01
   2.4132760e+02   4.8863200e-01
   2.4180970e+02   7.7853000e-01
   2.4229180e+02   1.1176550e+00
   2.4277390e+02   1.2287030e+00
   2.4325600e+02   9.7378900e-01
   2.4373820e+02   7.0386700e-01
   2.4422030e+02   5.5438000e-01
   2.4470240e+02   5.7158700e-01
   2.4518450e+02   5.7760200e-01
   2.4566660e+02   5.5541000e-01
   2.4614870e+02   5.1395000e-01
   2.4663090e+02   5.0237100e-01
   2.4711300e+02   5.4234300e-01
   2.4759510e+02   6.4271500e-01
   2.4807720e+02   8.3060100e-01
   2.4855930e+02   1.1588210e+00
   2.4904140e+02   1.3672580e+00
   2.4952360e+02   1.3916850e+00
   2.5000570e+02   1.3378220e+00
   2.5048780e+02   1.3905580e+00
   2.5096990e+02   1.6091710e+00
   2.5145200e+02   1.8335720e+00
   2.5193410e+02   2.0586780e+00
   2.5241630e+02   2.3496340e+00
   2.5289840e+02   2.2910250e+00
   2.5338050e+02   1.6725770e+00
   2.5386260e+02   8.6319000e-01
   2.5434470e+02   4.1714100e-01
   2.5482680e+02   4.1960500e-01
   2.5530900e+02   6.0367200e-01
   2.5579110e+02   9.5455000e-01
   2.5627320e+02   1.5169490e+00
   2.5675530e+02   1.8782520e+00
   2.5723740e+02   1.9788490e+00
   2.5771950e+02   1.9362960e+00
   2.5820170e+02   1.8620200e+00
   2.5868380e+02   1.6704240e+00
   2.5916590e+02   1.6862740e+00
   2.5964800e+02   2.0446130e+00
   2.6013010e+02   2.7892490e+00
   2.6061220e+02   3.1922860e+00
   2.6109440e+02   3.1758920e+00
   2.6157650e+02   2.9192030e+00
   2.6205860e+02   2.5464500e+00
   2.6254070e+02   1.9492340e+00
   2.6302280e+02   1.5373840e+00
   2.6350490e+02   1.4998190e+00
   2.6398710e+02   1.8096830e+00
   2.6446920e+02   1.7141760e+00
   2.6495130e+02   9.3497100e-01
   2.6543340e+02   1.9385100e-01
   2.6591550e+02   3.0081900e-01
   2.6639760e+02   1.6386110e+00
   2.6687980e+02   2.4956930e+00
   2.6736190e+02   2.4025690e+00
   2.6784400e+02   1.5098630e+00
   2.6832610e+02   1.0742320e+00
   2.6880820e+02   1.2271820e+00
   2.6929030e+02   1.5598930e+00
   2.6977250e+02   1.7405870e+00
   2.7025460e+02   1.7204340e+00
   2.7073670e+02   1.7907730e+00
   2.7121880e+02   2.0456580e+00
   2.7170090e+02   2.3985860e+00
   2.7218300e+02   2.3751510e+00
   2.7266520e+02   1.8218570e+00
   2.7314730e+02   1.3132020e+00
   2.7362940e+02   1.3341560e+00
   2.7411150e+02   2.0150410e+00
   2.7459360e+02   2.3946290e+00
   2.7507570e+02   2.2825580e+00
   2.7555790e+02   1.8789790e+00
   2.7604000e+02   1.7680720e+00
   2.7652210e+02   1.9950010e+00
   2.7700420e+02   2.3311210e+00
   2.7748630e+02   2.7360310e+00
   2.7796840e+02   3.2388400e+00
   2.7845060e+02   3.3737430e+00
   2.7893270e+02   3.0177380e+00
   2.7941480e+02   2.3962210e+00
   2.7989690e+02   1.9517060e+00
   2.8037900e+02   1.6891820e+00
   2.8086110e+02   1.5688860e+00
   2.8134330e+02   1.6149850e+00
   2.8182540e+02   1.8265250e+00
   2.8230750e+02   2.0215990e+00
   2.8278960e+02   2.2190690e+00
   2.8327170e+02   2.3489000e+00
   2.8375380e+02   2.2326530e+00
   2.8423600e+02   1.8613870e+00
   2.8471810e+02   1.5635200e+00
   2.8520020e+02   1.5197350e+00
   2.8568230e+02   1.6910360e+00
   2.8616440e+02   1.7748280e+00
   2.8664650e+02   1.7445600e+00
   2.8712870e+02   1.7162440e+00
   2.8761080e+02   1.9287660e+00
   2.8809290e+02   2.3547080e+00
   2.8857500e+02   2.5481740e+00
   2.8905710e+02   2.2465860e+00
   2.8953920e+02   1.6054440e+00
   2.9002140e+02   1.2250040e+00
   2.9050350e+02   1.1390690e+00
   2.9098560e+02   1.1752620e+00
   2.9146770e+02   1.1625790e+00
   2.9194980e+02   1.0970500e+00
   2.9243190e+02   9.4148400e-01
   2.9291410e+02   5.7674600e-01
   2.9339620e+02   1.7405700e-01
   2.9387830e+02   2.2051000e-01
   2.9436040e+02   7.2301300e-01
   2.9484250e+02   1.2420480e+00
   2.9532460e+02   1.3614980e+00
   2.9580680e+02   1.1840930e+00
   2.9628890e+02   1.0617200e+00
   2.9677100e+02   1.1240020e+00
   2.9725310e+02   1.2280220e+00
   2.9773520e+02   1.1001930e+00
   2.9821730e+02   7.6484300e-01
   2.9869950e+02   4.2213400e-01
   2.9918160e+02   1.6651900e-01
   2.9966370e+02   1.3462000e-02
   3.0014580e+02   1.5453000e-02
   3.0062790e+02   2.0585100e-01
   3.0111000e+02   4.9859200e-01
   3.0159220e+02   9.0514900e-01
   3.0207430e+02   1.3619800e+00
   3.0255640e+02   1.6125600e+00
   3.0303850e+02   1.2592470e+00
   3.0352060e+02   6.8714000e-01
   3.0400270e+02   4.7829800e-01
   3.0448490e+02   7.6278500e-01
   3.0496700e+02   1.1888660e+00
   3.0544910e+02   1.4677090e+00
   3.0593120e+02   1.6311890e+00
   3.0641330e+02   1.7558290e+00
   3.0689540e+02   1.9470830e+00
   3.0737760e+02   2.0834120e+00
   3.0785970e+02   1.9756510e+00
   3.0834180e+02   1.5873830e+00
   3.0882390e+02   1.2463760e+00
   3.0930600e+02   1.2918030e+00
   3.0978810e+02   1.5287480e+00
   3.1027030e+02   1.6483420e+00
   3.1075240e+02   1.4458680e+00
   3.1123450e+02   1.1414700e+00
   3.1171660e+02   8.0330700e-01
   3.1219870e+02   4.4457200e-01
   3.1268080e+02   2.9799500e-01
   3.1316300e+02   7.7072300e-01
   3.1364510e+02   1.4201090e+00
   3.1412720e+02   1.7729420e+00
   3.1460930e+02   1.5198500e+00
   3.1509140e+02   1.0769790e+00
   3.1557350e+02   4.5027500e-01
   3.1605570e+02   2.7662700e-01
   3.1653780e+02   6.6117700e-01
   3.1701990e+02   8.7332003e-02
   3.1750200e+02   6.5238600e-01
   3.1798410e+02   9.5197300e-01
   3.1846620e+02   2.8411500e-01
   3.1894840e+02   2.5938000e-01
   3.1943050e+02   2.3397600e-01
   3.1991260e+02   1.9556000e-01
   3.2039470e+02   5.9649800e-01
   3.2087680e+02   9.1293500e-01
   3.2135890e+02   1.1169930e+00
   3.2184110e+02   1.1775910e+00
   3.2232320e+02   1.0333140e+00
   3.2280530e+02   8.8660400e-01
   3.2328740e+02   6.9906600e-01
   3.2376950e+02   5.4597500e-01
   3.2425160e+02   5.4640800e-01
   3.2473380e+02   8.9187000e-01
   3.2521590e+02   1.2336640e+00
   3.2569800e+02   1.5208990e+00
   3.2618010e+02   1.8060070e+00
   3.2666220e+02   1.7810440e+00
   3.2714430e+02   1.0138030e+00
   3.2762650e+02   1.0552400e-01
   3.2810860e+02   3.3918200e-01
   3.2859070e+02   3.6511999e-02
   3.2907280e+02   4.2975600e-01
   3.2955490e+02   1.0887470e+00
   3.3003700e+02   1.9468230e+00
   3.3051920e+02   2.5287400e+00
   3.3100130e+02   2.8188380e+00
   3.3148340e+02   2.8523580e+00
   3.3196550e+02   2.6287800e+00
   3.3244760e+02   1.9218290e+00
   3.3292970e+02   1.3456380e+00
   3.3341190e+02   9.9042700e-01
   3.3389400e+02   5.7279860e-01
   3.3437610e+02   5.8555000e-01
   3.3485820e+02   1.7342800e-01
   3.3534030e+02   5.4106001e-02
   3.3582240e+02   1.7787400e-01
   3.3630460e+02   1.1576650e+00
   3.3678670e+02   1.7195570e+00
   3.3726880e+02   1.7417600e+00
   3.3775090e+02   1.4147530e+00
   3.3823300e+02   1.0969750e+00
   3.3871510e+02   7.7978900e-01
   3.3919730e+02   5.0296800e-01
   3.3967940e+02   2.2271500e-01
   3.4016150e+02   7.4036002e-02
   3.4064360e+02   3.8291998e-02
   3.4112570e+02   7.0061900e-01
   3.4160780e+02   1.4649410e+00
   3.4209000e+02   1.6989650e+00
   3.4257210e+02   1.3559760e+00
   3.4305420e+02   1.0774230e+00
   3.4353630e+02   1.0652850e+00
   3.4401840e+02   1.2670310e+00
   3.4450050e+02   1.5237810e+00
   3.4498270e+02   1.8608720e+00
   3.4546480e+02   2.0551320e+00
   3.4594690e+02   1.7367670e+00
   3.4642900e+02   9.9425900e-01
   3.4691110e+02   5.8253500e-01
   3.4739320e+02   7.2340800e-01
   3.4787540e+02   1.1551250e+00
   3.4835750e+02   1.3789790e+00
   3.4883960e+02   1.4110950e+00
   3.4932170e+02   1.4508060e+00
   3.4980380e+02   1.6932350e+00
   3.5028590e+02   2.0390910e+00
   3.5076810e+02   2.2191390e+00
   3.5125020e+02   2.1680620e+00
   3.5173230e+02   2.0785540e+00
   3.5221440e+02   2.2000920e+00
   3.5269650e+02   2.4723910e+00
   3.5317860e+02   2.7101900e+00
   3.5366080e+02   2.8415550e+00
   3.5414290e+02   2.8813760e+00
   3.5462500e+02   2.7725010e+00
   3.5510710e+02   2.4783230e+00
   3.5558920e+02   2.3205260e+00
   3.5607140e+02   2.8225800e+00
   3.5655350e+02   3.5822830e+00
   3.5703560e+02   4.0009820e+00
   3.5751770e+02   3.6093250e+00
   3.5799980e+02   3.0131840e+00
   3.5848190e+02   2.5484700e+00
   3.5896410e+02   2.2222560e+00
   3.5944620e+02   2.0996060e+00
   3.5992830e+02   2.4912760e+00
   3.6041040e+02   2.9525870e+00
   3.6089250e+02   3.0758400e+00
   3.6137460e+02   2.5206530e+00
   3.6185680e+02   2.0494020e+00
   3.6233890e+02   2.1329020e+00
   3.6282100e+02   2.5329480e+00
   3.6330310e+02   2.7093370e+00
   3.6378520e+02   2.2906880e+00
   3.6426730e+02   1.7744030e+00
   3.6474950e+02   1.3805290e+00
   3.6523160e+02   1.1486110e+00
   3.6571370e+02   1.0295870e+00
   3.6619580e+02   8.9950000e-01
   3.6667790e+02   8.6126100e-01
   3.6716000e+02   1.0974850e+00
   3.6764220e+02   2.3778670e+00
   3.6812430e+02   3.1689870e+00
   3.6860640e+02   2.8829380e+00
   3.6908850e+02   1.4172840e+00
   3.6957060e+02   5.0353400e-01
   3.7005270e+02   4.2094800e-01
   3.7053490e+02   6.8837000e-01
   3.7101700e+02   1.0299590e+00
   3.7149910e+02   1.6349300e+00
   3.7198120e+02   1.8624250e+00
   3.7246330e+02   1.4407880e+00
   3.7294540e+02   6.3172300e-01
   3.7342760e+02   3.2298500e-01
   3.7390970e+02   7.1236000e-01
   3.7439180e+02   1.2299390e+00
   3.7487390e+02   1.6852210e+00
   3.7535600e+02   2.0681190e+00
   3.7583810e+02   2.3246310e+00
   3.7632030e+02   2.4716890e+00
   3.7680240e+02   2.4636780e+00
   3.7728450e+02   2.1548820e+00
   3.7776660e+02   1.4708290e+00
   3.7824870e+02   9.7833400e-01
   3.7873080e+02   8.2560500e-01
   3.7921300e+02   9.7941600e-01
   3.7969510e+02   1.2963330e+00
   3.8017720e+02   1.8146400e+00
   3.8065930e+02   2.3260900e+00
   3.8114140e+02   2.6881960e+00
   3.8162350e+02   2.8897360e+00
   3.8210570e+02   2.8112280e+00
   3.8258780e+02   2.2765600e+00
   3.8306990e+02   1.6581710e+00
   3.8355200e+02   1.8228380e+00
   3.8403410e+02   2.6926040e+00
   3.8451620e+02   3.4497130e+00
   3.8499840e+02   3.4333210e+00
   3.8548050e+02   2.9593580e+00
   3.8596260e+02   2.7123370e+00
   3.8644470e+02   2.8204460e+00
   3.8692680e+02   3.0068300e+00
   3.8740890e+02   2.9347440e+00
   3.8789110e+02   2.6979050e+00
   3.8837320e+02   2.5483470e+00
   3.8885530e+02   2.6494310e+00
   3.8933740e+02   2.8469180e+00
   3.8981950e+02   3.0280210e+00
   3.9030160e+02   3.1843800e+00
   3.9078380e+02   3.2678410e+00
   3.9126590e+02   3.2253420e+00
   3.9174800e+02   3.1062660e+00
   3.9223010e+02   2.9350240e+00
   3.9271220e+02   2.5199150e+00
   3.9319430e+02   2.3196490e+00
   3.9367650e+02   2.8613380e+00
   3.9415860e+02   3.8376260e+00
   3.9464070e+02   4.3655190e+00
   3.9512280e+02   3.7030830e+00
   3.9560490e+02   2.8714830e+00
   3.9608700e+02   2.4232940e+00
   3.9656920e+02   2.6032700e+00
   3.9705130e+02   2.5769420e+00
   3.9753340e+02   1.8200340e+00
   3.9801550e+02   8.8660200e-01
   3.9849760e+02   4.8107700e-01
   3.9897970e+02   1.1649700e+00
   3.9946190e+02   1.8478070e+00
   3.9994400e+02   2.3436240e+00
   4.0042610e+02   2.6524410e+00
   4.0090820e+02   2.9097210e+00
   4.0139030e+02   3.2559320e+00
   4.0187240e+02   3.4165190e+00
   4.0235460e+02   3.1535210e+00
   4.0283670e+02   2.0983580e+00
   4.0331880e+02   1.4441600e+00
   4.0380090e+02   1.3719220e+00
   4.0428300e+02   1.6890910e+00
   4.0476510e+02   1.9499990e+00
   4.0524730e+02   2.1943450e+00
   4.0572940e+02   2.2564790e+00
   4.0621150e+02   1.9266410e+00
   4.0669360e+02   1.1822400e+00
   4.0717570e+02   1.0676820e+00
   4.0765780e+02   1.7704660e+00
   4.0814000e+02   2.5953880e+00
   4.0862210e+02   2.6492500e+00
   4.0910420e+02   1.9510190e+00
   4.0958630e+02   1.3774300e+00
   4.1006840e+02   1.2267300e+00
   4.1055050e+02   7.7408440e-01
   4.1103270e+02   9.9647700e-01
   4.1151480e+02   3.4505800e-01
   4.1199690e+02   1.6794200e-01
   4.1247900e+02   6.4833000e-02
   4.1296110e+02   4.2675800e-01
   4.1344320e+02   7.6632300e-01
   4.1392540e+02   8.7935100e-01
   4.1440750e+02   8.5443700e-01
   4.1488960e+02   7.0811500e-01
   4.1537170e+02   5.1189000e-01
   4.1585380e+02   3.7420100e-01
   4.1633590e+02   3.6068200e-01
   4.1681810e+02   4.2924100e-01
   4.1730020e+02   5.5783300e-01
   4.1778230e+02   7.4345600e-01
   4.1826440e+02   9.0401100e-01
   4.1874650e+02   1.0288110e+00
   4.1922860e+02   1.0920510e+00
   4.1971080e+02   1.0657350e+00
   4.2019290e+02   9.0988500e-01
   4.2067500e+02   7.0867700e-01
   4.2115710e+02   4.6556500e-01
   4.2163920e+02   1.9748100e-01
   4.2212130e+02   4.7460999e-02
   4.2260350e+02   7.3352799e-02
   4.2308560e+02   6.4685400e-01
   4.2356770e+02   4.2798600e-01
   4.2404980e+02   4.5477300e-01
   4.2453190e+02   9.6373400e-01
   4.2501400e+02   6.3806900e-01
   4.2549620e+02   8.9102000e-02
   4.2597830e+02   4.8903000e-02
   4.2646040e+02   7.5026500e-01
   4.2694250e+02   1.1699790e+00
   4.2742460e+02   8.4774800e-01
   4.2790670e+02   7.2733000e-02
   4.2838890e+02   5.6611100e-01
   4.2887100e+02   5.3423900e-01
   4.2935310e+02   2.5155300e-01
   4.2983520e+02   2.7656200e-01
   4.3031730e+02   1.1494450e+00
   4.3079940e+02   1.4750460e+00
   4.3128160e+02   1.1206230e+00
   4.3176370e+02   4.6965600e-01
   4.3224580e+02   1.0802800e-01
   4.3272790e+02   4.2739999e-02
   4.3321000e+02   1.6089100e-01
   4.3369210e+02   5.7097200e-01
   4.3417430e+02   4.3508400e-01
   4.3465640e+02   1.0413740e+00
   4.3513850e+02   3.3481800e-01
   4.3562060e+02   2.9381900e-01
   4.3610270e+02   2.0575000e-02
   4.3658480e+02   8.1496200e-01
   4.3706700e+02   1.2404690e+00
   4.3754910e+02   9.6677200e-01
   4.3803120e+02   5.0141100e-01
   4.3851330e+02   3.9775100e-01
   4.3899540e+02   5.6916800e-01
   4.3947750e+02   7.7482800e-01
   4.3995970e+02   9.9756800e-01
   4.4044180e+02   1.1323320e+00
   4.4092390e+02   1.0413860e+00
   4.4140600e+02   7.1704700e-01
   4.4188810e+02   3.7852900e-01
   4.4237020e+02   1.4249000e-01
   4.4285240e+02   3.9692000e-02
   4.4333450e+02   2.2249400e-01
   4.4381660e+02   9.2385173e-02
   4.4429870e+02   8.0016500e-01
   4.4478080e+02   3.3058900e-01
   4.4526290e+02   5.3513500e-01
   4.4574510e+02   1.1093690e+00
   4.4622720e+02   1.0131280e+00
   4.4670930e+02   7.9587700e-01
   4.4719140e+02   6.6173900e-01
   4.4767350e+02   6.5954400e-01
   4.4815560e+02   5.9715700e-01
   4.4863780e+02   3.6436700e-01
   4.4911990e+02   1.4566000e-01
   4.4960200e+02   1.3693000e-01
   4.5008410e+02   4.1997000e-01
   4.5056620e+02   7.5637600e-01
   4.5104830e+02   1.1923430e+00
   4.5153050e+02   1.6526910e+00
   4.5201260e+02   1.7390400e+00
   4.5249470e+02   1.3351820e+00
   4.5297680e+02   9.1855200e-01
   4.5345890e+02   7.8241700e-01
   4.5394100e+02   9.3466600e-01
   4.5442320e+02   9.9087000e-01
   4.5490530e+02   9.2277500e-01
   4.5538740e+02   8.2361800e-01
   4.5586950e+02   7.9252400e-01
   4.5635160e+02   8.2848500e-01
   4.5683370e+02   9.4320700e-01
   4.5731590e+02   1.1743510e+00
   4.5779800e+02   1.4545500e+00
   4.5828010e+02   1.7003000e+00
   4.5876220e+02   1.9026580e+00
   4.5924430e+02   2.0027290e+00
   4.5972640e+02   1.8559270e+00
   4.6020860e+02   1.6216300e+00
   4.6069070e+02   1.5014170e+00
   4.6117280e+02   1.5247340e+00
   4.6165490e+02   1.6602690e+00
   4.6213700e+02   2.0084340e+00
   4.6261910e+02   2.4278070e+00
   4.6310130e+02   2.7022190e+00
   4.6358340e+02   2.7329220e+00
   4.6406550e+02   2.6200960e+00
   4.6454760e+02   2.3175810e+00
   4.6502970e+02   1.8613700e+00
   4.6551180e+02   1.5225280e+00
   4.6599400e+02   1.4255010e+00
   4.6647610e+02   1.4336410e+00
   4.6695820e+02   1.4787540e+00
   4.6744030e+02   1.5838340e+00
   4.6792240e+02   1.6792660e+00
   4.6840450e+02   1.8745080e+00
   4.6888670e+02   2.0130230e+00
   4.6936880e+02   1.8242380e+00
   4.6985090e+02   9.9253800e-01
   4.7033300e+02   4.0780300e-01
   4.7081510e+02   3.7917900e-01
   4.7129720e+02   8.1860200e-01
   4.7177940e+02   8.4755900e-01
   4.7226150e+02   2.9875400e-01
   4.7274360e+02   2.0536200e-01
   4.7322570e+02   1.4332800e-01
   4.7370780e+02   4.9774400e-01
   4.7418990e+02   9.2815200e-01
   4.7467210e+02   1.0686000e+00
   4.7515420e+02   1.0518590e+00
   4.7563630e+02   1.0785660e+00
   4.7611840e+02   1.1301120e+00
   4.7660050e+02   1.0838090e+00
   4.7708260e+02   8.2247200e-01
   4.7756480e+02   4.7389600e-01
   4.7804690e+02   2.2258600e-01
   4.7852900e+02   6.7988999e-02
   4.7901110e+02   7.6009999e-03
   4.7949320e+02   1.1607200e-01
   4.7997530e+02   2.7513700e-01
   4.8045750e+02   3.4172800e-01
   4.8093960e+02   2.9777900e-01
   4.8142170e+02   2.2084600e-01
   4.8190380e+02   1.2070500e-01
   4.8238590e+02   6.0919998e-03
   4.8286800e+02   6.1245002e-02
   4.8335020e+02   7.3091999e-02
   4.8383230e+02   3.3663001e-02
   4.8431440e+02   1.3519300e-01
   4.8479650e+02   4.0221000e-01
   4.8527860e+02   5.5466800e-01
   4.8576070e+02   5.0012400e-01
   4.8624290e+02   3.2488100e-01
   4.8672500e+02   6.8094000e-02
   4.8720710e+02   5.1810500e-01
   4.8768920e+02   5.5671500e-01
   4.8817130e+02   2.9480200e-01
   4.8865340e+02   1.4163020e+00
   4.8913560e+02   1.8744350e+00
   4.8961770e+02   1.4261380e+00
   4.9009980e+02   1.0041640e+00
   4.9058190e+02   7.9379300e-01
   4.9106400e+02   8.0070700e-01
   4.9154610e+02   1.1099220e+00
   4.9202830e+02   1.7758880e+00
   4.9251040e+02   2.3306120e+00
   4.9299250e+02   2.3092480e+00
   4.9347460e+02   1.8237550e+00
   4.9395670e+02   1.6677990e+00
   4.9443880e+02   1.9328120e+00
   4.9492100e+02   2.2910210e+00
   4.9540310e+02   2.4661870e+00
   4.9588520e+02   2.4537180e+00
   4.9636730e+02   2.2263090e+00
   4.9684940e+02   1.4139500e+00
   4.9733150e+02   7.3170500e-01
   4.9781370e+02   1.1122320e+00
   4.9829580e+02   2.3039630e+00
   4.9877790e+02   3.2571410e+00
   4.9926000e+02   3.3703630e+00
   4.9974210e+02   3.0911030e+00
   5.0022420e+02   2.6437870e+00
   5.0070640e+02   1.9682880e+00
   5.0118850e+02   1.4937080e+00
   5.0167060e+02   1.3662190e+00
   5.0215270e+02   1.4918730e+00
   5.0263480e+02   1.8036800e+00
   5.0311690e+02   2.7225840e+00
   5.0359910e+02   3.2771910e+00
   5.0408120e+02   3.1320100e+00
   5.0456330e+02   2.5215840e+00
   5.0504540e+02   2.3502030e+00
   5.0552750e+02   2.8887500e+00
   5.0600960e+02   3.4060880e+00
   5.0649180e+02   3.5941470e+00
   5.0697390e+02   3.4239230e+00
   5.0745600e+02   3.2601030e+00
   5.0793810e+02   3.0909690e+00
   5.0842020e+02   2.9737970e+00
   5.0890230e+02   2.9608270e+00
   5.0938450e+02   3.0507510e+00
   5.0986660e+02   3.2720050e+00
   5.1034870e+02   3.6926480e+00
   5.1083080e+02   4.1310210e+00
   5.1131290e+02   4.1837790e+00
   5.1179500e+02   3.9442580e+00
   5.1227720e+02   3.8416690e+00
   5.1275930e+02   4.2247920e+00
   5.1324140e+02   4.8038460e+00
   5.1372350e+02   5.2139000e+00
   5.1420560e+02   5.4563520e+00
   5.1468770e+02   5.7463190e+00
   5.1516990e+02   6.3531460e+00
   5.1565200e+02   7.0010740e+00
   5.1613410e+02   7.4092730e+00
   5.1661620e+02   7.3579080e+00
   5.1709830e+02   7.3756260e+00
   5.1758040e+02   7.6193180e+00
   5.1806260e+02   8.0461350e+00
   5.1854470e+02   8.5859600e+00
   5.1902680e+02   9.3708800e+00
   5.1950890e+02   1.0118350e+01
   5.1999100e+02   1.0805350e+01
   5.2047310e+02   1.1426090e+01
   5.2095530e+02   1.1795970e+01
   5.2143740e+02   1.1675130e+01
   5.2191950e+02   1.1654790e+01
   5.2240160e+02   1.2146160e+01
   5.2288370e+02   1.3297780e+01
   5.2336580e+02   1.4125780e+01
   5.2384800e+02   1.4546430e+01
   5.2433010e+02   1.4806970e+01
   5.2481220e+02   1.5175460e+01
   5.2529430e+02   1.5653090e+01
   5.2577640e+02   1.6332480e+01
   5.2625850e+02   1.7360900e+01
   5.2674070e+02   1.8464460e+01
   5.2722280e+02   1.9098380e+01
   5.2770490e+02   1.9333050e+01
   5.2818700e+02   1.9559650e+01
   5.2866910e+02   2.0045780e+01
   5.2915120e+02   2.0645750e+01
   5.2963340e+02   2.1215350e+01
   5.3011550e+02   2.1749160e+01
   5.3059760e+02   2.2173820e+01
   5.3107970e+02   2.2378510e+01
   5.3156180e+02   2.2543530e+01
   5.3204390e+02   2.2827640e+01
   5.3252610e+02   2.3480670e+01
   5.3300820e+02   2.4034360e+01
   5.3349030e+02   2.4447580e+01
   5.3397240e+02   2.4630070e+01
   5.3445450e+02   2.4423300e+01
   5.3493660e+02   2.3462500e+01
   5.3541880e+02   2.2533950e+01
   5.3590090e+02   2.1834560e+01
   5.3638300e+02   2.1367700e+01
   5.3686510e+02   2.0791760e+01
   5.3734720e+02   2.0099550e+01
   5.3782930e+02   1.9327720e+01
   5.3831150e+02   1.8507110e+01
   5.3879360e+02   1.7686870e+01
   5.3927570e+02   1.6771630e+01
   5.3975780e+02   1.5698380e+01
   5.4023990e+02   1.4603610e+01
   5.4072200e+02   1.3657420e+01
   5.4120420e+02   1.2869820e+01
   5.4168630e+02   1.2179990e+01
   5.4216840e+02   1.1522030e+01
   5.4265050e+02   1.0996700e+01
   5.4313260e+02   1.0902220e+01
   5.4361470e+02   1.1122140e+01
   5.4409690e+02   1.1181970e+01
   5.4457900e+02   1.0639380e+01
   5.4506110e+02   9.8904990e+00
   5.4554320e+02   9.3137190e+00
   5.4602530e+02   8.9792370e+00
   5.4650740e+02   8.6645770e+00
   5.4698960e+02   8.2319970e+00
   5.4747170e+02   7.8217910e+00
   5.4795380e+02   7.5527780e+00
   5.4843590e+02   7.6860350e+00
   5.4891800e+02   7.6280120e+00
   5.4940010e+02   7.1191710e+00
   5.4988230e+02   6.4982640e+00
   5.5036440e+02   6.2283130e+00
   5.5084650e+02   6.4636690e+00
   5.5132860e+02   6.7614310e+00
   5.5181070e+02   7.0751300e+00
   5.5229280e+02   7.3699670e+00
   5.5277500e+02   7.3204420e+00
   5.5325710e+02   6.8562970e+00
   5.5373920e+02   6.3949850e+00
   5.5422130e+02   6.2065750e+00
   5.5470340e+02   6.2598550e+00
   5.5518550e+02   6.3527640e+00
   5.5566770e+02   6.4663890e+00
   5.5614980e+02   6.6898820e+00
   5.5663190e+02   6.8494760e+00
   5.5711400e+02   7.1661870e+00
   5.5759610e+02   7.3527070e+00
   5.5807820e+02   7.4160330e+00
   5.5856040e+02   7.4882280e+00
   5.5904250e+02   7.4813860e+00
   5.5952460e+02   7.3833690e+00
   5.6000670e+02   7.3486420e+00
   5.6048880e+02   7.2048190e+00
   5.6097090e+02   7.0746290e+00
   5.6145310e+02   7.0042000e+00
   5.6193520e+02   6.9955350e+00
   5.6241730e+02   7.0518970e+00
   5.6289940e+02   7.2900680e+00
   5.6338150e+02   7.4983690e+00
   5.6386360e+02   7.5598930e+00
   5.6434580e+02   7.3929670e+00
   5.6482790e+02   7.2958770e+00
   5.6531000e+02   7.2702710e+00
   5.6579210e+02   7.3114620e+00
   5.6627420e+02   7.2711730e+00
   5.6675630e+02   7.4938830e+00
   5.6723850e+02   7.5863590e+00
   5.6772060e+02   7.5556530e+00
   5.6820270e+02   7.0325150e+00
   5.6868480e+02   7.1453690e+00
   5.6916690e+02   7.0034390e+00
   5.6964900e+02   6.8511240e+00
   5.7013120e+02   7.0536480e+00
   5.7061330e+02   6.6024490e+00
   5.7109540e+02   6.7994840e+00
   5.7157750e+02   6.7378480e+00
   5.7205960e+02   6.7947010e+00
   5.7254170e+02   6.5951770e+00
   5.7302390e+02   6.4749030e+00
   5.7350600e+02   6.0930940e+00
   5.7398810e+02   5.7098540e+00
   5.7447020e+02   5.3594890e+00
   5.7495230e+02   5.0437370e+00
   5.7543440e+02   4.7897680e+00
   5.7591660e+02   4.6384050e+00
   5.7639870e+02   4.8113750e+00
   5.7688080e+02   4.7815610e+00
   5.7736290e+02   4.3866730e+00
   5.7784500e+02   3.7595810e+00
   5.7832710e+02   3.3356740e+00
   5.7880930e+02   3.1545160e+00
   5.7929140e+02   3.0639440e+00
   5.7977350e+02   3.0462300e+00
   5.8025560e+02   3.0798530e+00
   5.8073770e+02   3.0212330e+00
   5.8121980e+02   2.8757720e+00
   5.8170200e+02   2.5669040e+00
   5.8218410e+02   1.8113400e+00
   5.8266620e+02   8.6587900e-01
   5.8314830e+02   3.8821600e-01
   5.8363040e+02   5.2767400e-01
   5.8411250e+02   8.3386200e-01
   5.8459470e+02   1.0208530e+00
   5.8507680e+02   1.0916540e+00
   5.8555890e+02   1.0468560e+00
   5.8604100e+02   7.2065400e-01
   5.8652310e+02   4.6699700e-01
   5.8700520e+02   5.0664100e-01
   5.8748740e+02   7.3802900e-01
   5.8796950e+02   8.8667300e-01
   5.8845160e+02   1.0291810e+00
   5.8893370e+02   9.4230100e-01
   5.8941580e+02   1.0671740e+00
   5.8989790e+02   9.7057220e-01
   5.9038010e+02   1.0007230e+00
   5.9086220e+02   7.8502500e-01
   5.9134430e+02   7.6491600e-01
   5.9182640e+02   3.3470300e-01
   5.9230850e+02   5.1137200e-01
   5.9279060e+02   4.5543700e-01
   5.9327280e+02   1.0940200e-01
   5.9375490e+02   3.1919300e-01
   5.9423700e+02   7.1618800e-01
   5.9471910e+02   1.0175460e+00
   5.9520120e+02   9.0586900e-01
   5.9568330e+02   1.0696450e+00
   5.9616550e+02   7.3595400e-01
   5.9664760e+02   8.6340000e-01
   5.9712970e+02   4.8192800e-01
   5.9761180e+02   7.2493002e-02
   5.9809390e+02   2.5053600e-01
   5.9857600e+02   4.5197300e-01
   5.9905820e+02   4.8589100e-01
   5.9954030e+02   3.6377300e-01
   6.0002240e+02   1.9763400e-01
   6.0050450e+02   1.4554800e-01
   6.0098660e+02   3.8689800e-01
   6.0146880e+02   3.9440900e-01
   6.0195090e+02   1.2630700e-01
   6.0243300e+02   2.2310600e-01
   6.0291510e+02   7.8709000e-01
   6.0339720e+02   1.2435650e+00
   6.0387930e+02   1.1763760e+00
   6.0436150e+02   4.9927900e-01
   6.0484360e+02   3.1293300e-01
   6.0532570e+02   9.1129700e-01
   6.0580780e+02   1.6530490e+00
   6.0628990e+02   1.2963910e+00
   6.0677200e+02   9.7805001e-02
   6.0725420e+02   7.0605700e-01
   6.0773630e+02   4.5671500e-01
   6.0821840e+02   1.9771800e-01
   6.0870050e+02   5.8503500e-01
   6.0918260e+02   7.4736600e-01
   6.0966470e+02   8.1658700e-01
   6.1014690e+02   8.1461000e-01
   6.1062900e+02   7.7957700e-01
   6.1111110e+02   6.6818800e-01
   6.1159320e+02   4.7091700e-01
   6.1207530e+02   4.9733400e-01
   6.1255740e+02   1.1611480e+00
   6.1303960e+02   1.7908570e+00
   6.1352170e+02   1.9887660e+00
   6.1400380e+02   1.5574890e+00
   6.1448590e+02   1.1954420e+00
   6.1496800e+02   8.9248700e-01
   6.1545010e+02   6.7185400e-01
   6.1593230e+02   5.2665100e-01
   6.1641440e+02   4.4719300e-01
   6.1689650e+02   6.6917400e-01
   6.1737860e+02   1.3614080e+00
   6.1786070e+02   2.1408100e+00
   6.1834280e+02   2.3118150e+00
   6.1882500e+02   1.9729670e+00
   6.1930710e+02   1.5351580e+00
   6.1978920e+02   9.7094500e-01
   6.2027130e+02   5.5579800e-01
   6.2075340e+02   6.4366300e-01
   6.2123550e+02   1.1560540e+00
   6.2171770e+02   1.7265430e+00
   6.2219980e+02   2.3420790e+00
   6.2268190e+02   2.8318940e+00
   6.2316400e+02   3.0723530e+00
   6.2364610e+02   3.0193350e+00
   6.2412820e+02   2.9606570e+00
   6.2461040e+02   2.8974250e+00
   6.2509250e+02   2.8608040e+00
   6.2557460e+02   2.8741360e+00
   6.2605670e+02   2.9563370e+00
   6.2653880e+02   3.0391390e+00
   6.2702090e+02   3.1297150e+00
   6.2750310e+02   3.2035960e+00
   6.2798520e+02   3.1968920e+00
   6.2846730e+02   3.1164530e+00
   6.2894940e+02   3.1037480e+00
   6.2943150e+02   3.1798900e+00
   6.2991360e+02   3.3615360e+00
   6.3039580e+02   3.7467000e+00
   6.3087790e+02   4.2682780e+00
   6.3136000e+02   4.7208580e+00
   6.3184210e+02   5.0642170e+00
   6.3232420e+02   5.2529240e+00
   6.3280630e+02   5.1074700e+00
   6.3328850e+02   4.7178840e+00
   6.3377060e+02   4.5596010e+00
   6.3425270e+02   4.9366680e+00
   6.3473480e+02   5.4665180e+00
   6.3521690e+02   6.0180170e+00
   6.3569900e+02   6.6063420e+00
   6.3618120e+02   7.0317780e+00
   6.3666330e+02   7.2140200e+00
   6.3714540e+02   7.3354610e+00
   6.3762750e+02   7.4965630e+00
   6.3810960e+02   7.6845550e+00
   6.3859170e+02   8.0351640e+00
   6.3907390e+02   8.5952570e+00
   6.3955600e+02   9.2060150e+00
   6.4003810e+02   9.6719380e+00
   6.4052020e+02   1.0020330e+01
   6.4100230e+02   1.0355960e+01
   6.4148440e+02   1.0700250e+01
   6.4196660e+02   1.1061860e+01
   6.4244870e+02   1.1412990e+01
   6.4293080e+02   1.1799570e+01
   6.4341290e+02   1.2313610e+01
   6.4389500e+02   1.3074990e+01
   6.4437710e+02   1.3899740e+01
   6.4485930e+02   1.4790590e+01
   6.4534140e+02   1.5701110e+01
   6.4582350e+02   1.6445380e+01
   6.4630560e+02   1.6931190e+01
   6.4678770e+02   1.7282310e+01
   6.4726980e+02   1.7417290e+01
   6.4775200e+02   1.7282710e+01
   6.4823410e+02   1.7670620e+01
   6.4871620e+02   1.8754110e+01
   6.4919830e+02   2.0035410e+01
   6.4968040e+02   2.1236520e+01
   6.5016250e+02   2.2315880e+01
   6.5064470e+02   2.2942240e+01
   6.5112680e+02   2.3058540e+01
   6.5160890e+02   2.3160730e+01
   6.5209100e+02   2.3821250e+01
   6.5257310e+02   2.4806920e+01
   6.5305520e+02   2.5708950e+01
   6.5353740e+02   2.6392740e+01
   6.5401950e+02   2.7027260e+01
   6.5450160e+02   2.7968790e+01
   6.5498370e+02   2.8978430e+01
   6.5546580e+02   2.9658040e+01
   6.5594790e+02   2.9348740e+01
   6.5643010e+02   2.9300760e+01
   6.5691220e+02   2.9994540e+01
   6.5739430e+02   3.1121430e+01
   6.5787640e+02   3.1822790e+01
   6.5835850e+02   3.1941570e+01
   6.5884060e+02   3.2034250e+01
   6.5932280e+02   3.2303350e+01
   6.5980490e+02   3.2696360e+01
   6.6028700e+02   3.2716420e+01
   6.6076910e+02   3.2340560e+01
   6.6125120e+02   3.1932540e+01
   6.6173330e+02   3.1715300e+01
   6.6221550e+02   3.1669890e+01
   6.6269760e+02   3.1745650e+01
   6.6317970e+02   3.1919950e+01
   6.6366180e+02   3.2028870e+01
   6.6414390e+02   3.2022700e+01
   6.6462600e+02   3.1838620e+01
   6.6510820e+02   3.1326240e+01
   6.6559030e+02   3.0420690e+01
   6.6607240e+02   2.9636610e+01
   6.6655450e+02   2.9107870e+01
   6.6703660e+02   2.8727660e+01
   6.6751870e+02   2.8383750e+01
   6.6800090e+02   2.8192310e+01
   6.6848300e+02   2.7868170e+01
   6.6896510e+02   2.7384830e+01
   6.6944720e+02   2.6782640e+01
   6.6992930e+02   2.6061100e+01
   6.7041140e+02   2.5217490e+01
   6.7089360e+02   2.4544250e+01
   6.7137570e+02   2.4236370e+01
   6.7185780e+02   2.3953270e+01
   6.7233990e+02   2.2913100e+01
   6.7282200e+02   2.1358070e+01
   6.7330410e+02   2.0133640e+01
   6.7378630e+02   1.9987210e+01
   6.7426840e+02   2.0044960e+01
   6.7475050e+02   1.9663830e+01
   6.7523260e+02   1.8918130e+01
   6.7571470e+02   1.8243980e+01
   6.7619680e+02   1.7838070e+01
   6.7667900e+02   1.7464270e+01
   6.7716110e+02   1.7064800e+01
   6.7764320e+02   1.6642730e+01
   6.7812530e+02   1.6030350e+01
   6.7860740e+02   1.5106100e+01
   6.7908950e+02   1.4234510e+01
   6.7957170e+02   1.3751770e+01
   6.8005380e+02   1.3653870e+01
   6.8053590e+02   1.3232610e+01
   6.8101800e+02   1.2436160e+01
   6.8150010e+02   1.1639030e+01
   6.8198220e+02   1.1292880e+01
   6.8246440e+02   1.1175630e+01
   6.8294650e+02   1.0801970e+01
   6.8342860e+02   9.9990430e+00
   6.8391070e+02   9.2775060e+00
   6.8439280e+02   8.9253640e+00
   6.8487490e+02   8.8944020e+00
   6.8535710e+02   8.7399040e+00
   6.8583920e+02   8.4691240e+00
   6.8632130e+02   7.7126830e+00
   6.8680340e+02   7.5990330e+00
   6.8728550e+02   7.2373810e+00
   6.8776760e+02   6.8721790e+00
   6.8824980e+02   6.8685400e+00
   6.8873190e+02   6.2180500e+00
   6.8921400e+02   6.2225690e+00
   6.8969610e+02   5.9752080e+00
   6.9017820e+02   5.8531210e+00
   6.9066030e+02   5.4814970e+00
   6.9114250e+02   5.1958330e+00
   6.9162460e+02   5.1888080e+00
   6.9210670e+02   5.0460660e+00
   6.9258880e+02   4.6723190e+00
   6.9307090e+02   4.5989040e+00
   6.9355300e+02   4.0080260e+00
   6.9403520e+02   3.8840500e+00
   6.9451730e+02   3.9655170e+00
   6.9499940e+02   3.6389500e+00
   6.9548150e+02   3.6045060e+00
   6.9596360e+02   3.4682600e+00
   6.9644570e+02   2.8451560e+00
   6.9692790e+02   3.0875110e+00
   6.9741000e+02   2.9720730e+00
   6.9789210e+02   2.4755440e+00
   6.9837420e+02   2.7090910e+00
   6.9885630e+02   2.2788330e+00
   6.9933840e+02   2.5313970e+00
   6.9982060e+02   2.1979980e+00
   7.0030270e+02   1.4729600e+00
   7.0078480e+02   1.1471100e+00
   7.0126690e+02   1.3481160e+00
   7.0174900e+02   1.6015550e+00
   7.0223110e+02   1.3580020e+00
   7.0271330e+02   9.1880600e-01
   7.0319540e+02   7.2143700e-01
   7.0367750e+02   1.0017680e+00
   7.0415960e+02   1.2700770e+00
   7.0464170e+02   1.3716830e+00
   7.0512380e+02   1.3414670e+00
   7.0560600e+02   1.2148300e+00
   7.0608810e+02   8.4950800e-01
   7.0657020e+02   6.4114800e-01
   7.0705230e+02   6.8993200e-01
   7.0753440e+02   8.6905500e-01
   7.0801650e+02   9.2520300e-01
   7.0849870e+02   8.5415800e-01
   7.0898080e+02   7.2789400e-01
   7.0946290e+02   5.7467300e-01
   7.0994500e+02   4.0715800e-01
   7.1042710e+02   1.0940600e-01
   7.1090920e+02   2.1482100e-01
   7.1139140e+02   1.9070600e-01
   7.1187350e+02   9.0637600e-01
   7.1235560e+02   1.9714830e+00
   7.1283770e+02   2.1104150e+00
   7.1331980e+02   1.4833980e+00
   7.1380190e+02   9.4554700e-01
   7.1428410e+02   8.8976100e-01
   7.1476620e+02   7.9741500e-01
   7.1524830e+02   3.7381200e-01
   7.1573040e+02   3.5660000e-01
   7.1621250e+02   5.8691800e-01
   7.1669460e+02   1.6159400e-01
   7.1717680e+02   3.3287000e-01
   7.1765890e+02   6.2703900e-01
   7.1814100e+02   7.1483000e-01
   7.1862310e+02   3.7882000e-01
   7.1910520e+02   3.9978000e-01
   7.1958730e+02   9.7466100e-01
   7.2006950e+02   6.5236700e-01
   7.2055160e+02   9.3322670e-01
   7.2103370e+02   6.6237300e-01
   7.2151580e+02   1.0178450e+00
   7.2199790e+02   1.1563800e+00
   7.2248000e+02   9.7107900e-01
   7.2296220e+02   6.4183800e-01
   7.2344430e+02   2.7427700e-01
   7.2392640e+02   3.3719800e-01
   7.2440850e+02   4.5595400e-01
   7.2489060e+02   2.4497800e-01
   7.2537270e+02   4.0712800e-01
   7.2585490e+02   2.4076020e-01
   7.2633700e+02   5.0396900e-01
   7.2681910e+02   8.1343003e-02
   7.2730120e+02   2.0939000e-02
   7.2778330e+02   1.7365600e-01
   7.2826540e+02   4.9788700e-01
   7.2874760e+02   8.7963100e-01
   7.2922970e+02   1.0274030e+00
   7.2971180e+02   7.7084500e-01
   7.3019390e+02   4.4788400e-01
   7.3067600e+02   2.4704600e-01
   7.3115810e+02   1.3099100e-01
   7.3164030e+02   9.5178999e-02
   7.3212240e+02   2.1849400e-01
   7.3260450e+02   3.2075700e-01
   7.3308660e+02   3.8000700e-01
   7.3356870e+02   4.0138800e-01
   7.3405080e+02   3.9549300e-01
   7.3453300e+02   3.6480700e-01
   7.3501510e+02   2.7986100e-01
   7.3549720e+02   6.1756000e-02
   7.3597930e+02   1.2134200e-01
   7.3646140e+02   2.9204900e-01
   7.3694350e+02   1.1335260e+00
   7.3742570e+02   1.6216350e+00
   7.3790780e+02   9.9390000e-01
   7.3838990e+02   1.3825200e-01
   7.3887200e+02   2.1057900e-01
   7.3935410e+02   1.1018900e-01
   7.3983620e+02   2.4603800e-01
   7.4031840e+02   1.2803310e+00
   7.4080050e+02   2.0698810e+00
   7.4128260e+02   2.1213840e+00
   7.4176470e+02   1.5367410e+00
   7.4224680e+02   1.1154330e+00
   7.4272890e+02   8.9407900e-01
   7.4321110e+02   7.4520500e-01
   7.4369320e+02   5.9933300e-01
   7.4417530e+02   4.7522900e-01
   7.4465740e+02   5.1195000e-01
   7.4513950e+02   7.0516600e-01
   7.4562160e+02   9.1013500e-01
   7.4610380e+02   1.0463910e+00
   7.4658590e+02   1.1243500e+00
   7.4706800e+02   1.1933920e+00
   7.4755010e+02   1.2484950e+00
   7.4803220e+02   1.1304550e+00
   7.4851430e+02   3.8696500e-01
   7.4899650e+02   2.5115200e-01
   7.4947860e+02   2.4081600e-01
   7.4996070e+02   6.4255900e-01
   7.5044280e+02   1.1329440e+00
   7.5092490e+02   1.0950220e+00
   7.5140700e+02   9.0702100e-01
   7.5188920e+02   8.2592800e-01
   7.5237130e+02   8.4848800e-01
   7.5285340e+02   8.2901800e-01
   7.5333550e+02   7.6440200e-01
   7.5381760e+02   6.4663100e-01
   7.5429970e+02   2.7423500e-01
   7.5478190e+02   8.5592002e-02
   7.5526400e+02   1.0329100e-01
   7.5574610e+02   1.0333920e+00
   7.5622820e+02   1.7710040e+00
   7.5671030e+02   1.6940290e+00
   7.5719240e+02   1.2789120e+00
   7.5767460e+02   9.1724000e-01
   7.5815670e+02   6.0550300e-01
   7.5863880e+02   4.6219300e-01
   7.5912090e+02   5.4377700e-01
   7.5960300e+02   7.2362500e-01
   7.6008510e+02   8.8148700e-01
   7.6056730e+02   1.0178130e+00
   7.6104940e+02   1.1355930e+00
   7.6153150e+02   1.2258260e+00
   7.6201360e+02   1.3364280e+00
   7.6249570e+02   1.6481550e+00
   7.6297780e+02   1.9961170e+00
   7.6346000e+02   2.0489370e+00
   7.6394210e+02   1.6380390e+00
   7.6442420e+02   1.1278360e+00
   7.6490630e+02   4.8420100e-01
   7.6538840e+02   5.0804000e-02
   7.6587050e+02   1.7370200e-01
   7.6635270e+02   5.2779400e-01
   7.6683480e+02   1.1279430e+00
   7.6731690e+02   1.6813550e+00
   7.6779900e+02   2.0384850e+00
   7.6828110e+02   1.8741210e+00
   7.6876320e+02   1.1476540e+00
   7.6924540e+02   5.6305500e-01
   7.6972750e+02   2.2497700e-01
   7.7020960e+02   1.1657300e-01
   7.7069170e+02   3.0018000e-01
   7.7117380e+02   6.8514300e-01
   7.7165590e+02   1.0818390e+00
   7.7213810e+02   1.4665470e+00
   7.7262020e+02   1.7794690e+00
   7.7310230e+02   2.0161000e+00
   7.7358440e+02   2.1357670e+00
   7.7406650e+02   2.0870570e+00
   7.7454860e+02   1.6652810e+00
   7.7503080e+02   1.4454120e+00
   7.7551290e+02   1.5557380e+00
   7.7599500e+02   1.8613950e+00
   7.7647710e+02   2.1318130e+00
   7.7695920e+02   2.3575860e+00
   7.7744130e+02   2.2396870e+00
   7.7792350e+02   1.5728740e+00
   7.7840560e+02   8.6366500e-01
   7.7888770e+02   1.0542490e+00
   7.7936980e+02   1.7903610e+00
   7.7985190e+02   2.1614250e+00
   7.8033400e+02   1.2277810e+00
   7.8081620e+02   3.8041500e-01
   7.8129830e+02   4.3375400e-01
   7.8178040e+02   1.0476680e+00
   7.8226250e+02   1.3392790e+00
   7.8274460e+02   1.1375580e+00
   7.8322670e+02   9.1716200e-01
   7.8370890e+02   6.1994200e-01
   7.8419100e+02   3.7741700e-01
   7.8467310e+02   4.4417800e-01
   7.8515520e+02   8.1691000e-01
   7.8563730e+02   1.1850260e+00
   7.8611940e+02   1.5032730e+00
   7.8660160e+02   1.6393320e+00
   7.8708370e+02   1.1355740e+00
   7.8756580e+02   2.5831800e-01
   7.8804790e+02   2.4875800e-01
   7.8853000e+02   2.3654700e-01
   7.8901210e+02   8.9490700e-01
   7.8949430e+02   1.6216180e+00
   7.8997640e+02   2.2709880e+00
   7.9045850e+02   2.2521340e+00
   7.9094060e+02   1.1399800e+00
   7.9142270e+02   2.4483100e-01
   7.9190480e+02   1.4380000e-02
   7.9238700e+02   1.6380900e-01
   7.9286910e+02   1.1830300e-01
   7.9335120e+02   1.3079300e-01
   7.9383330e+02   2.7177400e-01
   7.9431540e+02   1.0915600e-01
   7.9479750e+02   2.1899200e-01
   7.9527970e+02   5.5162200e-01
   7.9576180e+02   9.1685900e-01
   7.9624390e+02   1.3875680e+00
   7.9672600e+02   2.3805350e+00
   7.9720810e+02   3.0814930e+00
   7.9769020e+02   2.9804100e+00
   7.9817240e+02   2.2852670e+00
   7.9865450e+02   1.8238430e+00
   7.9913660e+02   1.6915590e+00
   7.9961870e+02   1.5428540e+00
   8.0010080e+02   1.2372070e+00
   8.0058290e+02   8.5333400e-01
   8.0106510e+02   6.0911600e-01
   8.0154720e+02   5.0084900e-01
   8.0202930e+02   5.0160200e-01
   8.0251140e+02   6.6961900e-01
   8.0299350e+02   8.8510900e-01
   8.0347560e+02   1.0561710e+00
   8.0395780e+02   1.1842100e+00
   8.0443990e+02   1.2738590e+00
   8.0492200e+02   1.3922730e+00
   8.0540410e+02   1.3910850e+00
   8.0588620e+02   1.1579650e+00
   8.0636830e+02   7.7441400e-01
   8.0685050e+02   5.4378100e-01
   8.0733260e+02   4.7559200e-01
   8.0781470e+02   6.4263500e-01
   8.0829680e+02   1.1647620e+00
   8.0877890e+02   1.8263680e+00
   8.0926100e+02   2.1287670e+00
   8.0974320e+02   2.1328370e+00
   8.1022530e+02   2.0866640e+00
   8.1070740e+02   2.2155040e+00
   8.1118950e+02   2.2473490e+00
   8.1167160e+02   1.9358980e+00
   8.1215370e+02   1.3709180e+00
   8.1263590e+02   8.7636600e-01
   8.1311800e+02   3.6950900e-01
   8.1360010e+02   1.5747600e-01
   8.1408220e+02   4.1855400e-01
   8.1456430e+02   9.9715200e-01
   8.1504640e+02   1.3576560e+00
   8.1552860e+02   1.4992580e+00
   8.1601070e+02   1.4434190e+00
   8.1649280e+02   1.0344580e+00
   8.1697490e+02   6.0364700e-01
   8.1745700e+02   7.8304100e-01
   8.1793910e+02   1.3716050e+00
   8.1842130e+02   1.7943670e+00
   8.1890340e+02   1.5840870e+00
   8.1938550e+02   1.3676220e+00
   8.1986760e+02   1.4418220e+00
   8.2034970e+02   1.7188800e+00
   8.2083180e+02   1.8925700e+00
   8.2131400e+02   1.9724450e+00
   8.2179610e+02   1.9074040e+00
   8.2227820e+02   1.6223950e+00
   8.2276030e+02   1.2433360e+00
   8.2324240e+02   9.9745600e-01
   8.2372450e+02   8.9795900e-01
   8.2420670e+02   1.0959300e+00
   8.2468880e+02   2.0234850e+00
   8.2517090e+02   2.7701910e+00
   8.2565300e+02   2.0528600e+00
   8.2613510e+02   5.5052600e-01
   8.2661720e+02   2.0653900e-01
   8.2709940e+02   1.1732620e+00
   8.2758150e+02   2.1605240e+00
   8.2806360e+02   2.1165120e+00
   8.2854570e+02   1.4538840e+00
   8.2902780e+02   9.6617700e-01
   8.2950990e+02   6.4439600e-01
   8.2999210e+02   6.3468000e-01
   8.3047420e+02   1.1000330e+00
   8.3095630e+02   1.6453400e+00
   8.3143840e+02   1.4952090e+00
   8.3192050e+02   9.1610300e-01
   8.3240260e+02   6.0843700e-01
   8.3288480e+02   1.1227050e+00
   8.3336690e+02   1.5367890e+00
   8.3384900e+02   1.1638660e+00
   8.3433110e+02   4.3693500e-01
   8.3481320e+02   1.0941500e-01
   8.3529530e+02   3.5698500e-01
   8.3577750e+02   7.7158000e-01
   8.3625960e+02   1.4756790e+00
   8.3674170e+02   2.1174720e+00
   8.3722380e+02   1.9852180e+00
   8.3770590e+02   1.1840290e+00
   8.3818800e+02   7.6758800e-01
   8.3867020e+02   1.1140270e+00
   8.3915230e+02   1.4538190e+00
   8.3963440e+02   6.4912600e-01
   8.4011650e+02   5.4323400e-01
   8.4059860e+02   9.8627500e-01
   8.4108070e+02   3.4515400e-01
   8.4156290e+02   1.2432580e+00
   8.4204500e+02   9.1146900e-01
   8.4252710e+02   1.9592500e-01
   8.4300920e+02   6.8470001e-02
   8.4349130e+02   1.9923600e-01
   8.4397340e+02   4.6933200e-01
   8.4445560e+02   7.1821800e-01
   8.4493770e+02   8.7662900e-01
   8.4541980e+02   8.3316000e-01
   8.4590190e+02   6.3061900e-01
   8.4638400e+02   3.4289700e-01
   8.4686610e+02   1.0793900e-01
   8.4734830e+02   2.9641500e-01
   8.4783040e+02   4.2149400e-01
   8.4831250e+02   3.5345560e-01
   8.4879460e+02   2.7065990e-01
   8.4927670e+02   5.1968000e-01
   8.4975890e+02   1.1592100e-01
   8.5024100e+02   4.4588100e-01
   8.5072310e+02   9.4585400e-01
   8.5120520e+02   1.1188640e+00
   8.5168730e+02   1.0098440e+00
   8.5216940e+02   9.0802200e-01
   8.5265160e+02   8.2548700e-01
   8.5313370e+02   8.0306800e-01
   8.5361580e+02   1.0301800e+00
   8.5409790e+02   1.2403320e+00
   8.5458000e+02   1.0972230e+00
   8.5506210e+02   4.8661800e-01
   8.5554430e+02   1.0760500e-01
   8.5602640e+02   2.1500000e-01
   8.5650850e+02   5.1595300e-01
   8.5699060e+02   8.6412400e-01
   8.5747270e+02   1.2156390e+00
   8.5795480e+02   1.6951270e+00
   8.5843700e+02   2.3412480e+00
   8.5891910e+02   2.7629320e+00
   8.5940120e+02   2.4718760e+00
   8.5988330e+02   1.8940320e+00
   8.6036540e+02   1.7454090e+00
   8.6084750e+02   1.9952140e+00
   8.6132970e+02   2.1970520e+00
   8.6181180e+02   2.0203970e+00
   8.6229390e+02   1.8658120e+00
   8.6277600e+02   2.0267940e+00
   8.6325810e+02   2.4346450e+00
   8.6374020e+02   2.5072210e+00
   8.6422240e+02   2.1318910e+00
   8.6470450e+02   1.7961850e+00
   8.6518660e+02   1.6860540e+00
   8.6566870e+02   1.7657760e+00
   8.6615080e+02   2.1290660e+00
   8.6663290e+02   2.6563340e+00
   8.6711510e+02   2.8182660e+00
   8.6759720e+02   1.9067900e+00
   8.6807930e+02   9.6554600e-01
   8.6856140e+02   6.9220500e-01
   8.6904350e+02   8.9021100e-01
   8.6952560e+02   9.2679200e-01
   8.7000780e+02   5.4243900e-01
   8.7048990e+02   3.8724900e-01
   8.7097200e+02   6.7239800e-01
   8.7145410e+02   1.1605740e+00
   8.7193620e+02   1.3211060e+00
   8.7241830e+02   1.1878230e+00
   8.7290050e+02   1.0114970e+00
   8.7338260e+02   8.4036300e-01
   8.7386470e+02   7.1369600e-01
   8.7434680e+02   6.0298100e-01
   8.7482890e+02   5.8122300e-01
   8.7531100e+02   7.6264700e-01
   8.7579320e+02   1.6193830e+00
   8.7627530e+02   2.0585320e+00
   8.7675740e+02   1.7787480e+00
   8.7723950e+02   1.2587820e+00
   8.7772160e+02   1.0496580e+00
   8.7820370e+02   1.1662600e+00
   8.7868590e+02   1.4340960e+00
   8.7916800e+02   1.8840980e+00
   8.7965010e+02   2.2291670e+00
   8.8013220e+02   2.0512230e+00
   8.8061430e+02   1.6079050e+00
   8.8109640e+02   1.2651060e+00
   8.8157860e+02   1.0932150e+00
   8.8206070e+02   1.0144330e+00
   8.8254280e+02   1.0903020e+00
   8.8302490e+02   1.1810950e+00
   8.8350700e+02   1.1846290e+00
   8.8398910e+02   1.0777810e+00
   8.8447130e+02   1.0129820e+00
   8.8495340e+02   1.0302810e+00
   8.8543550e+02   1.0274520e+00
   8.8591760e+02   8.5689000e-01
   8.8639970e+02   6.5992200e-01
   8.8688180e+02   7.6280600e-01
   8.8736400e+02   1.1333900e+00
   8.8784610e+02   1.3646720e+00
   8.8832820e+02   1.0213020e+00
   8.8881030e+02   6.8758000e-01
   8.8929240e+02   6.4620600e-01
   8.8977450e+02   9.1143400e-01
   8.9025670e+02   1.3252850e+00
   8.9073880e+02   1.9958290e+00
   8.9122090e+02   2.4850850e+00
   8.9170300e+02   2.6399930e+00
   8.9218510e+02   2.4772570e+00
   8.9266720e+02   1.7929780e+00
   8.9314940e+02   7.5577400e-01
   8.9363150e+02   9.4190001e-02
   8.9411360e+02   4.4248400e-01
   8.9459570e+02   9.9615800e-01
   8.9507780e+02   1.4306280e+00
   8.9555990e+02   1.7184790e+00
   8.9604210e+02   1.7741580e+00
   8.9652420e+02   1.4766830e+00
   8.9700630e+02   1.1997370e+00
   8.9748840e+02   9.8446800e-01
   8.9797050e+02   8.1540500e-01
   8.9845260e+02   8.0261900e-01
   8.9893480e+02   9.7984400e-01
   8.9941690e+02   9.7449300e-01
   8.9989900e+02   5.9358700e-01
   9.0038110e+02   3.6385900e-01
   9.0086320e+02   1.0531690e+00
   9.0134530e+02   1.9645280e+00
   9.0182750e+02   2.2609340e+00
   9.0230960e+02   1.2299560e+00
   9.0279170e+02   5.7560500e-01
   9.0327380e+02   3.8647000e-01
   9.0375590e+02   4.6017000e-01
   9.0423800e+02   7.2141600e-01
   9.0472020e+02   1.1223880e+00
   9.0520230e+02   1.2178960e+00
   9.0568440e+02   1.0068810e+00
   9.0616650e+02   7.3162700e-01
   9.0664860e+02   5.2838600e-01
   9.0713070e+02   4.1364300e-01
   9.0761290e+02   4.3541900e-01
   9.0809500e+02   6.0941600e-01
   9.0857710e+02   7.2727100e-01
   9.0905920e+02   6.8712100e-01
   9.0954130e+02   7.0208200e-01
   9.1002340e+02   9.3867400e-01
   9.1050560e+02   1.3116050e+00
   9.1098770e+02   1.1763350e+00
   9.1146980e+02   5.6657000e-01
   9.1195190e+02   8.4426001e-02
   9.1243400e+02   2.9650400e-01
   9.1291610e+02   6.1035700e-01
   9.1339830e+02   2.9223500e-01
   9.1388040e+02   4.1634800e-01
   9.1436250e+02   8.3991100e-01
   9.1484460e+02   5.8502400e-01
   9.1532670e+02   2.8241300e-01
   9.1580880e+02   5.1447000e-02
   9.1629100e+02   1.7027400e-01
   9.1677310e+02   5.9030300e-01
   9.1725520e+02   1.1994930e+00
   9.1773730e+02   1.5013840e+00
   9.1821940e+02   1.3243780e+00
   9.1870150e+02   1.0068650e+00
   9.1918370e+02   8.9135300e-01
   9.1966580e+02   8.7652500e-01
   9.2014790e+02   8.1778300e-01
   9.2063000e+02   6.3197800e-01
   9.2111210e+02   5.0655900e-01
   9.2159420e+02   4.1914000e-01
   9.2207640e+02   4.4512700e-01
   9.2255850e+02   7.2408100e-01
   9.2304060e+02   1.2735930e+00
   9.2352270e+02   1.4862650e+00
   9.2400480e+02   1.3277680e+00
   9.2448690e+02   1.1228660e+00
   9.2496910e+02   1.1931240e+00
   9.2545120e+02   1.3389390e+00
   9.2593330e+02   1.2969890e+00
   9.2641540e+02   1.0881520e+00
   9.2689750e+02   9.7760200e-01
   9.2737960e+02   1.2007190e+00
   9.2786180e+02   1.3501420e+00
   9.2834390e+02   1.2659800e+00
   9.2882600e+02   9.9870200e-01
   9.2930810e+02   7.7934100e-01
   9.2979020e+02   6.0767400e-01
   9.3027230e+02   5.5772100e-01
   9.3075450e+02   7.3744500e-01
   9.3123660e+02   9.6733000e-01
   9.3171870e+02   1.0595390e+00
   9.3220080e+02   1.0413040e+00
   9.3268290e+02   9.6870300e-01
   9.3316500e+02   7.5193700e-01
   9.3364720e+02   6.2314200e-01
   9.3412930e+02   6.0098500e-01
   9.3461140e+02   6.8555300e-01
   9.3509350e+02   9.7720800e-01
   9.3557560e+02   1.4726390e+00
   9.3605770e+02   1.5377440e+00
   9.3653990e+02   1.0252420e+00
   9.3702200e+02   4.8399500e-01
   9.3750410e+02   4.1684600e-01
   9.3798620e+02   6.5033600e-01
   9.3846830e+02   1.0935480e+00
   9.3895040e+02   1.8526740e+00
   9.3943260e+02   2.1402230e+00
   9.3991470e+02   1.4769550e+00
   9.4039680e+02   7.7946300e-01
   9.4087890e+02   5.8100800e-01
   9.4136100e+02   8.2834600e-01
   9.4184310e+02   8.6136300e-01
   9.4232530e+02   6.8036900e-01
   9.4280740e+02   4.2069700e-01
   9.4328950e+02   1.2961000e-02
   9.4377160e+02   3.4717100e-01
   9.4425370e+02   1.8044700e-01
   9.4473580e+02   3.2666000e-01
   9.4521800e+02   5.6757300e-01
   9.4570010e+02   3.1830002e-02
   9.4618220e+02   2.6485100e-01
   9.4666430e+02   2.3472900e-01
   9.4714640e+02   1.0637830e+00
   9.4762850e+02   1.3704160e+00
   9.4811070e+02   1.2087610e+00
   9.4859280e+02   9.1811800e-01
   9.4907490e+02   4.9739300e-01
   9.4955700e+02   2.5457500e-01
   9.5003910e+02   7.0160100e-01
   9.5052120e+02   1.3554150e+00
   9.5100340e+02   1.6502960e+00
   9.5148550e+02   1.3129780e+00
   9.5196760e+02   9.9272500e-01
   9.5244970e+02   6.6618300e-01
   9.5293180e+02   4.0155500e-01
   9.5341390e+02   2.3776600e-01
   9.5389610e+02   1.7925900e-01
   9.5437820e+02   3.2366500e-01
   9.5486030e+02   6.5299300e-01
   9.5534240e+02   8.8972800e-01
   9.5582450e+02   7.1464600e-01
   9.5630660e+02   4.9731400e-01
   9.5678880e+02   5.5075000e-01
   9.5727090e+02   8.3384800e-01
   9.5775300e+02   9.3153700e-01
   9.5823510e+02   7.0849200e-01
   9.5871720e+02   5.2974100e-01
   9.5919930e+02   5.0945900e-01
   9.5968150e+02   5.9122700e-01
   9.6016360e+02   6.8615700e-01
   9.6064570e+02   7.8213300e-01
   9.6112780e+02   8.3004800e-01
   9.6160990e+02   7.7552500e-01
   9.6209200e+02   7.5334800e-01
   9.6257420e+02   8.6839000e-01
   9.6305630e+02   1.0401570e+00
   9.6353840e+02   1.1955130e+00
   9.6402050e+02   1.4218860e+00
   9.6450260e+02   1.3038010e+00
   9.6498470e+02   7.2013400e-01
   9.6546690e+02   2.1372000e-01
   9.6594900e+02   4.1476700e-01
   9.6643110e+02   1.0148040e+00
   9.6691320e+02   1.4505190e+00
   9.6739530e+02   1.6747730e+00
   9.6787740e+02   1.6468260e+00
   9.6835960e+02   1.0426380e+00
   9.6884170e+02   4.8158900e-01
   9.6932380e+02   2.7581000e-01
   9.6980590e+02   3.5902700e-01
   9.7028800e+02   5.2151300e-01
   9.7077010e+02   7.8432400e-01
   9.7125230e+02   9.3029800e-01
   9.7173440e+02   8.1739700e-01
   9.7221650e+02   5.9820300e-01
   9.7269860e+02   4.4263700e-01
   9.7318070e+02   3.9710800e-01
   9.7366280e+02   5.5378600e-01
   9.7414500e+02   1.2117960e+00
   9.7462710e+02   1.6066170e+00
   9.7510920e+02   1.4615590e+00
   9.7559130e+02   1.1213950e+00
   9.7607340e+02   8.6814100e-01
   9.7655550e+02   7.0282600e-01
   9.7703770e+02   6.0372600e-01
   9.7751980e+02   5.7173300e-01
   9.7800190e+02   6.0377300e-01
   9.7848400e+02   7.5753600e-01
   9.7896610e+02   9.3211200e-01
   9.7944820e+02   1.0300440e+00
   9.7993040e+02   1.0478920e+00
   9.8041250e+02   1.0407580e+00
   9.8089460e+02   1.1182930e+00
   9.8137670e+02   9.8331700e-01
   9.8185880e+02   4.0917300e-01
   9.8234090e+02   3.3112800e-01
   9.8282310e+02   3.6450300e-01
   9.8330520e+02   1.7852600e-01
   9.8378730e+02   6.0843600e-01
   9.8426940e+02   6.2553900e-01
   9.8475150e+02   5.6294300e-01
   9.8523360e+02   6.3440100e-01
   9.8571580e+02   7.7223400e-01
   9.8619790e+02   8.9058800e-01
   9.8668000e+02   9.8910900e-01
   9.8716210e+02   1.0315950e+00
   9.8764420e+02   9.7354000e-01
   9.8812630e+02   9.8318900e-01
   9.8860850e+02   1.3394820e+00
   9.8909060e+02   1.8510430e+00
   9.8957270e+02   1.9966910e+00
   9.9005480e+02   1.7827970e+00
   9.9053690e+02   1.5588460e+00
   9.9101900e+02   1.5178570e+00
   9.9150120e+02   1.4968410e+00
   9.9198330e+02   1.4054260e+00
   9.9246540e+02   1.2720790e+00
   9.9294750e+02   1.2208560e+00
   9.9342960e+02   1.2709450e+00
   9.9391170e+02   1.2003540e+00
   9.9439390e+02   8.8601600e-01
   9.9487600e+02   5.4926600e-01
   9.9535810e+02   4.9630500e-01
   9.9584020e+02   6.2918100e-01
   9.9632230e+02   8.1534500e-01
   9.9680440e+02   1.1993130e+00
   9.9728660e+02   1.2058260e+00
   9.9776870e+02   4.5449400e-01
   9.9825080e+02   3.1814700e-01
   9.9873290e+02   5.6830700e-01
   9.9921500e+02   3.0878100e-01
   9.9969710e+02   2.1563600e-01
   1.0001790e+03   9.7807300e-01
   1.0006610e+03   1.5721990e+00
   1.0011430e+03   1.6642330e+00
   1.0016260e+03   1.4923520e+00
   1.0021080e+03   1.1460720e+00
   1.0025900e+03   7.1957200e-01
   1.0030720e+03   5.6419800e-01
   1.0035540e+03   8.4160400e-01
   1.0040360e+03   9.8130800e-01
   1.0045180e+03   8.9032000e-01
   1.0050000e+03   6.6038700e-01
   1.0054830e+03   4.2056500e-01
   1.0059650e+03   1.9365300e-01
   1.0064470e+03   3.6414001e-02
   1.0069290e+03   5.2816998e-02
   1.0074110e+03   2.2384999e-02
   1.0078930e+03   2.5621400e-01
   1.0083750e+03   5.9449200e-01
   1.0088570e+03   8.6848400e-01
   1.0093390e+03   1.0825470e+00
   1.0098220e+03   1.1653340e+00
   1.0103040e+03   1.1031700e+00
   1.0107860e+03   1.0447390e+00
   1.0112680e+03   1.1500360e+00
   1.0117500e+03   1.2675040e+00
   1.0122320e+03   1.1582680e+00
   1.0127140e+03   8.9970600e-01
   1.0131960e+03   7.1391300e-01
   1.0136790e+03   5.6466160e-01
   1.0141610e+03   4.1219030e-01
   1.0146430e+03   2.9039100e-01
   1.0151250e+03   2.5650700e-01
   1.0156070e+03   2.2035200e-01
   1.0160890e+03   2.8854100e-01
   1.0165710e+03   5.9739800e-01
   1.0170530e+03   6.0039700e-01
   1.0175350e+03   4.9116000e-01
   1.0180180e+03   2.6690500e-01
   1.0185000e+03   1.0504300e-01
   1.0189820e+03   2.0894900e-01
   1.0194640e+03   5.9468700e-01
   1.0199460e+03   7.5304600e-01
   1.0204280e+03   5.9766200e-01
   1.0209100e+03   5.5648900e-01
   1.0213920e+03   9.4133600e-01
   1.0218750e+03   1.4112110e+00
   1.0223570e+03   1.1220590e+00
   1.0228390e+03   4.0271800e-01
   1.0233210e+03   3.1488001e-02
   1.0238030e+03   6.7039100e-01
   1.0242850e+03   1.1608900e+00
   1.0247670e+03   1.0812500e+00
   1.0252490e+03   8.5153500e-01
   1.0257310e+03   9.0692400e-01
   1.0262140e+03   1.2527350e+00
   1.0266960e+03   1.2791350e+00
   1.0271780e+03   9.4709300e-01
   1.0276600e+03   7.0139000e-01
   1.0281420e+03   1.0190320e+00
   1.0286240e+03   1.4691800e+00
   1.0291060e+03   1.6749690e+00
   1.0295880e+03   1.6440220e+00
   1.0300710e+03   1.6463470e+00
   1.0305530e+03   1.8047870e+00
   1.0310350e+03   1.7177200e+00
   1.0315170e+03   1.1536300e+00
   1.0319990e+03   5.2379200e-01
   1.0324810e+03   6.8722600e-01
   1.0329630e+03   1.3666170e+00
   1.0334450e+03   1.8793900e+00
   1.0339270e+03   2.0960380e+00
   1.0344100e+03   1.9944980e+00
   1.0348920e+03   1.1565490e+00
   1.0353740e+03   3.4115700e-01
   1.0358560e+03   9.9671997e-02
   1.0363380e+03   4.2248400e-01
   1.0368200e+03   7.7553700e-01
   1.0373020e+03   1.1551590e+00
   1.0377840e+03   1.4767430e+00
   1.0382660e+03   1.7629020e+00
   1.0387490e+03   1.8993260e+00
   1.0392310e+03   1.6705060e+00
   1.0397130e+03   1.2055530e+00
   1.0401950e+03   8.0065000e-01
   1.0406770e+03   3.9097000e-01
   1.0411590e+03   3.3903000e-01
   1.0416410e+03   7.6092600e-01
   1.0421230e+03   1.2993210e+00
   1.0426050e+03   1.5141340e+00
   1.0430880e+03   1.4967300e+00
   1.0435700e+03   1.5202140e+00
   1.0440520e+03   1.6132000e+00
   1.0445340e+03   1.5927490e+00
   1.0450160e+03   1.1373510e+00
   1.0454980e+03   7.7178800e-01
   1.0459800e+03   8.1515200e-01
   1.0464620e+03   1.1732630e+00
   1.0469450e+03   1.4625460e+00
   1.0474270e+03   1.6884720e+00
   1.0479090e+03   1.7240650e+00
   1.0483910e+03   1.4359810e+00
   1.0488730e+03   1.1387410e+00
   1.0493550e+03   1.2801010e+00
   1.0498370e+03   1.5682800e+00
   1.0503190e+03   1.5691670e+00
   1.0508020e+03   8.7020100e-01
   1.0512840e+03   7.5421000e-01
   1.0517660e+03   1.5180640e+00
   1.0522480e+03   2.2259160e+00
   1.0527300e+03   2.0382640e+00
   1.0532120e+03   1.2919330e+00
   1.0536940e+03   1.0413900e+00
   1.0541760e+03   1.2142000e+00
   1.0546580e+03   1.4573930e+00
   1.0551410e+03   1.7841070e+00
   1.0556230e+03   1.9281010e+00
   1.0561050e+03   1.6414270e+00
   1.0565870e+03   1.1783090e+00
   1.0570690e+03   9.0217400e-01
   1.0575510e+03   8.3604200e-01
   1.0580330e+03   9.5564000e-01
   1.0585150e+03   1.3033660e+00
   1.0589980e+03   1.6435820e+00
   1.0594800e+03   1.8976300e+00
   1.0599620e+03   1.9472380e+00
   1.0604440e+03   1.5737940e+00
   1.0609260e+03   7.7403500e-01
   1.0614080e+03   4.5903200e-01
   1.0618900e+03   8.5780500e-01
   1.0623720e+03   1.1809200e+00
   1.0628540e+03   1.1269910e+00
   1.0633370e+03   9.0043100e-01
   1.0638190e+03   8.6677800e-01
   1.0643010e+03   9.6608600e-01
   1.0647830e+03   1.0855590e+00
   1.0652650e+03   1.2221730e+00
   1.0657470e+03   1.2721240e+00
   1.0662290e+03   1.1407100e+00
   1.0667110e+03   9.8531600e-01
   1.0671930e+03   8.1292200e-01
   1.0676760e+03   6.3768800e-01
   1.0681580e+03   7.5358500e-01
   1.0686400e+03   1.1458110e+00
   1.0691220e+03   1.5159970e+00
   1.0696040e+03   1.7246150e+00
   1.0700860e+03   1.8105780e+00
   1.0705680e+03   1.7955840e+00
   1.0710500e+03   1.6771460e+00
   1.0715320e+03   1.4235450e+00
   1.0720150e+03   9.1054900e-01
   1.0724970e+03   7.6067700e-01
   1.0729790e+03   1.1021310e+00
   1.0734610e+03   1.4698030e+00
   1.0739430e+03   1.1864630e+00
   1.0744250e+03   6.9043200e-01
   1.0749070e+03   6.8605400e-01
   1.0753890e+03   1.1791070e+00
   1.0758720e+03   1.5323130e+00
   1.0763540e+03   1.5055650e+00
   1.0768360e+03   1.4241800e+00
   1.0773180e+03   1.3703260e+00
   1.0778000e+03   1.3155270e+00
   1.0782820e+03   1.1345190e+00
   1.0787640e+03   8.8777800e-01
   1.0792460e+03   8.0723900e-01
   1.0797290e+03   9.8301900e-01
   1.0802110e+03   1.2196400e+00
   1.0806930e+03   1.5561330e+00
   1.0811750e+03   1.7832150e+00
   1.0816570e+03   1.7274390e+00
   1.0821390e+03   1.3893210e+00
   1.0826210e+03   1.0044160e+00
   1.0831030e+03   5.6329000e-01
   1.0835850e+03   4.8156400e-01
   1.0840680e+03   1.4179670e+00
   1.0845500e+03   2.3514290e+00
   1.0850320e+03   2.0988860e+00
   1.0855140e+03   1.1945610e+00
   1.0859960e+03   5.9699100e-01
   1.0864780e+03   5.2168300e-01
   1.0869600e+03   5.4166500e-01
   1.0874420e+03   6.5476900e-01
   1.0879250e+03   8.2929400e-01
   1.0884070e+03   1.2024900e+00
   1.0888890e+03   1.5411600e+00
   1.0893710e+03   1.2635510e+00
   1.0898530e+03   4.6426800e-01
   1.0903350e+03   1.0802000e-01
   1.0908170e+03   1.2244100e-01
   1.0912990e+03   9.7507998e-02
   1.0917810e+03   6.0737400e-01
   1.0922640e+03   1.1587350e+00
   1.0927460e+03   1.2027050e+00
   1.0932280e+03   2.4737700e-01
   1.0937100e+03   1.1296220e+00
   1.0941920e+03   1.9026540e+00
   1.0946740e+03   2.1041840e+00
   1.0951560e+03   2.2441000e-02
   1.0956380e+03   8.8910200e-01
   1.0961200e+03   5.7420000e-01
   1.0966030e+03   2.1084300e-01
   1.0970850e+03   1.4925340e+00
   1.0975670e+03   2.5702800e-01
   1.0980490e+03   9.9995500e-01
   1.0985310e+03   1.0567300e+00
   1.0990130e+03   1.6619650e+00
   1.0994950e+03   1.0783400e+00
   1.0999770e+03   8.6192800e-01
   1.1004590e+03   1.8348140e+00
   1.1009420e+03   2.1491760e+00
   1.1014240e+03   1.4287520e+00
   1.1019060e+03   2.0689830e+00
   1.1023880e+03   2.7819700e-01
   1.1028700e+03   6.2068700e-01
   1.1033520e+03   1.8836040e+00
   1.1038340e+03   1.2230330e+00
   1.1043160e+03   1.8850770e+00
   1.1047990e+03   2.0433940e+00
   1.1052810e+03   8.7255999e-02
   1.1057630e+03   1.7630470e+00
   1.1062450e+03   1.8916470e+00
   1.1067270e+03   2.5243800e-01
   1.1072090e+03   1.9663640e+00
   1.1076910e+03   5.7089300e-01
   1.1081730e+03   2.8530600e-01
   1.1086560e+03   8.3496200e-01
   1.1091380e+03   5.1393100e-01
   1.1096200e+03   1.5657040e+00
   1.1101020e+03   1.2949890e+00
   1.1105840e+03   9.0611700e-01
   1.1110660e+03   1.0331510e+00
   1.1115480e+03   6.8554000e-01
   1.1120300e+03   1.0818890e+00
   1.1125120e+03   6.0710400e-01
   1.1129950e+03   1.0522930e+00
   1.1134770e+03   1.7062440e+00
   1.1139590e+03   7.6299000e-01
   1.1144410e+03   1.5113300e+00
   1.1149230e+03   3.6280300e-01
   1.1154050e+03   4.2552002e-02
   1.1158870e+03   4.1384999e-02
   1.1163690e+03  -1.7354130e-01
   1.1168520e+03   3.3337700e-01
   1.1173340e+03   7.4120998e-02
   1.1178160e+03   1.0881060e+00
   1.1182980e+03   9.8685100e-01
   1.1187800e+03   1.4138730e+00
   1.1192620e+03   2.7700300e-01
   1.1197440e+03   6.0929800e-01
   1.1202260e+03   5.3664900e-01
   1.1207080e+03   1.8633570e+00
   1.1211910e+03   2.0854410e+00
   1.1216730e+03   9.7513100e-01
   1.1221550e+03   1.2952400e-01
   1.1226370e+03   1.2978830e+00
   1.1231190e+03   3.2535800e-01
   1.1236010e+03   6.4757900e-01
   1.1240830e+03   3.6739500e-01
   1.1245650e+03   2.2797100e-01
   1.1250470e+03   9.0671003e-02
   1.1255300e+03   6.6555800e-01
   1.1260120e+03   5.5967300e-01
   1.1264940e+03   8.4595500e-01
   1.1269760e+03   7.4657400e-01
   1.1274580e+03   1.0435300e+00
   1.1279400e+03   1.2963920e+00
   1.1284220e+03   1.4553240e+00
   1.1289040e+03   1.1839100e+00
   1.1293860e+03   1.7174350e+00
   1.1298690e+03   5.3282600e-01
   1.1303510e+03   1.4500000e-04
   1.1308330e+03   6.9081999e-02
   1.1313150e+03   2.0488030e+00
   1.1317970e+03   2.1338170e+00
   1.1322790e+03   2.1067900e-01
   1.1327610e+03   1.8108130e+00
   1.1332430e+03   1.1459510e+00
   1.1337260e+03   1.2793660e+00
   1.1342080e+03   1.1215550e+00
   1.1346900e+03   1.0512900e+00
   1.1351720e+03   4.2624600e-01
   1.1356540e+03   2.8566000e-01
   1.1361360e+03   5.0206400e-01
   1.1366180e+03   8.5559200e-01
   1.1371000e+03   1.2376550e+00
   1.1375830e+03   1.5402680e+00
   1.1380650e+03   1.5740180e+00
   1.1385470e+03   1.7985940e+00
   1.1390290e+03   1.2785880e+00
   1.1395110e+03   1.8129020e+00
   1.1399930e+03   2.1097890e+00
   1.1404750e+03   1.7851100e+00
   1.1409570e+03   1.2079300e+00
   1.1414390e+03   8.6169100e-01
   1.1419220e+03   7.1200300e-01
   1.1424040e+03   7.2499600e-01
   1.1428860e+03   1.0344820e+00
   1.1433680e+03   1.1026860e+00
   1.1438500e+03   8.1067000e-01
   1.1443320e+03   4.6450300e-01
   1.1448140e+03   1.9736800e-01
   1.1452960e+03   4.4606999e-02
   1.1457790e+03   1.5373300e-01
   1.1462610e+03   4.5659200e-01
   1.1467430e+03   7.5519100e-01
   1.1472250e+03   9.2623200e-01
   1.1477070e+03   1.1579130e+00
   1.1481890e+03   1.5883070e+00
   1.1486710e+03   1.9393270e+00
   1.1491530e+03   1.8938040e+00
   1.1496350e+03   1.5465280e+00
   1.1501180e+03   1.3463600e+00
   1.1506000e+03   1.3001500e+00
   1.1510820e+03   1.3537600e+00
   1.1515640e+03   1.7468990e+00
   1.1520460e+03   1.9398060e+00
   1.1525280e+03   1.5782180e+00
   1.1530100e+03   1.0484230e+00
   1.1534920e+03   9.3819000e-01
   1.1539740e+03   1.1906300e+00
   1.1544570e+03   1.0614720e+00
   1.1549390e+03   4.9435500e-01
   1.1554210e+03   3.5328999e-02
   1.1559030e+03   1.6265100e-01
   1.1563850e+03   4.4036300e-01
   1.1568670e+03   6.8386400e-01
   1.1573490e+03   8.7346900e-01
   1.1578310e+03   9.5416300e-01
   1.1583130e+03   9.2412900e-01
   1.1587960e+03   8.9012300e-01
   1.1592780e+03   8.5943600e-01
   1.1597600e+03   9.1402900e-01
   1.1602420e+03   1.3597400e+00
   1.1607240e+03   1.7259910e+00
   1.1612060e+03   1.4903200e+00
   1.1616880e+03   7.5511500e-01
   1.1621700e+03   3.5693600e-01
   1.1626530e+03   3.0495500e-01
   1.1631350e+03   4.9407600e-01
   1.1636170e+03   1.0017360e+00
   1.1640990e+03   1.4161210e+00
   1.1645810e+03   1.1286540e+00
   1.1650630e+03   6.4077900e-01
   1.1655450e+03   5.4614400e-01
   1.1660270e+03   9.5498500e-01
   1.1665100e+03   1.0663980e+00
   1.1669920e+03   8.3093500e-01
   1.1674740e+03   5.7485000e-01
   1.1679560e+03   4.1977600e-01
   1.1684380e+03   3.2518000e-01
   1.1689200e+03   1.1733100e-01
   1.1694020e+03   1.4001000e-02
   1.1698840e+03   2.7564100e-01
   1.1703660e+03   1.3389370e+00
   1.1708490e+03   1.8272870e+00
   1.1713310e+03   1.5949370e+00
   1.1718130e+03   1.2544040e+00
   1.1722950e+03   1.0869190e+00
   1.1727770e+03   1.0334220e+00
   1.1732590e+03   1.2554270e+00
   1.1737410e+03   1.5912960e+00
   1.1742230e+03   1.7473960e+00
   1.1747060e+03   1.4280490e+00
   1.1751880e+03   1.2290790e+00
   1.1756700e+03   1.1709710e+00
   1.1761520e+03   1.1710990e+00
   1.1766340e+03   1.2324300e+00
   1.1771160e+03   1.2780490e+00
   1.1775980e+03   1.0729270e+00
   1.1780800e+03   7.1768300e-01
   1.1785630e+03   5.1711200e-01
   1.1790450e+03   7.2482900e-01
   1.1795270e+03   8.5730400e-01
   1.1800090e+03   8.4767500e-01
   1.1804910e+03   8.1060700e-01
   1.1809730e+03   9.3705100e-01
   1.1814550e+03   1.0715670e+00
   1.1819370e+03   6.5580100e-01
   1.1824190e+03   1.4047100e-01
   1.1829010e+03   5.7445700e-01
   1.1833840e+03   1.3225400e-01
   1.1838660e+03   4.3133200e-01
   1.1843480e+03   1.1456600e+00
   1.1848300e+03   1.6723440e+00
   1.1853120e+03   1.3255820e+00
   1.1857940e+03   5.0869500e-01
   1.1862760e+03   3.3873300e-01
   1.1867580e+03   8.4909200e-01
   1.1872400e+03   1.4249530e+00
   1.1877230e+03   2.1875090e+00
   1.1882050e+03   2.3963170e+00
   1.1886870e+03   1.6391940e+00
   1.1891690e+03   6.0242600e-01
   1.1896510e+03   4.8657300e-01
   1.1901330e+03   9.5557900e-01
   1.1906150e+03   1.1733330e+00
   1.1910970e+03   1.0091650e+00
   1.1915800e+03   7.7010500e-01
   1.1920620e+03   2.4911600e-01
   1.1925440e+03   1.4597400e-01
   1.1930260e+03   8.4685300e-01
   1.1935080e+03   1.9182370e+00
   1.1939900e+03   2.4998000e+00
   1.1944720e+03   2.6385200e+00
   1.1949540e+03   2.4052990e+00
   1.1954370e+03   1.7649500e+00
   1.1959190e+03   1.2392480e+00
   1.1964010e+03   1.0562550e+00
   1.1968830e+03   1.0588870e+00
   1.1973650e+03   1.2101830e+00
   1.1978470e+03   1.4718180e+00
   1.1983290e+03   1.8952430e+00
   1.1988110e+03   2.3470320e+00
   1.1992930e+03   2.1961950e+00
   1.1997760e+03   1.0916470e+00
   1.2002580e+03   3.0213100e-01
   1.2007400e+03   7.6049500e-01
   1.2012220e+03   1.3251410e+00
   1.2017040e+03   1.4391560e+00
   1.2021860e+03   1.2030990e+00
   1.2026680e+03   9.2191500e-01
   1.2031500e+03   6.3367000e-01
   1.2036330e+03   4.8825300e-01
   1.2041150e+03   5.3077300e-01
   1.2045970e+03   7.3198000e-01
   1.2050790e+03   1.3719530e+00
   1.2055610e+03   1.8545370e+00
   1.2060430e+03   1.7285300e+00
   1.2065250e+03   1.1611950e+00
   1.2070070e+03   1.0437400e+00
   1.2074900e+03   1.2844980e+00
   1.2079720e+03   1.4715790e+00
   1.2084540e+03   1.4563260e+00
   1.2089360e+03   1.3380550e+00
   1.2094180e+03   9.9911200e-01
   1.2099000e+03   7.2112300e-01
   1.2103820e+03   7.2116300e-01
   1.2108640e+03   9.5297100e-01
   1.2113460e+03   1.1585340e+00
   1.2118280e+03   1.3162930e+00
   1.2123110e+03   1.3056670e+00
   1.2127930e+03   9.1289400e-01
   1.2132750e+03   5.8545700e-01
   1.2137570e+03   4.6004800e-01
   1.2142390e+03   4.9783000e-01
   1.2147210e+03   7.7844700e-01
   1.2152030e+03   1.2347150e+00
   1.2156850e+03   1.2460680e+00
   1.2161670e+03   9.0236100e-01
   1.2166500e+03   6.8418700e-01
   1.2171320e+03   9.9627100e-01
   1.2176140e+03   1.2567210e+00
   1.2180960e+03   1.3253850e+00
   1.2185780e+03   1.2284380e+00
   1.2190600e+03   8.3899100e-01
   1.2195420e+03   2.5881300e-01
   1.2200240e+03   2.6066400e-01
   1.2205070e+03   7.6455100e-01
   1.2209890e+03   1.2513540e+00
   1.2214710e+03   1.5800540e+00
   1.2219530e+03   1.6873820e+00
   1.2224350e+03   1.3967390e+00
   1.2229170e+03   1.0783210e+00
   1.2233990e+03   1.1956710e+00
   1.2238810e+03   1.6282220e+00
   1.2243640e+03   1.7758330e+00
   1.2248460e+03   1.6465730e+00
   1.2253280e+03   1.4164060e+00
   1.2258100e+03   1.0460340e+00
   1.2262920e+03   7.6748000e-01
   1.2267740e+03   6.8571500e-01
   1.2272560e+03   6.1608300e-01
   1.2277380e+03   2.7074200e-01
   1.2282200e+03   2.3786600e-01
   1.2287030e+03   5.1082100e-01
   1.2291850e+03   5.3579700e-01
   1.2296670e+03   3.9403600e-01
   1.2301490e+03   1.6795800e-01
   1.2306310e+03   4.7038100e-01
   1.2311130e+03   2.4175700e-01
   1.2315950e+03   9.9179998e-02
   1.2320770e+03   4.0270001e-02
   1.2325600e+03   4.8682700e-01
   1.2330420e+03   7.5128800e-01
   1.2335240e+03   8.2057200e-01
   1.2340060e+03   8.9245100e-01
   1.2344880e+03   1.0851780e+00
   1.2349700e+03   1.2290660e+00
   1.2354520e+03   1.2734110e+00
   1.2359340e+03   1.2907980e+00
   1.2364170e+03   1.4366750e+00
   1.2368990e+03   1.3419970e+00
   1.2373810e+03   1.5269380e+00
   1.2378630e+03   1.1998940e+00
   1.2383450e+03   9.3736600e-01
   1.2388270e+03   8.4654700e-01
   1.2393090e+03   8.3224300e-01
   1.2397910e+03   8.9171300e-01
   1.2402730e+03   9.8078600e-01
   1.2407550e+03   1.0658610e+00
   1.2412380e+03   1.2041260e+00
   1.2417200e+03   1.3967930e+00
   1.2422020e+03   1.6204510e+00
   1.2426840e+03   1.6291200e+00
   1.2431660e+03   1.2367550e+00
   1.2436480e+03   9.1897500e-01
   1.2441300e+03   7.5404800e-01
   1.2446120e+03   7.1355400e-01
   1.2450940e+03   9.2563100e-01
   1.2455770e+03   1.1451570e+00
   1.2460590e+03   8.2859500e-01
   1.2465410e+03   6.2800001e-04
   1.2470230e+03   1.9713000e-01
   1.2475050e+03   5.9737000e-01
   1.2479870e+03   1.2048900e+00
   1.2484690e+03   1.3513150e+00
   1.2489510e+03   1.3295160e+00
   1.2494340e+03   1.5570550e+00
   1.2499160e+03   1.7877710e+00
   1.2503980e+03   1.6696560e+00
   1.2508800e+03   1.2005610e+00
   1.2513620e+03   8.9646100e-01
   1.2518440e+03   8.1635100e-01
   1.2523260e+03   6.9354700e-01
   1.2528080e+03   4.3654500e-01
   1.2532910e+03   2.6418700e-01
   1.2537730e+03   5.2598500e-01
   1.2542550e+03   8.9695300e-01
   1.2547370e+03   1.0471740e+00
   1.2552190e+03   9.7509800e-01
   1.2557010e+03   9.7671800e-01
   1.2561830e+03   1.0773510e+00
   1.2566650e+03   9.8446200e-01
   1.2571470e+03   5.8464600e-01
   1.2576300e+03   2.4842500e-01
   1.2581120e+03   4.1689500e-01
   1.2585940e+03   7.1729500e-01
   1.2590760e+03   8.5522000e-01
   1.2595580e+03   8.4269600e-01
   1.2600400e+03   7.5303000e-01
   1.2605220e+03   5.8647300e-01
   1.2610040e+03   3.9408000e-01
   1.2614870e+03   1.5220900e-01
   1.2619690e+03   1.2839300e-01
   1.2624510e+03   8.3275600e-01
   1.2629330e+03   1.5204790e+00
   1.2634150e+03   1.6096260e+00
   1.2638970e+03   1.9436640e+00
   1.2643790e+03   2.0029490e+00
   1.2648610e+03   1.7717190e+00
   1.2653440e+03   1.7138500e+00
   1.2658260e+03   9.9032900e-01
   1.2663080e+03   3.9600900e-01
   1.2667900e+03   3.6426700e-01
   1.2672720e+03   5.2481800e-01
   1.2677540e+03   8.6459400e-01
   1.2682360e+03   1.1537870e+00
   1.2687180e+03   1.1145150e+00
   1.2692000e+03   8.3396100e-01
   1.2696820e+03   6.3604000e-01
   1.2701650e+03   5.9419800e-01
   1.2706470e+03   5.3528500e-01
   1.2711290e+03   2.4051300e-01
   1.2716110e+03   1.2136200e-01
   1.2720930e+03   3.5714300e-01
   1.2725750e+03   7.7918700e-01
   1.2730570e+03   1.1634870e+00
   1.2735390e+03   1.4447100e+00
   1.2740210e+03   1.3770550e+00
   1.2745040e+03   1.5470720e+00
   1.2749860e+03   1.6680720e+00
   1.2754680e+03   1.3547570e+00
   1.2759500e+03   1.6193210e+00
   1.2764320e+03   1.1665070e+00
   1.2769140e+03   4.9060200e-01
   1.2773960e+03   5.3512500e-01
   1.2778780e+03   8.7144800e-01
   1.2783610e+03   7.0257000e-01
   1.2788430e+03   9.7561400e-01
   1.2793250e+03   1.3762710e+00
   1.2798070e+03   1.1617770e+00
   1.2802890e+03   1.3160160e+00
   1.2807710e+03   1.7534940e+00
   1.2812530e+03   1.2044670e+00
   1.2817350e+03   1.0741530e+00
   1.2822180e+03   1.0536970e+00
   1.2827000e+03   6.7064800e-01
   1.2831820e+03   7.5536300e-01
   1.2836640e+03   8.3476000e-02
   1.2841460e+03   6.6884900e-01
   1.2846280e+03   1.1037470e+00
   1.2851100e+03   8.8974800e-01
   1.2855920e+03   6.1069900e-01
   1.2860740e+03   8.6748400e-01
   1.2865570e+03   1.2121800e+00
   1.2870390e+03   1.2709210e+00
   1.2875210e+03   1.1164320e+00
   1.2880030e+03   9.9338000e-01
   1.2884850e+03   9.0866600e-01
   1.2889670e+03   1.0242340e+00
   1.2894490e+03   1.4134510e+00
   1.2899310e+03   1.6182800e+00
   1.2904140e+03   1.1950920e+00
   1.2908960e+03   6.7695800e-01
   1.2913780e+03   2.6353600e-01
   1.2918600e+03   8.0600003e-04
   1.2923420e+03   5.0377999e-02
   1.2928240e+03   3.4661000e-01
   1.2933060e+03   6.9635300e-01
   1.2937880e+03   1.0791030e+00
   1.2942710e+03   1.2516770e+00
   1.2947530e+03   9.7378600e-01
   1.2952350e+03   7.9432100e-01
   1.2957170e+03   9.0122000e-01
   1.2961990e+03   1.1206580e+00
   1.2966810e+03   1.2402700e+00
   1.2971630e+03   1.2218650e+00
   1.2976450e+03   8.8065100e-01
   1.2981270e+03   1.9796000e-01
   1.2986090e+03   1.3562900e-01
   1.2990920e+03   6.5324001e-02
   1.2995740e+03   4.2475600e-01
   1.3000560e+03   9.2853300e-01
   1.3005380e+03   1.3351520e+00
   1.3010200e+03   1.2046110e+00
   1.3015020e+03   9.2257400e-01
   1.3019840e+03   7.6105700e-01
   1.3024660e+03   1.1557280e+00
   1.3029480e+03   1.1285510e+00
   1.3034310e+03   6.3251200e-01
   1.3039130e+03   2.2188400e-01
   1.3043950e+03   0.0000000e+00
   1.5000000e+03   0.0000000e+00
