   1.0000000e+02   0.0000000e+00
   1.5483970e+02   0.0000000e+00
   1.5532180e+02   3.9294920e+01
   1.5580390e+02   2.6656250e+01
   1.5628600e+02   3.0000000e+00
   1.5676820e+02   1.8848630e+01
   1.5725030e+02   6.6749020e+01
   1.5773240e+02   1.0982520e+02
   1.5821450e+02   1.5516210e+02
   1.5869660e+02   1.8225200e+02
   1.5917870e+02   1.7575000e+02
   1.5966090e+02   1.1099410e+02
   1.6014300e+02   6.5505860e+01
   1.6062510e+02   8.3754880e+01
   1.6110720e+02   1.4010640e+02
   1.6158930e+02   1.7547560e+02
   1.6207140e+02   1.4658010e+02
   1.6255360e+02   1.0180860e+02
   1.6303570e+02   7.4692380e+01
   1.6351780e+02   8.7193360e+01
   1.6399990e+02   1.0494040e+02
   1.6448200e+02   1.1042190e+02
   1.6496410e+02   1.0526070e+02
   1.6544630e+02   9.8735350e+01
   1.6592840e+02   9.3301760e+01
   1.6641050e+02   8.9552730e+01
   1.6689260e+02   8.8091800e+01
   1.6737470e+02   8.3474610e+01
   1.6785680e+02   8.4922850e+01
   1.6833900e+02   1.0195310e+02
   1.6882110e+02   1.3518750e+02
   1.6930320e+02   1.6888770e+02
   1.6978530e+02   1.7356350e+02
   1.7026740e+02   1.7239060e+02
   1.7074950e+02   2.0648930e+02
   1.7123170e+02   3.3618950e+02
   1.7171380e+02   4.8974320e+02
   1.7219590e+02   6.1921000e+02
   1.7267800e+02   7.3952640e+02
   1.7316010e+02   8.1395700e+02
   1.7364220e+02   8.7750390e+02
   1.7412440e+02   9.3137500e+02
   1.7460650e+02   9.7614450e+02
   1.7508860e+02   1.0206700e+03
   1.7557070e+02   1.0551990e+03
   1.7605280e+02   1.0646200e+03
   1.7653490e+02   1.0425100e+03
   1.7701710e+02   9.9880660e+02
   1.7749920e+02   9.4182810e+02
   1.7798130e+02   8.7211130e+02
   1.7846340e+02   7.9171970e+02
   1.7894550e+02   6.8922070e+02
   1.7942760e+02   5.7693360e+02
   1.7990980e+02   4.8110840e+02
   1.8039190e+02   4.1400000e+02
   1.8087400e+02   3.6601760e+02
   1.8135610e+02   3.2126270e+02
   1.8183820e+02   2.7992970e+02
   1.8232030e+02   2.3808400e+02
   1.8280250e+02   1.8621880e+02
   1.8328460e+02   1.2903810e+02
   1.8376670e+02   8.3456050e+01
   1.8424880e+02   6.2948240e+01
   1.8473090e+02   6.0251950e+01
   1.8521300e+02   5.6807620e+01
   1.8569510e+02   5.3240230e+01
   1.8617730e+02   4.6899410e+01
   1.8665940e+02   2.8637700e+01
   1.8714150e+02   4.4531300e-01
   1.8762360e+02   1.8666020e+01
   1.8810570e+02   7.3964840e+00
   1.8858780e+02   2.5282230e+01
   1.8907000e+02   3.0564450e+01
   1.8955210e+02   7.7031250e+00
   1.9003420e+02   5.6499020e+01
   1.9051630e+02   4.5362300e+01
   1.9099840e+02   2.7176760e+01
   1.9148050e+02   1.0154980e+02
   1.9196270e+02   1.2790430e+02
   1.9244480e+02   1.1037110e+02
   1.9292690e+02   1.0419920e+02
   1.9340900e+02   1.2261430e+02
   1.9389110e+02   1.5566110e+02
   1.9437320e+02   1.6913870e+02
   1.9485540e+02   1.5913770e+02
   1.9533750e+02   1.5325980e+02
   1.9581960e+02   1.8876560e+02
   1.9630170e+02   2.6729490e+02
   1.9678380e+02   3.2090040e+02
   1.9726590e+02   3.2439060e+02
   1.9774810e+02   2.8676460e+02
   1.9823020e+02   2.6362700e+02
   1.9871230e+02   2.5451460e+02
   1.9919440e+02   2.6208110e+02
   1.9967650e+02   2.9710250e+02
   2.0015860e+02   3.6476560e+02
   2.0064080e+02   4.2374510e+02
   2.0112290e+02   4.5183300e+02
   2.0160500e+02   4.4907620e+02
   2.0208710e+02   4.7494530e+02
   2.0256920e+02   5.2675590e+02
   2.0305130e+02   6.0927150e+02
   2.0353350e+02   7.1048540e+02
   2.0401560e+02   8.3322950e+02
   2.0449770e+02   9.5636230e+02
   2.0497980e+02   1.0603030e+03
   2.0546190e+02   1.1382710e+03
   2.0594400e+02   1.2440880e+03
   2.0642620e+02   1.3907960e+03
   2.0690830e+02   1.5539800e+03
   2.0739040e+02   1.6832280e+03
   2.0787250e+02   1.7716390e+03
   2.0835460e+02   1.8402300e+03
   2.0883670e+02   1.9134160e+03
   2.0931890e+02   2.0069790e+03
   2.0980100e+02   2.0485170e+03
   2.1028310e+02   2.0267620e+03
   2.1076520e+02   1.9499970e+03
   2.1124730e+02   1.8491550e+03
   2.1172940e+02   1.7153220e+03
   2.1221160e+02   1.5753300e+03
   2.1269370e+02   1.4561080e+03
   2.1317580e+02   1.3663960e+03
   2.1365790e+02   1.2586910e+03
   2.1414000e+02   1.1135140e+03
   2.1462210e+02   9.3664550e+02
   2.1510430e+02   8.0635550e+02
   2.1558640e+02   7.3334960e+02
   2.1606850e+02   6.9002150e+02
   2.1655060e+02   6.5345210e+02
   2.1703270e+02   6.2916800e+02
   2.1751480e+02   5.9656450e+02
   2.1799700e+02   5.4495310e+02
   2.1847910e+02   4.7209770e+02
   2.1896120e+02   4.2297170e+02
   2.1944330e+02   4.0673340e+02
   2.1992540e+02   4.0465230e+02
   2.2040750e+02   3.9178910e+02
   2.2088970e+02   3.6135940e+02
   2.2137180e+02   3.3307320e+02
   2.2185390e+02   3.1423440e+02
   2.2233600e+02   3.0754100e+02
   2.2281810e+02   2.9466700e+02
   2.2330020e+02   2.7232230e+02
   2.2378240e+02   2.4563960e+02
   2.2426450e+02   2.2121090e+02
   2.2474660e+02   1.8782420e+02
   2.2522870e+02   1.7627150e+02
   2.2571080e+02   2.0793360e+02
   2.2619290e+02   3.1671000e+02
   2.2667500e+02   3.7147170e+02
   2.2715720e+02   3.4689940e+02
   2.2763930e+02   2.7566020e+02
   2.2812140e+02   2.4219820e+02
   2.2860350e+02   2.6135840e+02
   2.2908560e+02   2.9656450e+02
   2.2956770e+02   3.3155080e+02
   2.3004990e+02   3.6583110e+02
   2.3053200e+02   4.0028220e+02
   2.3101410e+02   4.3982320e+02
   2.3149620e+02   4.7947850e+02
   2.3197830e+02   4.9755570e+02
   2.3246040e+02   4.8054590e+02
   2.3294260e+02   4.5882910e+02
   2.3342470e+02   4.5284380e+02
   2.3390680e+02   4.7904390e+02
   2.3438890e+02   4.8710550e+02
   2.3487100e+02   4.7133980e+02
   2.3535310e+02   4.3295700e+02
   2.3583530e+02   3.8047850e+02
   2.3631740e+02   2.9864260e+02
   2.3679950e+02   2.2030860e+02
   2.3728160e+02   1.7242680e+02
   2.3776370e+02   1.7332520e+02
   2.3824580e+02   1.6909380e+02
   2.3872800e+02   1.4702150e+02
   2.3921010e+02   1.0769630e+02
   2.3969220e+02   9.1106450e+01
   2.4017430e+02   1.1274610e+02
   2.4065640e+02   1.4167480e+02
   2.4113850e+02   1.4639260e+02
   2.4162070e+02   1.0408790e+02
   2.4210280e+02   7.8874020e+01
   2.4258490e+02   9.0299800e+01
   2.4306700e+02   1.4309470e+02
   2.4354910e+02   1.6961910e+02
   2.4403130e+02   1.5341500e+02
   2.4451340e+02   1.2457230e+02
   2.4499550e+02   1.2006640e+02
   2.4547760e+02   1.6239650e+02
   2.4595970e+02   1.9135160e+02
   2.4644180e+02   1.9081450e+02
   2.4692400e+02   1.5466310e+02
   2.4740610e+02   1.1231250e+02
   2.4788820e+02   5.2480470e+01
   2.4837030e+02   3.9082030e+00
   2.4885240e+02   2.4773440e+01
   2.4933450e+02   9.6357420e+00
   2.4981670e+02   3.5005860e+01
   2.5029880e+02   2.7167970e+01
   2.5078090e+02   2.8406250e+01
   2.5126300e+02   5.8527340e+01
   2.5174510e+02   5.1970700e+01
   2.5222720e+02   2.6698240e+01
   2.5270940e+02   1.5189450e+01
   2.5319150e+02   2.4652340e+01
   2.5367360e+02   3.5929690e+01
   2.5415570e+02   4.1941410e+01
   2.5463780e+02   4.0479490e+01
   2.5511990e+02   4.0554690e+01
   2.5560210e+02   4.1805660e+01
   2.5608420e+02   4.4802730e+01
   2.5656630e+02   5.1945310e+01
   2.5704840e+02   6.7314450e+01
   2.5753050e+02   7.9536130e+01
   2.5801260e+02   8.2670900e+01
   2.5849480e+02   7.2298830e+01
   2.5897690e+02   6.4996090e+01
   2.5945900e+02   6.2819340e+01
   2.5994110e+02   6.2794920e+01
   2.6042320e+02   5.8116210e+01
   2.6090530e+02   5.2056640e+01
   2.6138750e+02   3.4941410e+01
   2.6186960e+02   4.4482420e+00
   2.6235170e+02   7.9709960e+01
   2.6283380e+02   1.3037300e+02
   2.6331590e+02   1.4614160e+02
   2.6379800e+02   1.3674410e+02
   2.6428020e+02   1.3259180e+02
   2.6476230e+02   1.3146480e+02
   2.6524440e+02   1.3959380e+02
   2.6572650e+02   1.6249800e+02
   2.6620860e+02   2.0283590e+02
   2.6669070e+02   2.4631840e+02
   2.6717290e+02   2.9517580e+02
   2.6765500e+02   3.4472660e+02
   2.6813710e+02   3.7411520e+02
   2.6861920e+02   3.7160740e+02
   2.6910130e+02   3.7373540e+02
   2.6958340e+02   4.1248930e+02
   2.7006560e+02   4.9956840e+02
   2.7054770e+02   5.6312890e+02
   2.7102980e+02   5.8318950e+02
   2.7151190e+02   5.7438180e+02
   2.7199400e+02   6.0495020e+02
   2.7247610e+02   6.8688870e+02
   2.7295830e+02   7.7737010e+02
   2.7344040e+02   8.4644240e+02
   2.7392250e+02   8.9172660e+02
   2.7440460e+02   9.2757420e+02
   2.7488670e+02   9.5272360e+02
   2.7536880e+02   9.7090620e+02
   2.7585100e+02   1.0019210e+03
   2.7633310e+02   1.0495080e+03
   2.7681520e+02   1.0983970e+03
   2.7729730e+02   1.1378810e+03
   2.7777940e+02   1.1682180e+03
   2.7826150e+02   1.1873260e+03
   2.7874370e+02   1.1958400e+03
   2.7922580e+02   1.1927860e+03
   2.7970790e+02   1.1745670e+03
   2.8019000e+02   1.1420420e+03
   2.8067210e+02   1.0915010e+03
   2.8115420e+02   1.0133560e+03
   2.8163640e+02   9.0606640e+02
   2.8211850e+02   8.0228220e+02
   2.8260060e+02   7.1017190e+02
   2.8308270e+02   6.2627930e+02
   2.8356480e+02   5.3251170e+02
   2.8404690e+02   4.2570020e+02
   2.8452910e+02   3.2575290e+02
   2.8501120e+02   2.5003320e+02
   2.8549330e+02   1.9830080e+02
   2.8597540e+02   1.6632520e+02
   2.8645750e+02   1.6126370e+02
   2.8693960e+02   1.7305180e+02
   2.8742170e+02   1.6156640e+02
   2.8790380e+02   1.2284960e+02
   2.8838600e+02   8.7600590e+01
   2.8886810e+02   9.7878910e+01
   2.8935020e+02   1.4676560e+02
   2.8983230e+02   1.7321190e+02
   2.9031440e+02   1.4720800e+02
   2.9079650e+02   9.0301760e+01
   2.9127870e+02   6.6043950e+01
   2.9176080e+02   7.6776370e+01
   2.9224290e+02   9.3888670e+01
   2.9272500e+02   8.6608400e+01
   2.9320710e+02   6.0359380e+01
   2.9368920e+02   4.2098630e+01
   2.9417140e+02   4.5458980e+01
   2.9465350e+02   6.0778320e+01
   2.9513560e+02   6.5606450e+01
   2.9561770e+02   5.9777340e+01
   2.9609980e+02   5.4306640e+01
   2.9658190e+02   6.1306640e+01
   2.9706410e+02   7.7947270e+01
   2.9754620e+02   9.4378910e+01
   2.9802830e+02   1.1227050e+02
   2.9851040e+02   1.2561330e+02
   2.9899250e+02   1.2118550e+02
   2.9947460e+02   9.8810550e+01
   2.9995680e+02   7.2998050e+01
   3.0043890e+02   5.2085940e+01
   3.0092100e+02   3.6963870e+01
   3.0140310e+02   2.9674800e+01
   3.0188520e+02   3.4158200e+01
   3.0236730e+02   4.4541990e+01
   3.0284950e+02   5.3224610e+01
   3.0333160e+02   5.9948240e+01
   3.0381370e+02   6.8202150e+01
   3.0429580e+02   8.9068360e+01
   3.0477790e+02   1.1242770e+02
   3.0526000e+02   1.1962700e+02
   3.0574220e+02   8.2368160e+01
   3.0622430e+02   3.8379880e+01
   3.0670640e+02   3.2545900e+01
   3.0718850e+02   6.5883790e+01
   3.0767060e+02   9.7855470e+01
   3.0815270e+02   9.0980470e+01
   3.0863490e+02   6.5458980e+01
   3.0911700e+02   5.2844730e+01
   3.0959910e+02   8.0685550e+01
   3.1008120e+02   1.1897070e+02
   3.1056330e+02   1.4094820e+02
   3.1104540e+02   1.4713570e+02
   3.1152760e+02   1.6006840e+02
   3.1200970e+02   2.0686720e+02
   3.1249180e+02   2.6400490e+02
   3.1297390e+02   3.0532910e+02
   3.1345600e+02   2.9176270e+02
   3.1393810e+02   2.8412600e+02
   3.1442030e+02   3.2782030e+02
   3.1490240e+02   4.1809860e+02
   3.1538450e+02   4.9242480e+02
   3.1586660e+02   5.0228610e+02
   3.1634870e+02   4.9187110e+02
   3.1683080e+02   5.0195210e+02
   3.1731300e+02   5.4383010e+02
   3.1779510e+02   6.0855960e+02
   3.1827720e+02   7.0747360e+02
   3.1875930e+02   8.3630270e+02
   3.1924140e+02   9.4516800e+02
   3.1972350e+02   1.0110720e+03
   3.2020570e+02   1.0530670e+03
   3.2068780e+02   1.0877320e+03
   3.2116990e+02   1.1307650e+03
   3.2165200e+02   1.1551050e+03
   3.2213410e+02   1.1480050e+03
   3.2261620e+02   1.1121770e+03
   3.2309840e+02   1.0735190e+03
   3.2358050e+02   1.0215710e+03
   3.2406260e+02   9.7776370e+02
   3.2454470e+02   9.5661040e+02
   3.2502680e+02   9.8696680e+02
   3.2550890e+02   1.0106550e+03
   3.2599110e+02   1.0142980e+03
   3.2647320e+02   1.0002340e+03
   3.2695530e+02   9.9571290e+02
   3.2743740e+02   1.0146780e+03
   3.2791950e+02   1.0347580e+03
   3.2840160e+02   1.0428290e+03
   3.2888380e+02   1.0125930e+03
   3.2936590e+02   1.0025190e+03
   3.2984800e+02   1.0243910e+03
   3.3033010e+02   1.0723370e+03
   3.3081220e+02   1.1110600e+03
   3.3129430e+02   1.1347460e+03
   3.3177650e+02   1.1549210e+03
   3.3225860e+02   1.1785860e+03
   3.3274070e+02   1.2121700e+03
   3.3322280e+02   1.2367940e+03
   3.3370490e+02   1.2430970e+03
   3.3418700e+02   1.2396300e+03
   3.3466920e+02   1.2654840e+03
   3.3515130e+02   1.3430750e+03
   3.3563340e+02   1.4152250e+03
   3.3611550e+02   1.4431200e+03
   3.3659760e+02   1.4039460e+03
   3.3707970e+02   1.3972910e+03
   3.3756190e+02   1.4428720e+03
   3.3804400e+02   1.5180780e+03
   3.3852610e+02   1.5499650e+03
   3.3900820e+02   1.5222670e+03
   3.3949030e+02   1.4991870e+03
   3.3997240e+02   1.5253500e+03
   3.4045460e+02   1.6098220e+03
   3.4093670e+02   1.6615440e+03
   3.4141880e+02   1.6671740e+03
   3.4190090e+02   1.6489650e+03
   3.4238300e+02   1.6552640e+03
   3.4286510e+02   1.6885910e+03
   3.4334730e+02   1.7239870e+03
   3.4382940e+02   1.7469120e+03
   3.4431150e+02   1.7590850e+03
   3.4479360e+02   1.7758170e+03
   3.4527570e+02   1.7991280e+03
   3.4575780e+02   1.8259880e+03
   3.4624000e+02   1.8487270e+03
   3.4672210e+02   1.8680040e+03
   3.4720420e+02   1.8976100e+03
   3.4768630e+02   1.9502130e+03
   3.4816840e+02   2.0191230e+03
   3.4865050e+02   2.0814120e+03
   3.4913270e+02   2.1345310e+03
   3.4961480e+02   2.1889860e+03
   3.5009690e+02   2.2400300e+03
   3.5057900e+02   2.2974520e+03
   3.5106110e+02   2.4004000e+03
   3.5154320e+02   2.6157570e+03
   3.5202540e+02   2.8711920e+03
   3.5250750e+02   3.0423040e+03
   3.5298960e+02   3.1161620e+03
   3.5347170e+02   3.1817890e+03
   3.5395380e+02   3.3248340e+03
   3.5443590e+02   3.5185940e+03
   3.5491810e+02   3.7066120e+03
   3.5540020e+02   3.8503670e+03
   3.5588230e+02   3.9871780e+03
   3.5636440e+02   4.1501860e+03
   3.5684650e+02   4.3404900e+03
   3.5732860e+02   4.5473630e+03
   3.5781080e+02   4.7794000e+03
   3.5829290e+02   5.0213530e+03
   3.5877500e+02   5.2578940e+03
   3.5925710e+02   5.4812800e+03
   3.5973920e+02   5.6995930e+03
   3.6022130e+02   5.9282930e+03
   3.6070350e+02   6.1645250e+03
   3.6118560e+02   6.3674770e+03
   3.6166770e+02   6.5130690e+03
   3.6214980e+02   6.6196130e+03
   3.6263190e+02   6.7047870e+03
   3.6311400e+02   6.7823190e+03
   3.6359620e+02   6.8291260e+03
   3.6407830e+02   6.8557710e+03
   3.6456040e+02   6.8547910e+03
   3.6504250e+02   6.7750990e+03
   3.6552460e+02   6.5790780e+03
   3.6600670e+02   6.3162730e+03
   3.6648890e+02   6.0218270e+03
   3.6697100e+02   5.6408450e+03
   3.6745310e+02   5.2937010e+03
   3.6793520e+02   5.0024450e+03
   3.6841730e+02   4.7546880e+03
   3.6889940e+02   4.4983300e+03
   3.6938150e+02   4.2211040e+03
   3.6986360e+02   3.9497990e+03
   3.7034580e+02   3.6983820e+03
   3.7082790e+02   3.4626540e+03
   3.7131000e+02   3.2481140e+03
   3.7179210e+02   3.0482480e+03
   3.7227420e+02   2.8704760e+03
   3.7275630e+02   2.7357980e+03
   3.7323850e+02   2.6747400e+03
   3.7372060e+02   2.6078330e+03
   3.7420270e+02   2.4975720e+03
   3.7468480e+02   2.3265960e+03
   3.7516690e+02   2.1849350e+03
   3.7564900e+02   2.0735670e+03
   3.7613120e+02   1.9904820e+03
   3.7661330e+02   1.9361960e+03
   3.7709540e+02   1.9174480e+03
   3.7757750e+02   1.9000080e+03
   3.7805960e+02   1.8698950e+03
   3.7854170e+02   1.8281780e+03
   3.7902390e+02   1.7872960e+03
   3.7950600e+02   1.7445620e+03
   3.7998810e+02   1.7120750e+03
   3.8047020e+02   1.7226330e+03
   3.8095230e+02   1.7745490e+03
   3.8143440e+02   1.7920260e+03
   3.8191660e+02   1.7356920e+03
   3.8239870e+02   1.6299720e+03
   3.8288080e+02   1.5444520e+03
   3.8336290e+02   1.4797730e+03
   3.8384500e+02   1.4140790e+03
   3.8432710e+02   1.3258640e+03
   3.8480930e+02   1.2208150e+03
   3.8529140e+02   1.1169470e+03
   3.8577350e+02   1.0148500e+03
   3.8625560e+02   9.2241310e+02
   3.8673770e+02   8.5895020e+02
   3.8721980e+02   8.2243750e+02
   3.8770200e+02   7.9039360e+02
   3.8818410e+02   7.4487500e+02
   3.8866620e+02   6.8902830e+02
   3.8914830e+02   6.3279980e+02
   3.8963040e+02   5.7276170e+02
   3.9011250e+02   5.2395310e+02
   3.9059470e+02   5.0082420e+02
   3.9107680e+02   4.9866600e+02
   3.9155890e+02   5.0299710e+02
   3.9204100e+02   5.2021680e+02
   3.9252310e+02   5.3450590e+02
   3.9300520e+02   5.3858500e+02
   3.9348740e+02   5.1144820e+02
   3.9396950e+02   4.7461040e+02
   3.9445160e+02   4.2500200e+02
   3.9493370e+02   3.7778520e+02
   3.9541580e+02   3.3956050e+02
   3.9589790e+02   3.2908980e+02
   3.9638010e+02   3.2699900e+02
   3.9686220e+02   3.2246290e+02
   3.9734430e+02   3.2577050e+02
   3.9782640e+02   3.1655080e+02
   3.9830850e+02   2.8813090e+02
   3.9879060e+02   2.5499510e+02
   3.9927280e+02   2.3481450e+02
   3.9975490e+02   2.2979980e+02
   4.0023700e+02   2.3597850e+02
   4.0071910e+02   2.5795120e+02
   4.0120120e+02   2.9776860e+02
   4.0168330e+02   3.2513960e+02
   4.0216550e+02   3.3792680e+02
   4.0264760e+02   3.4068460e+02
   4.0312970e+02   3.3693650e+02
   4.0361180e+02   3.2642190e+02
   4.0409390e+02   3.1015820e+02
   4.0457600e+02   2.8642090e+02
   4.0505820e+02   2.5705470e+02
   4.0554030e+02   2.3086330e+02
   4.0602240e+02   2.0634180e+02
   4.0650450e+02   1.8977440e+02
   4.0698660e+02   1.9028710e+02
   4.0746880e+02   2.0926370e+02
   4.0795090e+02   2.1779980e+02
   4.0843300e+02   2.1194040e+02
   4.0891510e+02   1.9521090e+02
   4.0939720e+02   1.6805180e+02
   4.0987930e+02   1.3052440e+02
   4.1036150e+02   1.0545800e+02
   4.1084360e+02   1.1576170e+02
   4.1132570e+02   1.5002540e+02
   4.1180780e+02   1.6861040e+02
   4.1228990e+02   1.6772660e+02
   4.1277200e+02   1.5786230e+02
   4.1325420e+02   1.5133690e+02
   4.1373630e+02   1.4627250e+02
   4.1421840e+02   1.3664650e+02
   4.1470050e+02   1.0946000e+02
   4.1518260e+02   8.1523440e+01
   4.1566470e+02   7.7295900e+01
   4.1614690e+02   9.7687500e+01
   4.1662900e+02   1.1701760e+02
   4.1711110e+02   1.1420610e+02
   4.1759320e+02   9.9512700e+01
   4.1807530e+02   8.6518550e+01
   4.1855740e+02   7.2351560e+01
   4.1903960e+02   6.7073240e+01
   4.1952170e+02   7.8763670e+01
   4.2000380e+02   1.0530080e+02
   4.2048590e+02   1.3398440e+02
   4.2096800e+02   1.7875780e+02
   4.2145010e+02   2.1252640e+02
   4.2193230e+02   2.1564360e+02
   4.2241440e+02   1.7315620e+02
   4.2289650e+02   1.1739750e+02
   4.2337860e+02   3.8244140e+01
   4.2386070e+02   5.1333010e+01
   4.2434280e+02   1.1557520e+02
   4.2482500e+02   1.4722560e+02
   4.2530710e+02   1.5649220e+02
   4.2578920e+02   1.4309960e+02
   4.2627130e+02   9.2972660e+01
   4.2675340e+02   5.7123050e+01
   4.2723550e+02   4.3144530e+01
   4.2771770e+02   3.8841800e+01
   4.2819980e+02   2.7430660e+01
   4.2868190e+02   9.0087890e+00
   4.2916400e+02   1.5745120e+01
   4.2964610e+02   5.0030270e+01
   4.3012820e+02   9.2609380e+01
   4.3061040e+02   1.2172270e+02
   4.3109250e+02   1.3355080e+02
   4.3157460e+02   1.3995210e+02
   4.3205670e+02   1.5417870e+02
   4.3253880e+02   1.7643650e+02
   4.3302090e+02   1.9185940e+02
   4.3350310e+02   1.9867380e+02
   4.3398520e+02   1.9569140e+02
   4.3446730e+02   1.7435160e+02
   4.3494940e+02   1.3544430e+02
   4.3543150e+02   1.0011130e+02
   4.3591360e+02   9.2779300e+01
   4.3639580e+02   1.0130960e+02
   4.3687790e+02   9.1691410e+01
   4.3736000e+02   5.4936520e+01
   4.3784210e+02   1.2573240e+01
   4.3832420e+02   1.1823240e+01
   4.3880630e+02   2.2375980e+01
   4.3928850e+02   3.0952150e+01
   4.3977060e+02   5.0274410e+01
   4.4025270e+02   6.6573240e+01
   4.4073480e+02   6.4464840e+01
   4.4121690e+02   4.1272460e+01
   4.4169900e+02   1.6879880e+01
   4.4218120e+02   2.0898400e-01
   4.4266330e+02   1.0401370e+01
   4.4314540e+02   1.7222660e+01
   4.4362750e+02   2.2770510e+01
   4.4410960e+02   2.2384770e+01
   4.4459170e+02   3.0869140e+00
   4.4507390e+02   3.2063480e+01
   4.4555600e+02   3.9980470e+01
   4.4603810e+02   2.1858400e+01
   4.4652020e+02   9.0355470e+01
   4.4700230e+02   1.2833300e+02
   4.4748440e+02   1.0979300e+02
   4.4796660e+02   9.1183590e+01
   4.4844870e+02   7.4618160e+01
   4.4893080e+02   5.8412110e+01
   4.4941290e+02   3.5939450e+01
   4.4989500e+02   1.6035160e+00
   4.5037710e+02   1.2226070e+02
   4.5085920e+02   1.1132810e+00
   4.5134130e+02   6.9871090e+01
   4.5182350e+02   9.3395510e+01
   4.5230560e+02   7.2636720e+01
   4.5278770e+02   6.0302730e+00
   4.5326980e+02   1.3401370e+01
   4.5375190e+02   3.6894530e+01
   4.5423400e+02   7.6142580e+01
   4.5471620e+02   6.2478520e+01
   4.5519830e+02   4.8325200e+01
   4.5568040e+02   5.9531250e+01
   4.5616250e+02   1.1631840e+02
   4.5664460e+02   7.4386720e+01
   4.5712670e+02   6.2938480e+01
   4.5760890e+02   1.5021000e+02
   4.5809100e+02   1.8280570e+02
   4.5857310e+02   1.2948050e+02
   4.5905520e+02   1.8910940e+02
   4.5953730e+02   4.6909180e+01
   4.6001940e+02   8.1800780e+01
   4.6050160e+02   1.9309380e+02
   4.6098370e+02   1.4470020e+02
   4.6146580e+02   2.0608790e+02
   4.6194790e+02   2.2569920e+02
   4.6243000e+02   5.5325200e+01
   4.6291210e+02   2.1540040e+02
   4.6339430e+02   2.3247660e+02
   4.6387640e+02   1.0277540e+02
   4.6435850e+02   2.5143460e+02
   4.6484060e+02   1.4195700e+02
   4.6532270e+02   1.2461230e+02
   4.6580480e+02   1.7658890e+02
   4.6628700e+02   1.5628810e+02
   4.6676910e+02   2.4992870e+02
   4.6725120e+02   2.3378220e+02
   4.6773330e+02   2.0781840e+02
   4.6821540e+02   2.2464750e+02
   4.6869750e+02   1.2016890e+02
   4.6917970e+02   2.4073240e+02
   4.6966180e+02   2.0755860e+02
   4.7014390e+02   2.9981740e+02
   4.7062600e+02   3.3151860e+02
   4.7110810e+02   2.9924410e+02
   4.7159020e+02   2.6641110e+02
   4.7207240e+02   2.6293070e+02
   4.7255450e+02   2.9123340e+02
   4.7303660e+02   3.0349900e+02
   4.7351870e+02   2.9578810e+02
   4.7400080e+02   2.8256930e+02
   4.7448290e+02   2.8003520e+02
   4.7496510e+02   2.8788380e+02
   4.7544720e+02   3.0277540e+02
   4.7592930e+02   3.2913960e+02
   4.7641140e+02   3.5851760e+02
   4.7689350e+02   3.7491020e+02
   4.7737560e+02   3.7855470e+02
   4.7785780e+02   3.7193260e+02
   4.7833990e+02   3.4883500e+02
   4.7882200e+02   3.1924020e+02
   4.7930410e+02   2.9694040e+02
   4.7978620e+02   2.8362400e+02
   4.8026830e+02   2.8085940e+02
   4.8075050e+02   3.0304300e+02
   4.8123260e+02   3.3636720e+02
   4.8171470e+02   3.4854300e+02
   4.8219680e+02   3.0308980e+02
   4.8267890e+02   2.5443070e+02
   4.8316100e+02   2.3371290e+02
   4.8364320e+02   2.4758200e+02
   4.8412530e+02   2.6279880e+02
   4.8460740e+02   2.6119140e+02
   4.8508950e+02   2.5829300e+02
   4.8557160e+02   2.6813770e+02
   4.8605370e+02   3.0017380e+02
   4.8653590e+02   3.3633110e+02
   4.8701800e+02   3.7685350e+02
   4.8750010e+02   4.1973630e+02
   4.8798220e+02   4.6027830e+02
   4.8846430e+02   4.9409860e+02
   4.8894640e+02   5.3234770e+02
   4.8942860e+02   5.8512700e+02
   4.8991070e+02   6.5816210e+02
   4.9039280e+02   7.1303030e+02
   4.9087490e+02   7.4760640e+02
   4.9135700e+02   7.6831150e+02
   4.9183910e+02   7.9014650e+02
   4.9232130e+02   8.1309080e+02
   4.9280340e+02   8.1034470e+02
   4.9328550e+02   7.6097850e+02
   4.9376760e+02   6.8447270e+02
   4.9424970e+02   6.2693950e+02
   4.9473180e+02   5.8881050e+02
   4.9521400e+02   5.6069920e+02
   4.9569610e+02   5.4125290e+02
   4.9617820e+02   5.2420510e+02
   4.9666030e+02   5.0137700e+02
   4.9714240e+02   4.6999710e+02
   4.9762450e+02   4.3321090e+02
   4.9810670e+02   3.9281930e+02
   4.9858880e+02   3.4988180e+02
   4.9907090e+02   3.0577640e+02
   4.9955300e+02   2.3788870e+02
   5.0003510e+02   1.8541890e+02
   5.0051720e+02   1.8066500e+02
   5.0099940e+02   2.3475590e+02
   5.0148150e+02   2.6295120e+02
   5.0196360e+02   2.1853810e+02
   5.0244570e+02   1.5220610e+02
   5.0292780e+02   1.0921390e+02
   5.0340990e+02   1.1514650e+02
   5.0389210e+02   1.2377930e+02
   5.0437420e+02   1.3021390e+02
   5.0485630e+02   1.3370510e+02
   5.0533840e+02   1.2820120e+02
   5.0582050e+02   9.9650390e+01
   5.0630260e+02   9.0402340e+01
   5.0678480e+02   1.2605080e+02
   5.0726690e+02   2.1400290e+02
   5.0774900e+02   3.0128120e+02
   5.0823110e+02   3.8922560e+02
   5.0871320e+02   4.6980180e+02
   5.0919530e+02   4.9464750e+02
   5.0967750e+02   4.6782030e+02
   5.1015960e+02   4.5000680e+02
   5.1064170e+02   4.8592190e+02
   5.1112380e+02   5.3999020e+02
   5.1160590e+02   5.5165140e+02
   5.1208800e+02   5.2807230e+02
   5.1257010e+02   4.8905270e+02
   5.1305220e+02   4.6269630e+02
   5.1353440e+02   4.3823240e+02
   5.1401650e+02   4.0668650e+02
   5.1449860e+02   3.6206050e+02
   5.1498070e+02   3.2267190e+02
   5.1546280e+02   3.0530370e+02
   5.1594490e+02   3.0012400e+02
   5.1642710e+02   2.9065330e+02
   5.1690920e+02   2.8508200e+02
   5.1739130e+02   2.6201760e+02
   5.1787340e+02   2.0131540e+02
   5.1835550e+02   1.0067290e+02
   5.1883760e+02   2.6539060e+01
   5.1931980e+02   5.3251950e+00
   5.1980190e+02   1.3570310e+01
   5.2028400e+02   7.9863280e+00
   5.2076610e+02   1.8416020e+01
   5.2124820e+02   4.5759770e+01
   5.2173030e+02   7.7183590e+01
   5.2221250e+02   1.0680570e+02
   5.2269460e+02   1.1929100e+02
   5.2317670e+02   1.1133300e+02
   5.2365880e+02   9.9908200e+01
   5.2414090e+02   8.8683590e+01
   5.2462300e+02   7.8789060e+01
   5.2510520e+02   8.0695310e+01
   5.2558730e+02   9.5692380e+01
   5.2606940e+02   1.1232230e+02
   5.2655150e+02   1.1521970e+02
   5.2703360e+02   1.1042090e+02
   5.2751570e+02   1.1804200e+02
   5.2799790e+02   1.5166410e+02
   5.2848000e+02   1.8344920e+02
   5.2896210e+02   1.7306350e+02
   5.2944420e+02   1.3438960e+02
   5.2992630e+02   1.0828710e+02
   5.3040840e+02   1.2993550e+02
   5.3089060e+02   1.6170800e+02
   5.3137270e+02   1.7538090e+02
   5.3185480e+02   1.6593460e+02
   5.3233690e+02   1.6057130e+02
   5.3281900e+02   1.7762010e+02
   5.3330110e+02   1.9794040e+02
   5.3378330e+02   2.0384380e+02
   5.3426540e+02   1.6208690e+02
   5.3474750e+02   1.4350490e+02
   5.3522960e+02   1.6982320e+02
   5.3571170e+02   2.2469530e+02
   5.3619380e+02   2.4929980e+02
   5.3667600e+02   2.3091600e+02
   5.3715810e+02   2.0727640e+02
   5.3764020e+02   1.9227730e+02
   5.3812230e+02   1.8620210e+02
   5.3860440e+02   1.8988960e+02
   5.3908650e+02   2.0598050e+02
   5.3956870e+02   2.2500880e+02
   5.4005080e+02   2.3361230e+02
   5.4053290e+02   2.3404200e+02
   5.4101500e+02   2.4238670e+02
   5.4149710e+02   2.6962500e+02
   5.4197920e+02   2.9833200e+02
   5.4246140e+02   2.9349220e+02
   5.4294350e+02   2.6224020e+02
   5.4342560e+02   2.3756540e+02
   5.4390770e+02   2.3623440e+02
   5.4438980e+02   2.5267380e+02
   5.4487190e+02   2.8532910e+02
   5.4535410e+02   3.3602730e+02
   5.4583620e+02   3.8646880e+02
   5.4631830e+02   4.2208400e+02
   5.4680040e+02   4.5546290e+02
   5.4728250e+02   5.0062890e+02
   5.4776460e+02   5.7311230e+02
   5.4824680e+02   6.4300880e+02
   5.4872890e+02   7.0394920e+02
   5.4921100e+02   7.5741410e+02
   5.4969310e+02   8.0974120e+02
   5.5017520e+02   8.5887400e+02
   5.5065730e+02   9.0916990e+02
   5.5113950e+02   9.5979390e+02
   5.5162160e+02   1.0082040e+03
   5.5210370e+02   1.0808720e+03
   5.5258580e+02   1.1773370e+03
   5.5306790e+02   1.2917280e+03
   5.5355000e+02   1.4254290e+03
   5.5403220e+02   1.5774810e+03
   5.5451430e+02   1.7228500e+03
   5.5499640e+02   1.8471100e+03
   5.5547850e+02   1.9709260e+03
   5.5596060e+02   2.1293390e+03
   5.5644270e+02   2.3200270e+03
   5.5692490e+02   2.5271660e+03
   5.5740700e+02   2.7462550e+03
   5.5788910e+02   2.9739790e+03
   5.5837120e+02   3.2105970e+03
   5.5885330e+02   3.4561450e+03
   5.5933540e+02   3.6978550e+03
   5.5981760e+02   3.9426300e+03
   5.6029970e+02   4.1722100e+03
   5.6078180e+02   4.3707680e+03
   5.6126390e+02   4.5408570e+03
   5.6174600e+02   4.6685210e+03
   5.6222810e+02   4.7640430e+03
   5.6271030e+02   4.8174800e+03
   5.6319240e+02   4.7941230e+03
   5.6367450e+02   4.6744370e+03
   5.6415660e+02   4.4996580e+03
   5.6463870e+02   4.2794900e+03
   5.6512080e+02   4.0088250e+03
   5.6560300e+02   3.7336720e+03
   5.6608510e+02   3.4546460e+03
   5.6656720e+02   3.1792320e+03
   5.6704930e+02   2.9042380e+03
   5.6753140e+02   2.6367700e+03
   5.6801350e+02   2.4112370e+03
   5.6849570e+02   2.2488840e+03
   5.6897780e+02   2.1099360e+03
   5.6945990e+02   1.9220120e+03
   5.6994200e+02   1.6979330e+03
   5.7042410e+02   1.5000800e+03
   5.7090630e+02   1.3584960e+03
   5.7138840e+02   1.2595460e+03
   5.7187050e+02   1.1996970e+03
   5.7235260e+02   1.1785200e+03
   5.7283470e+02   1.1462640e+03
   5.7331680e+02   1.0554090e+03
   5.7379900e+02   9.5391600e+02
   5.7428110e+02   8.8470210e+02
   5.7476320e+02   8.8958010e+02
   5.7524530e+02   8.7850980e+02
   5.7572740e+02   8.2040820e+02
   5.7620950e+02   7.3977830e+02
   5.7669170e+02   6.8764940e+02
   5.7717380e+02   6.8608980e+02
   5.7765590e+02   6.7639940e+02
   5.7813800e+02   6.4029880e+02
   5.7862010e+02   5.7966210e+02
   5.7910220e+02   5.2456540e+02
   5.7958440e+02   4.7381930e+02
   5.8006650e+02   4.3261330e+02
   5.8054860e+02   4.0788770e+02
   5.8103070e+02   3.9748240e+02
   5.8151280e+02   3.8774610e+02
   5.8199490e+02   3.7690040e+02
   5.8247710e+02   3.6727640e+02
   5.8295920e+02   3.6665040e+02
   5.8344130e+02   3.6979590e+02
   5.8392340e+02   3.6375000e+02
   5.8440550e+02   3.4335350e+02
   5.8488760e+02   3.1160840e+02
   5.8536980e+02   2.6008400e+02
   5.8585190e+02   1.9489750e+02
   5.8633400e+02   1.4727250e+02
   5.8681610e+02   1.4779690e+02
   5.8729820e+02   1.5756050e+02
   5.8778030e+02   1.5361430e+02
   5.8826250e+02   1.2449900e+02
   5.8874460e+02   1.0562210e+02
   5.8922670e+02   9.8463870e+01
   5.8970880e+02   1.0191600e+02
   5.9019090e+02   1.1825680e+02
   5.9067300e+02   1.5778810e+02
   5.9115520e+02   1.7948930e+02
   5.9163730e+02   1.6860840e+02
   5.9211940e+02   1.4023830e+02
   5.9260150e+02   1.4466600e+02
   5.9308360e+02   1.8416310e+02
   5.9356570e+02   2.1768950e+02
   5.9404790e+02   2.1324410e+02
   5.9453000e+02   1.8680960e+02
   5.9501210e+02   1.8670210e+02
   5.9549420e+02   2.1469340e+02
   5.9597630e+02   2.3931450e+02
   5.9645840e+02   2.1701270e+02
   5.9694060e+02   1.8146090e+02
   5.9742270e+02   1.8051460e+02
   5.9790480e+02   2.5332030e+02
   5.9838690e+02   3.1477150e+02
   5.9886900e+02   3.1104000e+02
   5.9935110e+02   2.7018750e+02
   5.9983330e+02   2.4680080e+02
   6.0031540e+02   2.7253120e+02
   6.0079750e+02   2.9664940e+02
   6.0127960e+02   3.1203320e+02
   6.0176170e+02   3.1852340e+02
   6.0224380e+02   2.9396000e+02
   6.0272600e+02   2.2030370e+02
   6.0320810e+02   1.4794430e+02
   6.0369020e+02   1.1554880e+02
   6.0417230e+02   1.2766800e+02
   6.0465440e+02   1.1694040e+02
   6.0513650e+02   7.3551760e+01
   6.0561870e+02   2.6818360e+01
   6.0610080e+02   2.7813480e+01
   6.0658290e+02   6.4955080e+01
   6.0706500e+02   8.9383790e+01
   6.0754710e+02   8.3465820e+01
   6.0802920e+02   5.9642580e+01
   6.0851140e+02   2.0910160e+01
   6.0899350e+02   2.5422850e+01
   6.0947560e+02   5.6678710e+01
   6.0995770e+02   4.2042970e+01
   6.1043980e+02   1.8469730e+01
   6.1092190e+02   1.1486330e+01
   6.1140410e+02   2.7015620e+01
   6.1188620e+02   3.2259770e+01
   6.1236830e+02   1.3102540e+01
   6.1285040e+02   1.3704100e+01
   6.1333250e+02   3.4604490e+01
   6.1381460e+02   4.1767580e+01
   6.1429680e+02   6.2352540e+01
   6.1477890e+02   1.1490530e+02
   6.1526100e+02   1.6968360e+02
   6.1574310e+02   1.5264450e+02
   6.1622520e+02   5.3455080e+01
   6.1670730e+02   3.2932620e+01
   6.1718950e+02   6.4584960e+01
   6.1767160e+02   5.6976560e+01
   6.1815370e+02   4.4864260e+01
   6.1863580e+02   2.8959960e+01
   6.1911790e+02   2.0954100e+01
   6.1960000e+02   4.3917970e+01
   6.2008220e+02   7.2424800e+01
   6.2056430e+02   7.0176760e+01
   6.2104640e+02   2.6903320e+01
   6.2152850e+02   1.3396480e+01
   6.2201060e+02   2.6766600e+01
   6.2249270e+02   2.4508790e+01
   6.2297490e+02   1.8561520e+01
   6.2345700e+02   8.9550780e+00
   6.2393910e+02   1.5125980e+01
   6.2442120e+02   2.0588870e+01
   6.2490330e+02   8.0396480e+01
   6.2538540e+02   1.1770120e+02
   6.2586760e+02   1.2393950e+02
   6.2634970e+02   1.2703910e+02
   6.2683180e+02   1.3927640e+02
   6.2731390e+02   1.5665040e+02
   6.2779600e+02   1.5040720e+02
   6.2827810e+02   1.1789650e+02
   6.2876030e+02   8.9529300e+01
   6.2924240e+02   9.7296880e+01
   6.2972450e+02   1.2761910e+02
   6.3020660e+02   1.4481540e+02
   6.3068870e+02   1.4216890e+02
   6.3117080e+02   1.3672070e+02
   6.3165300e+02   1.4018360e+02
   6.3213510e+02   1.5157420e+02
   6.3261720e+02   1.6949410e+02
   6.3309930e+02   2.1188090e+02
   6.3358140e+02   2.4145410e+02
   6.3406350e+02   2.3808110e+02
   6.3454570e+02   2.0989360e+02
   6.3502780e+02   1.8781640e+02
   6.3550990e+02   1.8154790e+02
   6.3599200e+02   1.7471680e+02
   6.3647410e+02   1.5859570e+02
   6.3695620e+02   1.3146090e+02
   6.3743840e+02   1.2504490e+02
   6.3792050e+02   1.3969530e+02
   6.3840260e+02   1.7304490e+02
   6.3888470e+02   2.3501270e+02
   6.3936680e+02   3.2047750e+02
   6.3984890e+02   3.7564260e+02
   6.4033110e+02   3.8903030e+02
   6.4081320e+02   3.9047360e+02
   6.4129530e+02   4.1585740e+02
   6.4177740e+02   4.5602050e+02
   6.4225950e+02   4.9128710e+02
   6.4274160e+02   4.9826370e+02
   6.4322380e+02   5.1346880e+02
   6.4370590e+02   5.6690140e+02
   6.4418800e+02   6.4882030e+02
   6.4467010e+02   7.2826660e+02
   6.4515220e+02   7.8275290e+02
   6.4563430e+02   8.4323440e+02
   6.4611650e+02   9.3070510e+02
   6.4659860e+02   1.0522100e+03
   6.4708070e+02   1.1366460e+03
   6.4756280e+02   1.1778670e+03
   6.4804490e+02   1.1925060e+03
   6.4852700e+02   1.1919100e+03
   6.4900920e+02   1.1762890e+03
   6.4949130e+02   1.1418860e+03
   6.4997340e+02   1.0843090e+03
   6.5045550e+02   1.0195060e+03
   6.5093760e+02   9.7972950e+02
   6.5141970e+02   9.5287790e+02
   6.5190190e+02   8.9513380e+02
   6.5238400e+02   7.7068360e+02
   6.5286610e+02   6.3424900e+02
   6.5334820e+02   5.3390920e+02
   6.5383030e+02   4.6389550e+02
   6.5431240e+02   4.0731840e+02
   6.5479460e+02   3.6261720e+02
   6.5527670e+02   3.2341500e+02
   6.5575880e+02   2.8637010e+02
   6.5624080e+02   2.5092380e+02
   6.5672300e+02   2.1919340e+02
   6.5720510e+02   1.8255860e+02
   6.5768720e+02   1.5846680e+02
   6.5816930e+02   1.6473240e+02
   6.5865140e+02   2.1607230e+02
   6.5913350e+02   2.2927730e+02
   6.5961570e+02   1.9515620e+02
   6.6009780e+02   1.4078030e+02
   6.6057990e+02   9.7582030e+01
   6.6106200e+02   6.5166990e+01
   6.6154410e+02   3.9718750e+01
   6.6202620e+02   1.5949220e+01
   6.6250840e+02   6.3574220e+00
   6.6299050e+02   4.4092770e+01
   6.6347260e+02   1.1007230e+02
   6.6395470e+02   1.5232710e+02
   6.6443680e+02   1.2963570e+02
   6.6491890e+02   9.0228520e+01
   6.6540110e+02   4.8797850e+01
   6.6588320e+02   7.0800780e+00
   6.6636530e+02   9.9199220e+00
   6.6684740e+02   2.4079100e+01
   6.6732950e+02   6.0670900e+01
   6.6781160e+02   8.1742190e+01
   6.6829380e+02   8.4119140e+01
   6.6877590e+02   8.2487300e+01
   6.6925800e+02   7.4138670e+01
   6.6974010e+02   6.5107420e+01
   6.7022220e+02   6.7846680e+01
   6.7070430e+02   7.9847660e+01
   6.7118650e+02   7.3498050e+01
   6.7166860e+02   3.8950200e+01
   6.7215070e+02   1.3769530e+00
   6.7263280e+02   3.0261720e+01
   6.7311490e+02   4.3030270e+01
   6.7359700e+02   2.8965820e+01
   6.7407920e+02   6.0155270e+01
   6.7456130e+02   1.3614360e+02
   6.7504340e+02   1.3411620e+02
   6.7552550e+02   7.1558590e+01
   6.7600760e+02   3.2523440e+01
   6.7648970e+02   5.7504880e+01
   6.7697190e+02   8.7269530e+01
   6.7745400e+02   9.6583980e+01
   6.7793610e+02   8.1619140e+01
   6.7841820e+02   7.8978520e+01
   6.7890030e+02   9.5842770e+01
   6.7938240e+02   1.1494530e+02
   6.7986460e+02   1.2430270e+02
   6.8034670e+02   1.2337500e+02
   6.8082880e+02   1.0286230e+02
   6.8131090e+02   5.6426760e+01
   6.8179300e+02   1.0043950e+01
   6.8227510e+02   6.4453100e-01
   6.8275730e+02   1.0136720e+01
   6.8323940e+02   1.5033200e+01
   6.8372150e+02   3.0888670e+00
   6.8420360e+02   1.7969730e+01
   6.8468570e+02   7.9521480e+00
   6.8516780e+02   1.6542970e+01
   6.8565000e+02   3.1332030e+01
   6.8613210e+02   1.3394530e+01
   6.8661420e+02   4.1318360e+00
   6.8709630e+02   1.7239260e+01
   6.8757840e+02   5.0122070e+01
   6.8806050e+02   8.2807620e+01
   6.8854270e+02   1.2125880e+02
   6.8902480e+02   1.4348340e+02
   6.8950690e+02   1.2870310e+02
   6.8998900e+02   8.1275390e+01
   6.9047110e+02   4.8342770e+01
   6.9095320e+02   3.0024410e+01
   6.9143540e+02   2.8400390e+01
   6.9191750e+02   5.7990230e+01
   6.9239960e+02   1.0169240e+02
   6.9288170e+02   1.3081930e+02
   6.9336380e+02   1.3601560e+02
   6.9384590e+02   1.3837010e+02
   6.9432810e+02   1.5089840e+02
   6.9481020e+02   1.6769040e+02
   6.9529230e+02   1.8073730e+02
   6.9577440e+02   2.0082620e+02
   6.9625650e+02   2.0081930e+02
   6.9673860e+02   1.6035640e+02
   6.9722080e+02   1.0242480e+02
   6.9770290e+02   9.2774410e+01
   6.9818500e+02   1.4812110e+02
   6.9866710e+02   1.9350980e+02
   6.9914920e+02   1.9693650e+02
   6.9963130e+02   1.7206050e+02
   7.0011350e+02   1.6825980e+02
   7.0059560e+02   1.8439650e+02
   7.0107770e+02   2.0658010e+02
   7.0155980e+02   2.2501950e+02
   7.0204190e+02   2.4253220e+02
   7.0252400e+02   2.6633300e+02
   7.0300620e+02   2.9724220e+02
   7.0348830e+02   3.1580570e+02
   7.0397040e+02   3.0613870e+02
   7.0445250e+02   2.8628710e+02
   7.0493460e+02   2.6460940e+02
   7.0541670e+02   2.2201170e+02
   7.0589890e+02   2.2194240e+02
   7.0638100e+02   3.0040620e+02
   7.0686310e+02   3.9117580e+02
   7.0734520e+02   4.0610640e+02
   7.0782730e+02   3.3206640e+02
   7.0830940e+02   2.7028030e+02
   7.0879160e+02   2.3868550e+02
   7.0927370e+02   2.2730760e+02
   7.0975580e+02   2.2643070e+02
   7.1023790e+02   2.3216500e+02
   7.1072000e+02   2.2843950e+02
   7.1120210e+02   1.9345410e+02
   7.1168430e+02   1.5700590e+02
   7.1216640e+02   1.4647560e+02
   7.1264850e+02   1.5758110e+02
   7.1313060e+02   1.7230470e+02
   7.1361270e+02   1.8457620e+02
   7.1409480e+02   1.9759470e+02
   7.1457700e+02   2.1634960e+02
   7.1505910e+02   2.4216210e+02
   7.1554120e+02   2.4972660e+02
   7.1602330e+02   2.3074610e+02
   7.1650540e+02   2.0792680e+02
   7.1698750e+02   1.9359960e+02
   7.1746970e+02   1.8790530e+02
   7.1795180e+02   1.9991800e+02
   7.1843390e+02   2.3505370e+02
   7.1891600e+02   2.6709470e+02
   7.1939810e+02   2.5625590e+02
   7.1988020e+02   2.2456840e+02
   7.2036240e+02   2.1504300e+02
   7.2084450e+02   2.4751950e+02
   7.2132660e+02   2.8478610e+02
   7.2180870e+02   3.1043650e+02
   7.2229080e+02   3.2526760e+02
   7.2277290e+02   3.2950780e+02
   7.2325510e+02   3.1426070e+02
   7.2373720e+02   2.9708590e+02
   7.2421930e+02   2.7276560e+02
   7.2470140e+02   2.5246780e+02
   7.2518350e+02   2.6690430e+02
   7.2566560e+02   3.2956740e+02
   7.2614780e+02   3.6778810e+02
   7.2662990e+02   3.4373140e+02
   7.2711200e+02   2.8144040e+02
   7.2759410e+02   2.4982710e+02
   7.2807620e+02   2.4733890e+02
   7.2855830e+02   2.6190620e+02
   7.2904050e+02   3.0816600e+02
   7.2952260e+02   3.5158300e+02
   7.3000470e+02   3.4985550e+02
   7.3048680e+02   3.0086430e+02
   7.3096890e+02   2.6367380e+02
   7.3145100e+02   2.6851560e+02
   7.3193320e+02   2.9250680e+02
   7.3241530e+02   3.1833590e+02
   7.3289740e+02   3.4848050e+02
   7.3337950e+02   3.7537890e+02
   7.3386160e+02   4.0623240e+02
   7.3434380e+02   4.2325980e+02
   7.3482590e+02   4.0146090e+02
   7.3530800e+02   3.4188180e+02
   7.3579010e+02   2.8822170e+02
   7.3627220e+02   2.4470210e+02
   7.3675430e+02   2.1385550e+02
   7.3723650e+02   2.0257710e+02
   7.3771860e+02   2.0601860e+02
   7.3820070e+02   2.1532810e+02
   7.3868280e+02   2.3537700e+02
   7.3916490e+02   2.4956740e+02
   7.3964700e+02   2.4653520e+02
   7.4012920e+02   2.3096880e+02
   7.4061130e+02   2.1449610e+02
   7.4109340e+02   1.8790820e+02
   7.4157550e+02   1.7408980e+02
   7.4205760e+02   1.8259960e+02
   7.4253970e+02   2.0843360e+02
   7.4302190e+02   2.2339940e+02
   7.4350400e+02   2.2630370e+02
   7.4398610e+02   2.2049120e+02
   7.4446820e+02   2.0265330e+02
   7.4495030e+02   1.7872750e+02
   7.4543240e+02   1.6659670e+02
   7.4591460e+02   1.6473540e+02
   7.4639670e+02   1.5885160e+02
   7.4687880e+02   1.2992580e+02
   7.4736090e+02   9.9089840e+01
   7.4784300e+02   8.5812500e+01
   7.4832510e+02   9.4253910e+01
   7.4880730e+02   1.0235640e+02
   7.4928940e+02   1.0806150e+02
   7.4977150e+02   1.0910740e+02
   7.5025360e+02   1.0115230e+02
   7.5073570e+02   7.3484380e+01
   7.5121780e+02   7.5415040e+01
   7.5170000e+02   1.1831450e+02
   7.5218210e+02   1.6460160e+02
   7.5266420e+02   1.6808690e+02
   7.5314630e+02   1.3544140e+02
   7.5362840e+02   9.8474610e+01
   7.5411050e+02   6.0494140e+01
   7.5459270e+02   2.6882810e+01
   7.5507480e+02   4.3662110e+00
   7.5555690e+02   1.0953120e+01
   7.5603900e+02   2.5731450e+01
   7.5652110e+02   6.2086910e+01
   7.5700320e+02   7.5199220e+01
   7.5748540e+02   2.9854490e+01
   7.5796750e+02   4.5010740e+01
   7.5844960e+02   8.1301760e+01
   7.5893170e+02   6.1572270e+01
   7.5941380e+02   4.3149410e+01
   7.5989590e+02   4.2483400e+01
   7.6037810e+02   5.0811520e+01
   7.6086020e+02   3.2577150e+01
   7.6134230e+02   9.4716800e+00
   7.6182440e+02   3.4769530e+01
   7.6230650e+02   6.6386720e+00
   7.6278860e+02   4.1695310e+01
   7.6327080e+02   6.9094730e+01
   7.6375290e+02   7.7683590e+01
   7.6423500e+02   8.4330080e+01
   7.6471710e+02   9.9933590e+01
   7.6519920e+02   1.1291700e+02
   7.6568130e+02   1.1533790e+02
   7.6616350e+02   1.0525780e+02
   7.6664560e+02   9.8984380e+01
   7.6712770e+02   9.7321290e+01
   7.6760980e+02   9.3725590e+01
   7.6809190e+02   8.2648440e+01
   7.6857400e+02   6.4101560e+01
   7.6905620e+02   4.5332030e+01
   7.6953830e+02   2.5828120e+01
   7.7002040e+02   1.1880860e+01
   7.7050250e+02   1.1774410e+01
   7.7098460e+02   2.0419920e+01
   7.7146670e+02   3.0520510e+01
   7.7194890e+02   4.1982420e+01
   7.7243100e+02   5.2224610e+01
   7.7291310e+02   5.7147460e+01
   7.7339520e+02   6.0413090e+01
   7.7387730e+02   6.6446290e+01
   7.7435940e+02   9.2571290e+01
   7.7484160e+02   9.2667970e+01
   7.7532370e+02   4.6254880e+01
   7.7580580e+02   7.5107420e+00
   7.7628790e+02   9.2265630e+00
   7.7677000e+02   4.2029300e+01
   7.7725210e+02   9.3363280e+01
   7.7773430e+02   1.3862600e+02
   7.7821640e+02   1.6990430e+02
   7.7869850e+02   1.6491500e+02
   7.7918060e+02   1.3412400e+02
   7.7966270e+02   1.0718750e+02
   7.8014480e+02   8.9545900e+01
   7.8062700e+02   8.5969730e+01
   7.8110910e+02   1.1646970e+02
   7.8159120e+02   1.6379000e+02
   7.8207330e+02   1.7331640e+02
   7.8255540e+02   1.0620800e+02
   7.8303750e+02   6.6427730e+01
   7.8351970e+02   8.5826170e+01
   7.8400180e+02   1.4044040e+02
   7.8448390e+02   1.5289360e+02
   7.8496600e+02   1.2332230e+02
   7.8544810e+02   8.7416020e+01
   7.8593020e+02   4.9223630e+01
   7.8641240e+02   2.2039060e+01
   7.8689450e+02   3.8944340e+01
   7.8737660e+02   9.1836910e+01
   7.8785870e+02   1.3924900e+02
   7.8834080e+02   1.6001070e+02
   7.8882290e+02   1.6854390e+02
   7.8930510e+02   1.7091890e+02
   7.8978720e+02   1.6751950e+02
   7.9026930e+02   1.6177540e+02
   7.9075140e+02   1.4980960e+02
   7.9123350e+02   1.4283890e+02
   7.9171560e+02   1.5284470e+02
   7.9219780e+02   1.7928710e+02
   7.9267990e+02   1.7173540e+02
   7.9316200e+02   1.2721000e+02
   7.9364410e+02   9.2062500e+01
   7.9412620e+02   1.2164060e+02
   7.9460830e+02   1.7876460e+02
   7.9509050e+02   2.0431540e+02
   7.9557260e+02   1.8826370e+02
   7.9605470e+02   1.7629880e+02
   7.9653680e+02   1.9142970e+02
   7.9701890e+02   2.1890720e+02
   7.9750100e+02   2.4751460e+02
   7.9798320e+02   2.7596000e+02
   7.9846530e+02   3.0780370e+02
   7.9894740e+02   3.5091500e+02
   7.9942950e+02   3.8453710e+02
   7.9991160e+02   3.7670310e+02
   8.0039370e+02   3.3184080e+02
   8.0087590e+02   3.2093650e+02
   8.0135800e+02   3.6031930e+02
   8.0184010e+02   4.0051270e+02
   8.0232220e+02   3.7220310e+02
   8.0280430e+02   3.1579590e+02
   8.0328640e+02   2.9520410e+02
   8.0376860e+02   3.5603120e+02
   8.0425070e+02   4.0230660e+02
   8.0473280e+02   3.8239060e+02
   8.0521490e+02   3.3850290e+02
   8.0569700e+02   3.3034470e+02
   8.0617910e+02   3.7182520e+02
   8.0666130e+02   4.1497360e+02
   8.0714340e+02   4.5478320e+02
   8.0762550e+02   4.9257130e+02
   8.0810760e+02   5.3669920e+02
   8.0858970e+02   5.8313090e+02
   8.0907180e+02   6.0860940e+02
   8.0955400e+02   5.9965620e+02
   8.1003610e+02   5.7601270e+02
   8.1051820e+02   5.5581050e+02
   8.1100030e+02   5.3482810e+02
   8.1148240e+02   5.0503610e+02
   8.1196450e+02   4.4051170e+02
   8.1244670e+02   3.9414260e+02
   8.1292880e+02   3.9389550e+02
   8.1341090e+02   4.1764750e+02
   8.1389300e+02   4.0871880e+02
   8.1437510e+02   3.5684770e+02
   8.1485720e+02   3.1143460e+02
   8.1533940e+02   2.9468950e+02
   8.1582150e+02   2.9287210e+02
   8.1630360e+02   2.6820210e+02
   8.1678570e+02   2.2560160e+02
   8.1726780e+02   1.8984180e+02
   8.1774990e+02   1.7908110e+02
   8.1823210e+02   1.7433500e+02
   8.1871420e+02   1.6261130e+02
   8.1919630e+02   1.4379300e+02
   8.1967840e+02   1.2479490e+02
   8.2016050e+02   1.1072950e+02
   8.2064260e+02   9.8426760e+01
   8.2112470e+02   8.6042970e+01
   8.2160680e+02   7.3143550e+01
   8.2208890e+02   5.8892580e+01
   8.2257100e+02   4.2946290e+01
   8.2305320e+02   2.8133790e+01
   8.2353530e+02   8.2099610e+00
   8.2401740e+02   6.6044920e+00
   8.2449950e+02   1.3856450e+01
   8.2498160e+02   6.1874020e+01
   8.2546370e+02   9.3705080e+01
   8.2594590e+02   7.0673830e+01
   8.2642800e+02   3.7899410e+01
   8.2691010e+02   1.9082030e+01
   8.2739220e+02   1.6477540e+01
   8.2787430e+02   1.5083010e+01
   8.2835640e+02   1.8690430e+01
   8.2883860e+02   1.7724610e+01
   8.2932070e+02   5.4101560e+00
   8.2980280e+02   1.6223630e+01
   8.3028490e+02   3.1784180e+01
   8.3076700e+02   4.1329100e+01
   8.3124910e+02   4.9682620e+01
   8.3173130e+02   6.3552730e+01
   8.3221340e+02   7.5976560e+01
   8.3269550e+02   7.7245120e+01
   8.3317760e+02   6.7273440e+01
   8.3365970e+02   6.1166020e+01
   8.3414180e+02   6.2410160e+01
   8.3462400e+02   6.3869140e+01
   8.3510610e+02   6.7754880e+01
   8.3558820e+02   7.6655270e+01
   8.3607030e+02   6.0456050e+01
   8.3655240e+02   1.1607420e+01
   8.3703450e+02   3.4034180e+01
   8.3751670e+02   4.8396480e+01
   8.3799880e+02   3.9248050e+01
   8.3848090e+02   3.0825200e+01
   8.3896300e+02   2.4440430e+01
   8.3944510e+02   9.6455080e+00
   8.3992720e+02   4.2137700e+01
   8.4040940e+02   9.0561520e+01
   8.4089150e+02   1.0010640e+02
   8.4137360e+02   5.6276370e+01
   8.4185570e+02   1.8005860e+01
   8.4233780e+02   1.3138670e+01
   8.4281990e+02   3.4065430e+01
   8.4330210e+02   3.9603520e+01
   8.4378420e+02   2.8476560e+01
   8.4426630e+02   1.6609380e+01
   8.4474840e+02   4.6220700e+00
   8.4523050e+02   4.2050780e+00
   8.4571260e+02   3.5221680e+01
   8.4619480e+02   7.8113280e+01
   8.4667690e+02   1.0298630e+02
   8.4715900e+02   1.0344530e+02
   8.4764110e+02   1.1016800e+02
   8.4812320e+02   1.4604490e+02
   8.4860530e+02   1.8511720e+02
   8.4908750e+02   2.0850390e+02
   8.4956960e+02   2.1153710e+02
   8.5005170e+02   2.1892580e+02
   8.5053380e+02   2.3250880e+02
   8.5101590e+02   2.4669820e+02
   8.5149800e+02   2.4914940e+02
   8.5198020e+02   2.4791110e+02
   8.5246230e+02   2.7235840e+02
   8.5294440e+02   3.2640330e+02
   8.5342650e+02   3.8883500e+02
   8.5390860e+02   4.4769140e+02
   8.5439070e+02   5.0396780e+02
   8.5487290e+02   5.5798930e+02
   8.5535500e+02   6.0799120e+02
   8.5583710e+02   6.5840920e+02
   8.5631920e+02   7.0429300e+02
   8.5680130e+02   7.5702730e+02
   8.5728340e+02   8.1966800e+02
   8.5776560e+02   8.9183690e+02
   8.5824770e+02   1.0100340e+03
   8.5872980e+02   1.1820210e+03
   8.5921190e+02   1.3445570e+03
   8.5969400e+02   1.4155210e+03
   8.6017610e+02   1.4503650e+03
   8.6065830e+02   1.5243030e+03
   8.6114040e+02   1.6529840e+03
   8.6162250e+02   1.7963960e+03
   8.6210460e+02   1.9262940e+03
   8.6258670e+02   2.0766350e+03
   8.6306880e+02   2.2753460e+03
   8.6355100e+02   2.5534160e+03
   8.6403310e+02   2.7601800e+03
   8.6451520e+02   2.8779900e+03
   8.6499730e+02   2.9881470e+03
   8.6547940e+02   3.1821170e+03
   8.6596150e+02   3.4285480e+03
   8.6644370e+02   3.6573010e+03
   8.6692580e+02   3.8640960e+03
   8.6740790e+02   4.0073500e+03
   8.6789000e+02   4.0212260e+03
   8.6837210e+02   3.9865450e+03
   8.6885420e+02   3.9795000e+03
   8.6933640e+02   4.0473950e+03
   8.6981850e+02   4.0228940e+03
   8.7030060e+02   3.8827770e+03
   8.7078270e+02   3.6901260e+03
   8.7126480e+02   3.4824800e+03
   8.7174690e+02   3.2636290e+03
   8.7222910e+02   3.0678750e+03
   8.7271120e+02   2.8995180e+03
   8.7319330e+02   2.7286580e+03
   8.7367540e+02   2.5101040e+03
   8.7415750e+02   2.2873300e+03
   8.7463960e+02   2.1040980e+03
   8.7512180e+02   1.9733940e+03
   8.7560390e+02   1.8491150e+03
   8.7608600e+02   1.7130820e+03
   8.7656810e+02   1.5867020e+03
   8.7705020e+02   1.4824970e+03
   8.7753230e+02   1.4016820e+03
   8.7801450e+02   1.3310130e+03
   8.7849660e+02   1.2711120e+03
   8.7897870e+02   1.2150880e+03
   8.7946080e+02   1.1631680e+03
   8.7994290e+02   1.1087740e+03
   8.8042500e+02   1.0372550e+03
   8.8090720e+02   9.4690230e+02
   8.8138930e+02   8.5960550e+02
   8.8187140e+02   7.8137500e+02
   8.8235350e+02   7.1546780e+02
   8.8283560e+02   6.6296390e+02
   8.8331770e+02   6.2424610e+02
   8.8379990e+02   5.9127440e+02
   8.8428200e+02   5.6309670e+02
   8.8476410e+02   5.4366890e+02
   8.8524620e+02   5.3471680e+02
   8.8572830e+02   5.3657230e+02
   8.8621040e+02   5.6027250e+02
   8.8669260e+02   6.0370410e+02
   8.8717470e+02   6.2760250e+02
   8.8765680e+02   5.7689750e+02
   8.8813890e+02   5.1927540e+02
   8.8862100e+02   5.0785640e+02
   8.8910310e+02   5.5205370e+02
   8.8958530e+02   5.7388380e+02
   8.9006740e+02   5.6078030e+02
   8.9054950e+02   5.4655660e+02
   8.9103160e+02   5.4864840e+02
   8.9151370e+02   5.6455660e+02
   8.9199580e+02   5.7881640e+02
   8.9247800e+02   5.9167290e+02
   8.9296010e+02   6.0285940e+02
   8.9344220e+02   6.1646090e+02
   8.9392430e+02   6.2619820e+02
   8.9440640e+02   6.1942380e+02
   8.9488850e+02   5.9659280e+02
   8.9537070e+02   5.9018160e+02
   8.9585280e+02   6.1013570e+02
   8.9633490e+02   6.4466800e+02
   8.9681700e+02   6.9894920e+02
   8.9729910e+02   7.6465620e+02
   8.9778130e+02   7.8910250e+02
   8.9826340e+02   7.7087600e+02
   8.9874550e+02   7.5144430e+02
   8.9922760e+02   7.4819430e+02
   8.9970970e+02   7.6293460e+02
   9.0019180e+02   8.0846680e+02
   9.0067400e+02   8.7527250e+02
   9.0115610e+02   9.2975100e+02
   9.0163820e+02   9.5196680e+02
   9.0212030e+02   9.6963280e+02
   9.0260240e+02   9.9519730e+02
   9.0308450e+02   1.0229290e+03
   9.0356670e+02   1.0220980e+03
   9.0404880e+02   9.8688670e+02
   9.0453090e+02   9.7663960e+02
   9.0501300e+02   1.0171260e+03
   9.0549510e+02   1.0880250e+03
   9.0597720e+02   1.1723060e+03
   9.0645940e+02   1.2614120e+03
   9.0694150e+02   1.3339050e+03
   9.0742360e+02   1.3589160e+03
   9.0790570e+02   1.3906720e+03
   9.0838780e+02   1.4492560e+03
   9.0886990e+02   1.5271940e+03
   9.0935210e+02   1.6093340e+03
   9.0983420e+02   1.6941280e+03
   9.1031630e+02   1.7918560e+03
   9.1079840e+02   1.9037550e+03
   9.1128050e+02   2.0325590e+03
   9.1176260e+02   2.1826020e+03
   9.1224480e+02   2.3514110e+03
   9.1272690e+02   2.5347910e+03
   9.1320900e+02   2.7334750e+03
   9.1369110e+02   2.9411210e+03
   9.1417320e+02   3.1442800e+03
   9.1465530e+02   3.3597340e+03
   9.1513750e+02   3.6070980e+03
   9.1561960e+02   3.8695870e+03
   9.1610170e+02   4.2061760e+03
   9.1658380e+02   4.6341310e+03
   9.1706590e+02   5.1068960e+03
   9.1754800e+02   5.5564660e+03
   9.1803020e+02   6.0009300e+03
   9.1851230e+02   6.4921990e+03
   9.1899440e+02   7.0347560e+03
   9.1947650e+02   7.6259840e+03
   9.1995860e+02   8.2535250e+03
   9.2044070e+02   8.9338500e+03
   9.2092290e+02   9.6934380e+03
   9.2140500e+02   1.0550760e+04
   9.2188710e+02   1.1434890e+04
   9.2236920e+02   1.2345400e+04
   9.2285130e+02   1.3287130e+04
   9.2333340e+02   1.4289660e+04
   9.2381560e+02   1.5319950e+04
   9.2429770e+02   1.6290130e+04
   9.2477980e+02   1.7194840e+04
   9.2526190e+02   1.7975360e+04
   9.2574400e+02   1.8628800e+04
   9.2622610e+02   1.9105020e+04
   9.2670830e+02   1.9361990e+04
   9.2719040e+02   1.9386900e+04
   9.2767250e+02   1.9178690e+04
   9.2815460e+02   1.8716210e+04
   9.2863670e+02   1.8065590e+04
   9.2911880e+02   1.7235280e+04
   9.2960100e+02   1.6248020e+04
   9.3008310e+02   1.5190700e+04
   9.3056520e+02   1.4087760e+04
   9.3104730e+02   1.3010610e+04
   9.3152940e+02   1.2009280e+04
   9.3201150e+02   1.1067140e+04
   9.3249370e+02   1.0181880e+04
   9.3297580e+02   9.3485790e+03
   9.3345790e+02   8.5831360e+03
   9.3394000e+02   7.8726970e+03
   9.3442210e+02   7.2331350e+03
   9.3490420e+02   6.6651950e+03
   9.3538640e+02   6.1622010e+03
   9.3586850e+02   5.6721420e+03
   9.3635060e+02   5.2058780e+03
   9.3683270e+02   4.8071520e+03
   9.3731480e+02   4.5561440e+03
   9.3779690e+02   4.3280660e+03
   9.3827910e+02   3.9922380e+03
   9.3876120e+02   3.6156930e+03
   9.3924330e+02   3.3554190e+03
   9.3972540e+02   3.3493340e+03
   9.4020750e+02   3.2527740e+03
   9.4068960e+02   2.9799790e+03
   9.4117180e+02   2.6397930e+03
   9.4165390e+02   2.4333630e+03
   9.4213600e+02   2.3384710e+03
   9.4261810e+02   2.2358240e+03
   9.4310020e+02   2.0949300e+03
   9.4358230e+02   1.9440530e+03
   9.4406450e+02   1.7842290e+03
   9.4454660e+02   1.6303440e+03
   9.4502870e+02   1.5011820e+03
   9.4551080e+02   1.4153930e+03
   9.4599290e+02   1.3334570e+03
   9.4647500e+02   1.2496230e+03
   9.4695720e+02   1.1772080e+03
   9.4743930e+02   1.1363050e+03
   9.4792140e+02   1.1209530e+03
   9.4840350e+02   1.0977660e+03
   9.4888560e+02   1.0641020e+03
   9.4936770e+02   1.0233610e+03
   9.4984990e+02   9.7228910e+02
   9.5033200e+02   9.1900100e+02
   9.5081410e+02   8.7136520e+02
   9.5129620e+02   8.3243360e+02
   9.5177830e+02   7.8797070e+02
   9.5226040e+02   7.3850490e+02
   9.5274260e+02   6.8368550e+02
   9.5322470e+02   6.1020310e+02
   9.5370680e+02   5.2917290e+02
   9.5418890e+02   5.0982710e+02
   9.5467100e+02   5.4587790e+02
   9.5515310e+02   5.8226270e+02
   9.5563530e+02   5.7493360e+02
   9.5611740e+02   5.6392970e+02
   9.5659950e+02   5.8856150e+02
   9.5708160e+02   6.3837010e+02
   9.5756370e+02   6.3997850e+02
   9.5804580e+02   5.6644630e+02
   9.5852800e+02   5.0590720e+02
   9.5901010e+02   4.8677930e+02
   9.5949220e+02   4.9353320e+02
   9.5997430e+02   4.9090530e+02
   9.6045640e+02   4.8303610e+02
   9.6093850e+02   4.7895210e+02
   9.6142070e+02   4.9412790e+02
   9.6190280e+02   5.0075290e+02
   9.6238490e+02   4.8076950e+02
   9.6286700e+02   4.4263570e+02
   9.6334910e+02   3.9925100e+02
   9.6383120e+02   3.3944530e+02
   9.6431340e+02   3.1330760e+02
   9.6479550e+02   3.3626270e+02
   9.6527760e+02   3.6179590e+02
   9.6575970e+02   3.1402730e+02
   9.6624180e+02   2.2584380e+02
   9.6672390e+02   1.8005180e+02
   9.6720610e+02   1.9866500e+02
   9.6768820e+02   2.2353520e+02
   9.6817030e+02   2.3020310e+02
   9.6865240e+02   2.2438870e+02
   9.6913450e+02   2.0555180e+02
   9.6961660e+02   1.6564060e+02
   9.7009880e+02   1.6663670e+02
   9.7058090e+02   2.2251760e+02
   9.7106300e+02   2.5991700e+02
   9.7154510e+02   1.9832230e+02
   9.7202720e+02   8.9562500e+01
   9.7250930e+02   3.4560550e+01
   9.7299150e+02   3.2323240e+01
   9.7347360e+02   3.5072270e+01
   9.7395570e+02   2.4766600e+01
   9.7443780e+02   1.0095700e+01
   9.7491990e+02   9.9101560e+00
   9.7540200e+02   3.1111330e+01
   9.7588420e+02   2.8796880e+01
   9.7636630e+02   1.2734380e+00
   9.7684840e+02   1.6019530e+01
   9.7733050e+02   9.3984380e+00
   9.7781260e+02   4.7605470e+01
   9.7829470e+02   6.1454100e+01
   9.7877690e+02   5.6901370e+01
   9.7925900e+02   4.6747070e+01
   9.7974110e+02   3.2184570e+01
   9.8022320e+02   1.6848630e+01
   9.8070530e+02   1.8750000e+00
   9.8118740e+02   1.8291990e+01
   9.8166960e+02   2.3241210e+01
   9.8215170e+02   1.6224610e+01
   9.8263380e+02   5.8906250e+00
   9.8311590e+02   9.7607420e+00
   9.8359800e+02   1.1603520e+01
   9.8408010e+02   4.8672850e+01
   9.8456230e+02   1.1787010e+02
   9.8504440e+02   1.2630080e+02
   9.8552640e+02   3.7682620e+01
   9.8600850e+02   1.3744140e+01
   9.8649070e+02   7.4267580e+00
   9.8697280e+02   3.9227540e+01
   9.8745490e+02   4.6701170e+01
   9.8793700e+02   3.1656250e+01
   9.8841910e+02   2.7929690e+00
   9.8890120e+02   3.7678710e+01
   9.8938340e+02   5.9659180e+01
   9.8986550e+02   2.3935550e+01
   9.9034760e+02   2.1673830e+01
   9.9082970e+02   4.5675780e+01
   9.9131180e+02   4.8126950e+01
   9.9179390e+02   3.7428710e+01
   9.9227610e+02   3.5507810e+00
   9.9275820e+02   1.7238280e+01
   9.9324030e+02   1.0029300e+01
   9.9372240e+02   9.1835940e+00
   9.9420450e+02   1.2451170e+00
   9.9468660e+02   3.0196290e+01
   9.9516880e+02   3.9256840e+01
   9.9565090e+02   1.5097660e+00
   9.9613300e+02   3.4652340e+01
   9.9661510e+02   1.1792970e+01
   9.9709720e+02   2.6315430e+01
   9.9757930e+02   2.5464840e+01
   9.9806150e+02   3.1440430e+01
   9.9854360e+02   7.1561520e+01
   9.9902570e+02   9.2983400e+01
   9.9950780e+02   9.2412110e+01
   9.9998990e+02   4.6028320e+01
   1.0004720e+03   1.7346680e+01
   1.0009540e+03   4.6928710e+01
   1.0014360e+03   3.6583980e+01
   1.0019180e+03   1.1915040e+01
   1.0024010e+03   3.9456050e+01
   1.0028830e+03   7.9196290e+01
   1.0033650e+03   8.7513670e+01
   1.0038470e+03   6.7607420e+01
   1.0043290e+03   4.3539060e+01
   1.0048110e+03   1.4936520e+01
   1.0052930e+03   2.8906250e+00
   1.0057750e+03   3.4982420e+01
   1.0062570e+03   7.3500980e+01
   1.0067400e+03   7.3885740e+01
   1.0072220e+03   4.9282230e+01
   1.0077040e+03   3.1279300e+01
   1.0081860e+03   3.8073240e+01
   1.0086680e+03   3.9510740e+01
   1.0091500e+03   3.2267580e+01
   1.0096320e+03   1.8571290e+01
   1.0101140e+03   5.3642580e+00
   1.0105960e+03   3.5177730e+01
   1.0110790e+03   4.1197270e+01
   1.0115610e+03   1.4014650e+01
   1.0120430e+03   1.2532230e+01
   1.0125250e+03   5.9472660e+00
   1.0130070e+03   9.6015630e+00
   1.0134890e+03   1.3344730e+01
   1.0139710e+03   3.9833980e+00
   1.0144530e+03   1.9669920e+01
   1.0149360e+03   6.3170900e+01
   1.0154180e+03   1.0283500e+02
   1.0159000e+03   1.2927340e+02
   1.0163820e+03   1.3873540e+02
   1.0168640e+03   1.0813960e+02
   1.0173460e+03   4.7357420e+01
   1.0178280e+03   6.6083980e+00
   1.0183100e+03   2.2840820e+01
   1.0187920e+03   4.9754880e+01
   1.0192750e+03   7.9831050e+01
   1.0197570e+03   1.0511230e+02
   1.0202390e+03   1.0404300e+02
   1.0207210e+03   7.5847660e+01
   1.0212030e+03   3.4753910e+01
   1.0216850e+03   2.5169920e+01
   1.0221670e+03   6.9689450e+01
   1.0226490e+03   4.9261720e+01
   1.0231320e+03   7.1074220e+00
   1.0236140e+03   6.1415040e+01
   1.0240960e+03   1.1555660e+02
   1.0245780e+03   1.4197850e+02
   1.0250600e+03   1.2725100e+02
   1.0255420e+03   1.0506640e+02
   1.0260240e+03   9.8432620e+01
   1.0265060e+03   1.0665430e+02
   1.0269890e+03   1.2798630e+02
   1.0274710e+03   1.6136040e+02
   1.0279530e+03   1.9585550e+02
   1.0284350e+03   2.3257230e+02
   1.0289170e+03   2.6047170e+02
   1.0293990e+03   2.6501070e+02
   1.0298810e+03   2.5179200e+02
   1.0303630e+03   2.5381540e+02
   1.0308450e+03   2.7523830e+02
   1.0313280e+03   2.9511230e+02
   1.0318100e+03   3.0550780e+02
   1.0322920e+03   3.1565330e+02
   1.0327740e+03   3.4475780e+02
   1.0332560e+03   3.8366500e+02
   1.0337380e+03   4.1615820e+02
   1.0342200e+03   4.3677830e+02
   1.0347020e+03   4.5313570e+02
   1.0351840e+03   4.5904790e+02
   1.0356670e+03   4.6786040e+02
   1.0361490e+03   4.8962990e+02
   1.0366310e+03   5.2581150e+02
   1.0371130e+03   5.9494820e+02
   1.0375950e+03   6.9966110e+02
   1.0380770e+03   7.8041310e+02
   1.0385590e+03   7.7845700e+02
   1.0390410e+03   7.4192970e+02
   1.0395240e+03   7.0166110e+02
   1.0400060e+03   6.6174320e+02
   1.0404880e+03   6.3858790e+02
   1.0409700e+03   6.4508790e+02
   1.0414520e+03   6.3743650e+02
   1.0419340e+03   6.0058690e+02
   1.0424160e+03   5.4467770e+02
   1.0428980e+03   4.7792290e+02
   1.0433800e+03   4.0875780e+02
   1.0438630e+03   3.5892870e+02
   1.0443450e+03   3.3754590e+02
   1.0448270e+03   3.3515230e+02
   1.0453090e+03   3.7946390e+02
   1.0457910e+03   4.2173140e+02
   1.0462730e+03   3.9607320e+02
   1.0467550e+03   2.9009570e+02
   1.0472370e+03   2.6132030e+02
   1.0477190e+03   3.2340430e+02
   1.0482020e+03   3.9462210e+02
   1.0486840e+03   4.0438090e+02
   1.0491660e+03   3.9008500e+02
   1.0496480e+03   3.9157710e+02
   1.0501300e+03   4.0921190e+02
   1.0506120e+03   4.0978710e+02
   1.0510940e+03   3.8129300e+02
   1.0515760e+03   3.5746970e+02
   1.0520590e+03   3.4510740e+02
   1.0525410e+03   3.4248830e+02
   1.0530230e+03   3.4971090e+02
   1.0535050e+03   3.6983590e+02
   1.0539870e+03   4.0258400e+02
   1.0544690e+03   4.5464450e+02
   1.0549510e+03   5.0465230e+02
   1.0554330e+03   5.5515140e+02
   1.0559160e+03   5.9573830e+02
   1.0563980e+03   6.0775590e+02
   1.0568800e+03   5.8114450e+02
   1.0573620e+03   5.8776460e+02
   1.0578440e+03   6.2986620e+02
   1.0583260e+03   6.8741310e+02
   1.0588080e+03   7.5269340e+02
   1.0592900e+03   8.2229590e+02
   1.0597720e+03   8.9610740e+02
   1.0602550e+03   9.7197660e+02
   1.0607370e+03   1.0279770e+03
   1.0612190e+03   1.0509280e+03
   1.0617010e+03   1.0772300e+03
   1.0621830e+03   1.1246560e+03
   1.0626650e+03   1.1689120e+03
   1.0631470e+03   1.1401310e+03
   1.0636290e+03   1.0637920e+03
   1.0641110e+03   1.0227260e+03
   1.0645940e+03   1.0568680e+03
   1.0650760e+03   1.0874660e+03
   1.0655580e+03   1.0830920e+03
   1.0660400e+03   1.0512490e+03
   1.0665220e+03   9.9621390e+02
   1.0670040e+03   9.1236910e+02
   1.0674860e+03   8.4151860e+02
   1.0679680e+03   7.8300980e+02
   1.0684500e+03   7.2893950e+02
   1.0689330e+03   6.7859280e+02
   1.0694150e+03   6.3128610e+02
   1.0698970e+03   5.7819040e+02
   1.0703790e+03   5.2261910e+02
   1.0708610e+03   4.9026950e+02
   1.0713430e+03   5.1290230e+02
   1.0718250e+03   5.0757420e+02
   1.0723070e+03   4.5042870e+02
   1.0727900e+03   3.7217290e+02
   1.0732720e+03   3.1799020e+02
   1.0737540e+03   2.8637700e+02
   1.0742360e+03   2.7854100e+02
   1.0747180e+03   3.0136620e+02
   1.0752000e+03   3.1876760e+02
   1.0756820e+03   3.0323340e+02
   1.0761640e+03   2.8529790e+02
   1.0766460e+03   2.8372360e+02
   1.0771290e+03   2.2123240e+02
   1.0776110e+03   3.2799510e+02
   1.0780930e+03   3.8441890e+02
   1.0785750e+03   3.9320700e+02
   1.0790570e+03   2.1147850e+02
   1.0795390e+03   2.7235450e+02
   1.0800210e+03   2.3193750e+02
   1.0805030e+03   1.8874610e+02
   1.0809850e+03   2.8622360e+02
   1.0814680e+03   1.3236130e+02
   1.0819500e+03   2.2893360e+02
   1.0824320e+03   2.2553910e+02
   1.0829140e+03   2.6789060e+02
   1.0833960e+03   2.1116410e+02
   1.0838780e+03   1.8548630e+02
   1.0843600e+03   2.5845800e+02
   1.0848420e+03   2.7653420e+02
   1.0853250e+03   2.0850200e+02
   1.0858070e+03   2.5372560e+02
   1.0862890e+03   9.6397460e+01
   1.0867710e+03   1.1692580e+02
   1.0872530e+03   2.1401170e+02
   1.0877350e+03   1.5087500e+02
   1.0882170e+03   1.9787890e+02
   1.0886990e+03   2.0289840e+02
   1.0891820e+03   1.7141600e+01
   1.0896640e+03   1.6313960e+02
   1.0901460e+03   1.6775290e+02
   1.0906280e+03   2.2948240e+01
   1.0911100e+03   1.5762790e+02
   1.0915920e+03   3.3141600e+01
   1.0920740e+03   1.1884770e+00
   1.0925560e+03   3.8779300e+01
   1.0930380e+03   3.8046880e+00
   1.0935210e+03   9.4820310e+01
   1.0940030e+03   1.9359280e+02
   1.0944850e+03   2.0769630e+02
   1.0949670e+03   1.3979690e+02
   1.0954490e+03   8.8147460e+01
   1.0959310e+03   7.8323240e+01
   1.0964130e+03   8.2335940e+01
   1.0968950e+03   9.9231450e+01
   1.0973770e+03   1.2201370e+02
   1.0978600e+03   1.2628910e+02
   1.0983420e+03   1.1680960e+02
   1.0988240e+03   9.9695310e+01
   1.0993060e+03   7.0408200e+01
   1.0997880e+03   4.8169920e+01
   1.1002700e+03   4.0881840e+01
   1.1007520e+03   4.5060550e+01
   1.1012340e+03   6.6088870e+01
   1.1017170e+03   1.0492770e+02
   1.1021990e+03   8.6438480e+01
   1.1026810e+03   1.1666990e+01
   1.1031630e+03   3.6971680e+01
   1.1036450e+03   2.4072270e+01
   1.1041270e+03   1.0533890e+02
   1.1046090e+03   1.3810060e+02
   1.1050910e+03   1.3266800e+02
   1.1055730e+03   1.2104690e+02
   1.1060560e+03   1.0339550e+02
   1.1065380e+03   8.8314450e+01
   1.1070200e+03   7.4410160e+01
   1.1075020e+03   6.6117190e+01
   1.1079840e+03   7.7349610e+01
   1.1084660e+03   9.9138670e+01
   1.1089480e+03   1.1540530e+02
   1.1094300e+03   1.2220410e+02
   1.1099120e+03   1.2858790e+02
   1.1103950e+03   1.3416310e+02
   1.1108770e+03   1.4430660e+02
   1.1113590e+03   1.6859570e+02
   1.1118410e+03   1.9388380e+02
   1.1123230e+03   1.6808300e+02
   1.1128050e+03   1.0623050e+02
   1.1132870e+03   6.1892580e+01
   1.1137690e+03   5.9409180e+01
   1.1142520e+03   6.9487300e+01
   1.1147340e+03   8.5851560e+01
   1.1152160e+03   1.0480860e+02
   1.1156980e+03   1.2475100e+02
   1.1161800e+03   1.4674410e+02
   1.1166620e+03   1.5974800e+02
   1.1171440e+03   1.6392970e+02
   1.1176260e+03   1.5970210e+02
   1.1181090e+03   1.4535940e+02
   1.1185910e+03   1.2500290e+02
   1.1190730e+03   9.7159180e+01
   1.1195550e+03   6.6212890e+01
   1.1200370e+03   4.7202150e+01
   1.1205190e+03   4.5214840e+01
   1.1210010e+03   3.5728520e+01
   1.1214830e+03   1.1706050e+01
   1.1219650e+03   1.1113280e+01
   1.1224480e+03   8.6103520e+00
   1.1229300e+03   4.7500000e+00
   1.1234120e+03   8.9960940e+00
   1.1238940e+03   1.9316410e+00
   1.1243760e+03   5.0048830e+00
   1.1248580e+03   4.5784180e+01
   1.1253400e+03   8.0919920e+01
   1.1258220e+03   9.3078120e+01
   1.1263040e+03   8.8025390e+01
   1.1267870e+03   7.3342770e+01
   1.1272690e+03   5.4818360e+01
   1.1277510e+03   5.0910160e+01
   1.1282330e+03   8.7111330e+01
   1.1287150e+03   1.0998730e+02
   1.1291970e+03   2.0322270e+00
   1.1296790e+03   1.1224610e+02
   1.1301610e+03   1.7618070e+02
   1.1306440e+03   1.9250200e+02
   1.1311260e+03   1.8539060e+01
   1.1316080e+03   9.0260740e+01
   1.1320900e+03   6.3526370e+01
   1.1325720e+03   3.2737300e+01
   1.1330540e+03   1.3903520e+02
   1.1335360e+03   7.2783200e+00
   1.1340180e+03   9.6831050e+01
   1.1345000e+03   1.0097560e+02
   1.1349830e+03   1.5086520e+02
   1.1354650e+03   1.0167970e+02
   1.1359470e+03   8.3080080e+01
   1.1364290e+03   1.6358690e+02
   1.1369110e+03   1.8921970e+02
   1.1373930e+03   1.2862210e+02
   1.1378750e+03   1.8142770e+02
   1.1383570e+03   3.1679690e+01
   1.1388390e+03   5.9691410e+01
   1.1393220e+03   1.6441110e+02
   1.1398040e+03   1.0882420e+02
   1.1402860e+03   1.6345410e+02
   1.1407680e+03   1.7610060e+02
   1.1412500e+03   2.0195310e+00
   1.1417320e+03   1.5160160e+02
   1.1422140e+03   1.6175000e+02
   1.1426960e+03   2.4583980e+01
   1.1431790e+03   1.6683110e+02
   1.1436610e+03   4.9955080e+01
   1.1441430e+03   2.5575200e+01
   1.1446250e+03   7.0787110e+01
   1.1451070e+03   4.3443360e+01
   1.1455890e+03   1.3048540e+02
   1.1460710e+03   1.0732320e+02
   1.1465530e+03   7.4307620e+01
   1.1470360e+03   8.4178710e+01
   1.1475180e+03   2.7646480e+01
   1.1480000e+03   8.6418950e+01
   1.1484820e+03   4.6094730e+01
   1.1489640e+03   8.2539060e+01
   1.1494460e+03   4.4690430e+01
   1.1499280e+03   1.2576860e+02
   1.1504100e+03   1.5222170e+02
   1.1508920e+03   9.2230470e+01
   1.1513750e+03   1.4583590e+02
   1.1518570e+03   3.1406250e+00
   1.1523390e+03   2.5631840e+01
   1.1528210e+03   1.3109860e+02
   1.1533030e+03   7.6272460e+01
   1.1537850e+03   1.3166110e+02
   1.1542670e+03   1.4506540e+02
   1.1547490e+03   3.2291990e+01
   1.1552310e+03   1.2207810e+02
   1.1557140e+03   1.3299020e+02
   1.1561960e+03   3.4179690e+00
   1.1566780e+03   1.3957710e+02
   1.1571600e+03   2.3466800e+01
   1.1576420e+03   1.6503900e-01
   1.1581240e+03   4.5791020e+01
   1.1586060e+03   1.9194340e+01
   1.1590880e+03   1.0698240e+02
   1.1595710e+03   5.4408200e+01
   1.1600530e+03   6.6808590e+01
   1.1605350e+03   8.1484380e+01
   1.1610170e+03   7.1948240e+01
   1.1614990e+03   1.9285160e+01
   1.1619810e+03   3.9921880e+00
   1.1624630e+03   1.5223630e+01
   1.1629450e+03   3.9310550e+01
   1.1634270e+03   1.9301760e+01
   1.1639100e+03   1.7131840e+01
   1.1643920e+03   2.0779300e+01
   1.1648740e+03   7.4140630e+00
   1.1653560e+03   1.8230470e+01
   1.1658380e+03   1.7937500e+01
   1.1663200e+03   4.2810550e+01
   1.1668020e+03   4.2572270e+01
   1.1672840e+03   2.7463870e+01
   1.1677660e+03   9.9062500e+00
   1.1682490e+03   7.2509770e+00
   1.1687310e+03   1.6958980e+01
   1.1692130e+03   1.6232420e+01
   1.1696950e+03   1.6631840e+01
   1.1701770e+03   2.1133790e+01
   1.1706590e+03   2.8250980e+01
   1.1711410e+03   3.5463870e+01
   1.1716230e+03   4.5560550e+01
   1.1721060e+03   7.7502930e+01
   1.1725880e+03   1.2252250e+02
   1.1730700e+03   1.4663770e+02
   1.1735520e+03   1.2108790e+02
   1.1740340e+03   9.9424800e+01
   1.1745160e+03   1.0437700e+02
   1.1749980e+03   1.2091500e+02
   1.1754800e+03   1.4527440e+02
   1.1759630e+03   1.7586820e+02
   1.1764450e+03   1.7035250e+02
   1.1769270e+03   1.3226370e+02
   1.1774090e+03   1.0087790e+02
   1.1778910e+03   1.2111720e+02
   1.1783730e+03   1.3154390e+02
   1.1788550e+03   8.1084960e+01
   1.1793370e+03   1.1134770e+01
   1.1798190e+03   1.6039060e+01
   1.1803020e+03   1.8037110e+00
   1.1807840e+03   2.2131840e+01
   1.1812660e+03   4.0426760e+01
   1.1817480e+03   6.5177730e+01
   1.1822300e+03   1.2395610e+02
   1.1827120e+03   1.7494730e+02
   1.1831940e+03   1.7637010e+02
   1.1836760e+03   1.4195700e+02
   1.1841580e+03   1.2926660e+02
   1.1846410e+03   1.4014260e+02
   1.1851230e+03   1.4679390e+02
   1.1856050e+03   1.4047560e+02
   1.1860870e+03   1.3557030e+02
   1.1865690e+03   1.4276270e+02
   1.1870510e+03   1.5943360e+02
   1.1875330e+03   1.8811330e+02
   1.1880150e+03   2.2844040e+02
   1.1884980e+03   2.5703910e+02
   1.1889800e+03   2.7182520e+02
   1.1894620e+03   2.8717580e+02
   1.1899440e+03   3.1811230e+02
   1.1904260e+03   3.3693750e+02
   1.1909080e+03   2.9328610e+02
   1.1913900e+03   2.2261130e+02
   1.1918720e+03   1.8116600e+02
   1.1923540e+03   1.7907620e+02
   1.1928370e+03   2.0069430e+02
   1.1933190e+03   2.5293750e+02
   1.1938010e+03   2.9737700e+02
   1.1942830e+03   3.0220410e+02
   1.1947650e+03   2.8834860e+02
   1.1952470e+03   2.7380760e+02
   1.1957290e+03   2.6399410e+02
   1.1962110e+03   2.7473340e+02
   1.1966930e+03   3.2377440e+02
   1.1971760e+03   3.5781930e+02
   1.1976580e+03   3.7102150e+02
   1.1981400e+03   3.7688090e+02
   1.1986220e+03   3.9232710e+02
   1.1991040e+03   4.0622460e+02
   1.1995860e+03   3.9577250e+02
   1.2000680e+03   3.6493850e+02
   1.2005500e+03   3.5629300e+02
   1.2010330e+03   3.9001070e+02
   1.2015150e+03   4.1954300e+02
   1.2019970e+03   4.3879690e+02
   1.2024790e+03   4.4752540e+02
   1.2029610e+03   4.4348930e+02
   1.2034430e+03   4.3440040e+02
   1.2039250e+03   4.3465820e+02
   1.2044070e+03   4.4714360e+02
   1.2048900e+03   4.5034570e+02
   1.2053720e+03   4.3140230e+02
   1.2058540e+03   4.2131050e+02
   1.2063360e+03   4.3084080e+02
   1.2068180e+03   4.4609080e+02
   1.2073000e+03   4.4518850e+02
   1.2077820e+03   4.2698240e+02
   1.2082640e+03   3.8087990e+02
   1.2087460e+03   2.8295210e+02
   1.2092290e+03   2.3671780e+02
   1.2097110e+03   2.7831050e+02
   1.2101930e+03   3.2420310e+02
   1.2106750e+03   3.2670610e+02
   1.2111570e+03   3.0386520e+02
   1.2116390e+03   3.0073140e+02
   1.2121210e+03   3.1136910e+02
   1.2126030e+03   3.1805660e+02
   1.2130850e+03   3.2688180e+02
   1.2135680e+03   3.1997360e+02
   1.2140500e+03   2.8660160e+02
   1.2145320e+03   2.5488960e+02
   1.2150140e+03   2.4826860e+02
   1.2154960e+03   2.5833400e+02
   1.2159780e+03   2.6440430e+02
   1.2164600e+03   2.6498730e+02
   1.2169420e+03   2.5775290e+02
   1.2174250e+03   2.3076170e+02
   1.2179070e+03   2.1012600e+02
   1.2183890e+03   2.0072070e+02
   1.2188710e+03   1.9707320e+02
   1.2193530e+03   1.9494140e+02
   1.2198350e+03   1.9310160e+02
   1.2203170e+03   1.8948630e+02
   1.2207990e+03   1.8144040e+02
   1.2212810e+03   1.7223050e+02
   1.2217640e+03   1.5948240e+02
   1.2222460e+03   1.4744630e+02
   1.2227280e+03   1.3141890e+02
   1.2232100e+03   1.2716110e+02
   1.2236920e+03   1.8503120e+02
   1.2241740e+03   2.7162700e+02
   1.2246560e+03   2.9121580e+02
   1.2251380e+03   2.2839160e+02
   1.2256200e+03   1.7125590e+02
   1.2261030e+03   1.5740620e+02
   1.2265850e+03   1.4668850e+02
   1.2270670e+03   1.2483300e+02
   1.2275490e+03   1.0200590e+02
   1.2280310e+03   1.0684470e+02
   1.2285130e+03   1.2888870e+02
   1.2289950e+03   1.3773830e+02
   1.2294770e+03   1.2226660e+02
   1.2299600e+03   1.1613570e+02
   1.2304420e+03   1.4274120e+02
   1.2309240e+03   1.6276370e+02
   1.2314060e+03   1.5905570e+02
   1.2318880e+03   1.3669820e+02
   1.2323700e+03   1.0073140e+02
   1.2328520e+03   5.9162110e+01
   1.2333340e+03   2.9722660e+01
   1.2338160e+03   1.6789060e+01
   1.2342990e+03   1.6875980e+01
   1.2347810e+03   3.6426760e+01
   1.2352630e+03   5.6167970e+01
   1.2357450e+03   5.9204100e+01
   1.2362270e+03   5.3931640e+01
   1.2367090e+03   7.0163090e+01
   1.2371910e+03   1.0172850e+02
   1.2376730e+03   1.2881450e+02
   1.2381560e+03   1.5425290e+02
   1.2386380e+03   1.6153220e+02
   1.2391200e+03   1.4475590e+02
   1.2396020e+03   1.1845610e+02
   1.2400840e+03   8.5293950e+01
   1.2405660e+03   5.5630860e+01
   1.2410480e+03   6.9673830e+01
   1.2415300e+03   1.1717680e+02
   1.2420120e+03   1.5085160e+02
   1.2424950e+03   1.4766500e+02
   1.2429770e+03   1.3441600e+02
   1.2434590e+03   1.1295510e+02
   1.2439410e+03   8.8250980e+01
   1.2444230e+03   5.8044920e+01
   1.2449050e+03   3.1916020e+01
   1.2453870e+03   4.1088870e+01
   1.2458690e+03   8.1146480e+01
   1.2463510e+03   1.0510060e+02
   1.2468340e+03   8.8880860e+01
   1.2473160e+03   6.3857420e+01
   1.2477980e+03   2.4630860e+01
   1.2482800e+03   1.9531000e-02
   1.2487620e+03   5.7095700e+01
   1.2492440e+03   1.4618950e+02
   1.2497260e+03   1.6689450e+02
   1.2502080e+03   1.1013570e+02
   1.2506910e+03   6.8535160e+01
   1.2511730e+03   6.6114260e+01
   1.2516550e+03   6.3900390e+01
   1.2521370e+03   4.9142580e+01
   1.2526190e+03   3.6761720e+01
   1.2531010e+03   5.5651370e+01
   1.2535830e+03   9.0395510e+01
   1.2540650e+03   1.2040430e+02
   1.2545470e+03   1.4440820e+02
   1.2550300e+03   1.3933590e+02
   1.2555120e+03   8.8110350e+01
   1.2559940e+03   5.7041990e+01
   1.2564760e+03   7.6190430e+01
   1.2569580e+03   1.1443750e+02
   1.2574400e+03   1.3962010e+02
   1.2579220e+03   1.4514360e+02
   1.2584040e+03   1.1211620e+02
   1.2588860e+03   1.8367190e+01
   1.2593690e+03   1.9575200e+01
   1.2598510e+03   8.8623050e+00
   1.2603330e+03   5.6492190e+01
   1.2608150e+03   1.1607710e+02
   1.2612970e+03   1.6218160e+02
   1.2617790e+03   1.4866500e+02
   1.2622610e+03   1.0544140e+02
   1.2627430e+03   7.8098630e+01
   1.2632260e+03   7.8559570e+01
   1.2637080e+03   6.8714840e+01
   1.2641900e+03   4.6847660e+01
   1.2646720e+03   2.7616210e+01
   1.2651540e+03   1.9307620e+01
   1.2656360e+03   1.8764650e+01
   1.2661180e+03   2.4165040e+01
   1.2666000e+03   3.4767580e+01
   1.2670830e+03   5.1888670e+01
   1.2675650e+03   8.2982420e+01
   1.2680470e+03   8.9732420e+01
   1.2685290e+03   7.0728520e+01
   1.2690110e+03   4.4831050e+01
   1.2694930e+03   1.6184570e+01
   1.2699750e+03   5.9511720e+00
   1.2704570e+03   1.3246090e+01
   1.2709390e+03   8.8564450e+00
   1.2714220e+03   6.3574200e-01
   1.2719040e+03   1.1009770e+01
   1.2723860e+03   3.0235350e+01
   1.2728680e+03   5.7383790e+01
   1.2733500e+03   8.7686520e+01
   1.2738320e+03   1.3340920e+02
   1.2743140e+03   1.6370020e+02
   1.2747960e+03   1.4760160e+02
   1.2752780e+03   1.0918850e+02
   1.2757610e+03   8.8439450e+01
   1.2762430e+03   8.4162110e+01
   1.2767250e+03   5.9443360e+01
   1.2772070e+03   1.2435550e+01
   1.2776890e+03   1.2459960e+01
   1.2781710e+03   3.5480470e+01
   1.2786530e+03   8.6973630e+01
   1.2791350e+03   1.1842480e+02
   1.2796180e+03   1.2411430e+02
   1.2801000e+03   9.7774410e+01
   1.2805820e+03   4.6275390e+01
   1.2810640e+03   2.3542970e+01
   1.2815460e+03   3.5247070e+01
   1.2820280e+03   5.5222660e+01
   1.2825100e+03   7.5955080e+01
   1.2829920e+03   9.4488280e+01
   1.2834740e+03   1.1210450e+02
   1.2839570e+03   1.2600680e+02
   1.2844390e+03   1.3179980e+02
   1.2849210e+03   1.2649020e+02
   1.2854030e+03   1.0580760e+02
   1.2858850e+03   7.9840820e+01
   1.2863670e+03   6.3454100e+01
   1.2868490e+03   5.7087890e+01
   1.2873310e+03   6.7796880e+01
   1.2878130e+03   1.0778420e+02
   1.2882960e+03   1.4835740e+02
   1.2887780e+03   1.2370800e+02
   1.2892600e+03   7.4391600e+01
   1.2897420e+03   2.9788090e+01
   1.2902240e+03   6.2060550e+00
   1.2907060e+03   1.4827150e+01
   1.2911880e+03   1.6357420e+01
   1.2916700e+03   5.1840820e+01
   1.2921530e+03   8.3784180e+01
   1.2926350e+03   1.0769430e+02
   1.2931170e+03   1.1367970e+02
   1.2935990e+03   1.0773830e+02
   1.2940810e+03   9.6910160e+01
   1.2945630e+03   8.1832030e+01
   1.2950450e+03   5.7886720e+01
   1.2955270e+03   2.6535160e+01
   1.2960100e+03   2.6353520e+01
   1.2964920e+03   3.5904300e+01
   1.2969740e+03   5.0607420e+01
   1.2974560e+03   8.3917970e+01
   1.2979380e+03   1.1533010e+02
   1.2984200e+03   9.8750000e+01
   1.2989020e+03   3.7593750e+01
   1.2993840e+03   0.0000000e+00
   1.5000000e+03   0.0000000e+00
