   1.0000000e+02   0.0000000e+00
   1.1317300e+02   0.0000000e+00
   1.1365510e+02   5.3744500e-01
   1.1413730e+02   1.6204070e+00
   1.1461940e+02   6.6826630e+00
   1.1510150e+02   1.2954870e+01
   1.1558360e+02   1.9495440e+01
   1.1606570e+02   2.6550460e+01
   1.1654780e+02   3.3847930e+01
   1.1703000e+02   4.1322780e+01
   1.1751210e+02   4.9393590e+01
   1.1799420e+02   5.7073730e+01
   1.1847630e+02   6.5627690e+01
   1.1895840e+02   7.6665630e+01
   1.1944050e+02   9.0747650e+01
   1.1992270e+02   1.0756970e+02
   1.2040480e+02   1.2642880e+02
   1.2088690e+02   1.4692990e+02
   1.2136900e+02   1.7107920e+02
   1.2185110e+02   2.0037600e+02
   1.2233320e+02   2.3422000e+02
   1.2281540e+02   2.7142540e+02
   1.2329750e+02   3.0879810e+02
   1.2377960e+02   3.5039030e+02
   1.2426170e+02   4.0191690e+02
   1.2474380e+02   4.6567810e+02
   1.2522590e+02   5.3413230e+02
   1.2570810e+02   6.0845940e+02
   1.2619020e+02   6.8413200e+02
   1.2667230e+02   7.3947600e+02
   1.2715440e+02   7.7141190e+02
   1.2763650e+02   7.7949400e+02
   1.2811860e+02   7.5446470e+02
   1.2860080e+02   6.8767820e+02
   1.2908290e+02   5.9740160e+02
   1.2956500e+02   5.0286130e+02
   1.3004710e+02   4.0460670e+02
   1.3052920e+02   3.1415130e+02
   1.3101130e+02   2.4031290e+02
   1.3149350e+02   1.8188350e+02
   1.3197560e+02   1.3483430e+02
   1.3245770e+02   1.0010950e+02
   1.3293980e+02   7.5876340e+01
   1.3342190e+02   5.7340390e+01
   1.3390400e+02   4.3804050e+01
   1.3438620e+02   3.3821870e+01
   1.3486830e+02   2.7134280e+01
   1.3535040e+02   2.3723250e+01
   1.3583250e+02   2.1675630e+01
   1.3631460e+02   2.0152740e+01
   1.3679670e+02   1.8679670e+01
   1.3727890e+02   1.6462750e+01
   1.3776100e+02   1.4222670e+01
   1.3824310e+02   1.2402180e+01
   1.3872520e+02   1.1825790e+01
   1.3920730e+02   1.2793240e+01
   1.3968940e+02   1.3506520e+01
   1.4017160e+02   1.3065260e+01
   1.4065370e+02   1.1175370e+01
   1.4113580e+02   1.0460480e+01
   1.4161790e+02   1.1292570e+01
   1.4210000e+02   1.2903920e+01
   1.4258210e+02   1.3870420e+01
   1.4306430e+02   1.4099670e+01
   1.4354640e+02   1.3935560e+01
   1.4402850e+02   1.3435780e+01
   1.4451060e+02   1.2356230e+01
   1.4499270e+02   1.1617920e+01
   1.4547480e+02   1.1457870e+01
   1.4595700e+02   1.1600750e+01
   1.4643910e+02   1.1249600e+01
   1.4692120e+02   1.0180270e+01
   1.4740330e+02   8.8909150e+00
   1.4788540e+02   7.5853120e+00
   1.4836750e+02   6.2456670e+00
   1.4884970e+02   4.9228670e+00
   1.4933180e+02   3.6343230e+00
   1.4981390e+02   2.3772280e+00
   1.5029600e+02   1.1398770e+00
   1.5077810e+02   9.2299998e-02
   1.5126020e+02   1.0560760e+00
   1.5174240e+02   2.4505000e+00
   1.5222450e+02   4.5585480e+00
   1.5270660e+02   6.3855130e+00
   1.5318870e+02   7.9073940e+00
   1.5367080e+02   9.1054080e+00
   1.5415290e+02   9.9149320e+00
   1.5463510e+02   1.0120590e+01
   1.5511720e+02   1.0073750e+01
   1.5559930e+02   1.0011870e+01
   1.5608140e+02   9.9509430e+00
   1.5656350e+02   9.8899230e+00
   1.5704560e+02   9.9784090e+00
   1.5752780e+02   1.0210980e+01
   1.5800990e+02   9.9831240e+00
   1.5849200e+02   9.1089480e+00
   1.5897410e+02   7.7543790e+00
   1.5945620e+02   6.0671840e+00
   1.5993830e+02   3.8393400e+00
   1.6042050e+02   1.5040590e+00
   1.6090260e+02   6.4250200e-01
   1.6138470e+02   2.5479580e+00
   1.6186680e+02   4.9792630e+00
   1.6234890e+02   8.6032870e+00
   1.6283100e+02   1.2772350e+01
   1.6331320e+02   1.6733610e+01
   1.6379530e+02   1.9589680e+01
   1.6427740e+02   2.2671810e+01
   1.6475950e+02   2.6922820e+01
   1.6524160e+02   3.2633760e+01
   1.6572370e+02   3.8020720e+01
   1.6620590e+02   4.1916120e+01
   1.6668800e+02   4.5013580e+01
   1.6717010e+02   4.8367510e+01
   1.6765220e+02   5.2418730e+01
   1.6813430e+02   5.6887130e+01
   1.6861640e+02   6.1553590e+01
   1.6909850e+02   6.6381930e+01
   1.6958070e+02   7.1554490e+01
   1.7006280e+02   7.7325440e+01
   1.7054490e+02   8.3534820e+01
   1.7102700e+02   8.9824830e+01
   1.7150910e+02   9.6075500e+01
   1.7199120e+02   1.0237050e+02
   1.7247340e+02   1.0860440e+02
   1.7295550e+02   1.1462310e+02
   1.7343760e+02   1.2113150e+02
   1.7391970e+02   1.2886150e+02
   1.7440180e+02   1.3759830e+02
   1.7488390e+02   1.4672170e+02
   1.7536610e+02   1.5517770e+02
   1.7584820e+02   1.6395340e+02
   1.7633030e+02   1.7438360e+02
   1.7681240e+02   1.8694150e+02
   1.7729450e+02   2.0064830e+02
   1.7777660e+02   2.1523110e+02
   1.7825880e+02   2.3045390e+02
   1.7874090e+02   2.4471870e+02
   1.7922300e+02   2.5567980e+02
   1.7970510e+02   2.6534400e+02
   1.8018720e+02   2.7735510e+02
   1.8066930e+02   2.9276300e+02
   1.8115150e+02   3.1014560e+02
   1.8163360e+02   3.2801980e+02
   1.8211570e+02   3.4627290e+02
   1.8259780e+02   3.6403740e+02
   1.8307990e+02   3.8001800e+02
   1.8356200e+02   3.9516460e+02
   1.8404420e+02   4.1171550e+02
   1.8452630e+02   4.3031870e+02
   1.8500840e+02   4.5044090e+02
   1.8549050e+02   4.7190410e+02
   1.8597260e+02   4.9459360e+02
   1.8645470e+02   5.1784610e+02
   1.8693690e+02   5.4088660e+02
   1.8741900e+02   5.6410380e+02
   1.8790110e+02   5.8802710e+02
   1.8838320e+02   6.1280300e+02
   1.8886530e+02   6.3867670e+02
   1.8934740e+02   6.6681020e+02
   1.8982960e+02   6.9752120e+02
   1.9031170e+02   7.2859760e+02
   1.9079380e+02   7.5863740e+02
   1.9127590e+02   7.8764450e+02
   1.9175800e+02   8.1511240e+02
   1.9224010e+02   8.3993440e+02
   1.9272230e+02   8.6397240e+02
   1.9320440e+02   8.9373750e+02
   1.9368650e+02   9.3006460e+02
   1.9416860e+02   9.6785960e+02
   1.9465070e+02   1.0023210e+03
   1.9513280e+02   1.0335770e+03
   1.9561500e+02   1.0642760e+03
   1.9609710e+02   1.0947170e+03
   1.9657920e+02   1.1248780e+03
   1.9706130e+02   1.1545770e+03
   1.9754340e+02   1.1835670e+03
   1.9802550e+02   1.2128360e+03
   1.9850770e+02   1.2433690e+03
   1.9898980e+02   1.2754390e+03
   1.9947190e+02   1.3052520e+03
   1.9995400e+02   1.3322610e+03
   2.0043610e+02   1.3562230e+03
   2.0091820e+02   1.3758900e+03
   2.0140040e+02   1.3904560e+03
   2.0188250e+02   1.4028420e+03
   2.0236460e+02   1.4170600e+03
   2.0284670e+02   1.4337890e+03
   2.0332880e+02   1.4458250e+03
   2.0381090e+02   1.4512870e+03
   2.0429310e+02   1.4505010e+03
   2.0477520e+02   1.4459540e+03
   2.0525730e+02   1.4375890e+03
   2.0573940e+02   1.4256430e+03
   2.0622150e+02   1.4098590e+03
   2.0670360e+02   1.3899950e+03
   2.0718580e+02   1.3684370e+03
   2.0766790e+02   1.3458730e+03
   2.0815000e+02   1.3222050e+03
   2.0863210e+02   1.2961330e+03
   2.0911420e+02   1.2675690e+03
   2.0959630e+02   1.2367280e+03
   2.1007850e+02   1.2031620e+03
   2.1056060e+02   1.1663030e+03
   2.1104270e+02   1.1297780e+03
   2.1152480e+02   1.0944530e+03
   2.1200690e+02   1.0603090e+03
   2.1248900e+02   1.0255200e+03
   2.1297120e+02   9.9021530e+02
   2.1345330e+02   9.5396530e+02
   2.1393540e+02   9.1630790e+02
   2.1441750e+02   8.7591580e+02
   2.1489960e+02   8.3714490e+02
   2.1538170e+02   8.0063200e+02
   2.1586390e+02   7.6670530e+02
   2.1634600e+02   7.3415970e+02
   2.1682810e+02   7.0322950e+02
   2.1731020e+02   6.7330980e+02
   2.1779230e+02   6.4384250e+02
   2.1827440e+02   6.1383290e+02
   2.1875650e+02   5.8616300e+02
   2.1923870e+02   5.6253190e+02
   2.1972080e+02   5.4282290e+02
   2.2020290e+02   5.2183120e+02
   2.2068500e+02   4.9871330e+02
   2.2116710e+02   4.7552800e+02
   2.2164920e+02   4.5508080e+02
   2.2213140e+02   4.3817870e+02
   2.2261350e+02   4.2172890e+02
   2.2309560e+02   4.0544700e+02
   2.2357770e+02   3.8911670e+02
   2.2405980e+02   3.7289510e+02
   2.2454190e+02   3.5622310e+02
   2.2502410e+02   3.4011300e+02
   2.2550620e+02   3.2542100e+02
   2.2598830e+02   3.1268860e+02
   2.2647040e+02   3.0044450e+02
   2.2695250e+02   2.8855470e+02
   2.2743460e+02   2.7683130e+02
   2.2791680e+02   2.6615700e+02
   2.2839890e+02   2.5692030e+02
   2.2888100e+02   2.4829520e+02
   2.2936310e+02   2.3962600e+02
   2.2984520e+02   2.3076910e+02
   2.3032730e+02   2.2197740e+02
   2.3080950e+02   2.1311000e+02
   2.3129160e+02   2.0409650e+02
   2.3177370e+02   1.9611670e+02
   2.3225580e+02   1.8971950e+02
   2.3273790e+02   1.8390310e+02
   2.3322000e+02   1.7757340e+02
   2.3370220e+02   1.7005730e+02
   2.3418430e+02   1.6315180e+02
   2.3466640e+02   1.5754950e+02
   2.3514850e+02   1.5339160e+02
   2.3563060e+02   1.4870550e+02
   2.3611270e+02   1.4282680e+02
   2.3659490e+02   1.3686700e+02
   2.3707700e+02   1.3194310e+02
   2.3755910e+02   1.2854730e+02
   2.3804120e+02   1.2533810e+02
   2.3852330e+02   1.2200180e+02
   2.3900540e+02   1.1848170e+02
   2.3948760e+02   1.1539810e+02
   2.3996970e+02   1.1302190e+02
   2.4045180e+02   1.1099930e+02
   2.4093390e+02   1.0885970e+02
   2.4141600e+02   1.0613600e+02
   2.4189810e+02   1.0402720e+02
   2.4238030e+02   1.0270600e+02
   2.4286240e+02   1.0216070e+02
   2.4334450e+02   1.0246910e+02
   2.4382660e+02   1.0430400e+02
   2.4430870e+02   1.0634690e+02
   2.4479080e+02   1.0741190e+02
   2.4527300e+02   1.0687310e+02
   2.4575510e+02   1.0659790e+02
   2.4623720e+02   1.0717910e+02
   2.4671930e+02   1.0846750e+02
   2.4720140e+02   1.0826490e+02
   2.4768350e+02   1.0542400e+02
   2.4816570e+02   1.0243240e+02
   2.4864780e+02   1.0133840e+02
   2.4912990e+02   1.0312060e+02
   2.4961200e+02   1.0466610e+02
   2.5009410e+02   1.0554810e+02
   2.5057620e+02   1.0585100e+02
   2.5105840e+02   1.0626800e+02
   2.5154050e+02   1.0694970e+02
   2.5202260e+02   1.0754550e+02
   2.5250470e+02   1.0771890e+02
   2.5298680e+02   1.0702900e+02
   2.5346890e+02   1.0698350e+02
   2.5395110e+02   1.0779000e+02
   2.5443320e+02   1.0937030e+02
   2.5491530e+02   1.1127810e+02
   2.5539740e+02   1.1355130e+02
   2.5587950e+02   1.1611200e+02
   2.5636160e+02   1.1876560e+02
   2.5684380e+02   1.2112390e+02
   2.5732590e+02   1.2463650e+02
   2.5780800e+02   1.2958720e+02
   2.5829010e+02   1.3574100e+02
   2.5877220e+02   1.4222990e+02
   2.5925430e+02   1.4858710e+02
   2.5973650e+02   1.5611810e+02
   2.6021860e+02   1.6587180e+02
   2.6070070e+02   1.7835000e+02
   2.6118280e+02   1.9141760e+02
   2.6166490e+02   2.0537720e+02
   2.6214700e+02   2.1960270e+02
   2.6262920e+02   2.3331340e+02
   2.6311130e+02   2.4810430e+02
   2.6359340e+02   2.5892960e+02
   2.6407550e+02   2.6371040e+02
   2.6455760e+02   2.6290370e+02
   2.6503970e+02   2.5408140e+02
   2.6552190e+02   2.3516460e+02
   2.6600400e+02   2.0940350e+02
   2.6648610e+02   1.8271100e+02
   2.6696820e+02   1.5411450e+02
   2.6745030e+02   1.2765300e+02
   2.6793240e+02   1.0574970e+02
   2.6841460e+02   8.8514430e+01
   2.6889670e+02   7.3746370e+01
   2.6937880e+02   6.1667600e+01
   2.6986090e+02   5.1920770e+01
   2.7034300e+02   4.4387510e+01
   2.7082510e+02   3.9499420e+01
   2.7130730e+02   3.5248300e+01
   2.7178940e+02   3.0825430e+01
   2.7227150e+02   2.6105190e+01
   2.7275360e+02   2.2680210e+01
   2.7323570e+02   2.0808210e+01
   2.7371780e+02   1.9783160e+01
   2.7420000e+02   1.8433100e+01
   2.7468210e+02   1.6618920e+01
   2.7516420e+02   1.5193520e+01
   2.7564630e+02   1.4752920e+01
   2.7612840e+02   1.5301800e+01
   2.7661050e+02   1.4626630e+01
   2.7709270e+02   1.2418340e+01
   2.7757480e+02   9.6552350e+00
   2.7805690e+02   7.4911500e+00
   2.7853900e+02   5.9585720e+00
   2.7902110e+02   4.8291020e+00
   2.7950320e+02   4.1340940e+00
   2.7998540e+02   3.8377840e+00
   2.8046750e+02   3.5012050e+00
   2.8094960e+02   3.0840450e+00
   2.8143170e+02   2.7640300e+00
   2.8191380e+02   2.8440400e+00
   2.8239590e+02   3.3473360e+00
   2.8287810e+02   3.6438520e+00
   2.8336020e+02   3.5853270e+00
   2.8384230e+02   3.1906360e+00
   2.8432440e+02   2.3848270e+00
   2.8480650e+02   1.0642620e+00
   2.8528860e+02   6.0821999e-02
   2.8577080e+02   4.0183999e-02
   2.8625290e+02   1.0390170e+00
   2.8673500e+02   1.4636690e+00
   2.8721710e+02   6.3732100e-01
   2.8769920e+02   9.1139200e-01
   2.8818130e+02   1.6133270e+00
   2.8866350e+02   1.4345170e+00
   2.8914560e+02   1.1740950e+00
   2.8962770e+02   1.6896440e+00
   2.9010980e+02   2.8020480e+00
   2.9059190e+02   3.1607890e+00
   2.9107400e+02   2.2893450e+00
   2.9155620e+02   9.7338900e-01
   2.9203830e+02   8.9957400e-01
   2.9252040e+02   2.0130310e+00
   2.9300250e+02   3.1095050e+00
   2.9348460e+02   3.2765730e+00
   2.9396670e+02   2.7732320e+00
   2.9444890e+02   2.5646210e+00
   2.9493100e+02   2.8599400e+00
   2.9541310e+02   3.2202530e+00
   2.9589520e+02   2.7420350e+00
   2.9637730e+02   1.5947340e+00
   2.9685940e+02   8.6280800e-01
   2.9734160e+02   1.5996320e+00
   2.9782370e+02   3.1497120e+00
   2.9830580e+02   3.9863740e+00
   2.9878790e+02   3.9597320e+00
   2.9927000e+02   3.4839780e+00
   2.9975210e+02   2.7720110e+00
   3.0023430e+02   1.9471280e+00
   3.0071640e+02   1.4295880e+00
   3.0119850e+02   1.6387410e+00
   3.0168060e+02   2.2078550e+00
   3.0216270e+02   2.5742260e+00
   3.0264480e+02   2.7210160e+00
   3.0312700e+02   2.7475430e+00
   3.0360910e+02   2.7735600e+00
   3.0409120e+02   2.7497630e+00
   3.0457330e+02   2.5852130e+00
   3.0505540e+02   2.1185300e+00
   3.0553750e+02   1.5579910e+00
   3.0601970e+02   1.1326520e+00
   3.0650180e+02   8.3861500e-01
   3.0698390e+02   5.9258300e-01
   3.0746600e+02   3.5985600e-01
   3.0794810e+02   1.3100400e-01
   3.0843020e+02   1.1228200e-01
   3.0891240e+02   4.4461100e-01
   3.0939450e+02   7.2596000e-01
   3.0987660e+02   7.8343200e-01
   3.1035870e+02   6.5927100e-01
   3.1084080e+02   5.8129100e-01
   3.1132290e+02   7.5551600e-01
   3.1180510e+02   1.0132370e+00
   3.1228720e+02   1.1811220e+00
   3.1276930e+02   1.1851040e+00
   3.1325140e+02   1.1495670e+00
   3.1373350e+02   1.1157230e+00
   3.1421560e+02   1.0943830e+00
   3.1469780e+02   1.1141590e+00
   3.1517990e+02   1.2210080e+00
   3.1566200e+02   1.3527150e+00
   3.1614410e+02   1.4979630e+00
   3.1662620e+02   1.7219160e+00
   3.1710830e+02   1.7744830e+00
   3.1759050e+02   1.2446590e+00
   3.1807260e+02   5.0408900e-01
   3.1855470e+02   1.9371000e-01
   3.1903680e+02   9.8743400e-01
   3.1951890e+02   1.9159320e+00
   3.2000100e+02   2.5616230e+00
   3.2048320e+02   2.9031520e+00
   3.2096530e+02   2.9127810e+00
   3.2144740e+02   2.0022960e+00
   3.2192950e+02   9.5008900e-01
   3.2241160e+02   6.6177400e-01
   3.2289370e+02   2.6360240e+00
   3.2337590e+02   4.1461410e+00
   3.2385800e+02   4.1029050e+00
   3.2434010e+02   2.3818440e+00
   3.2482220e+02   1.0960310e+00
   3.2530430e+02   9.4589200e-01
   3.2578640e+02   1.1329880e+00
   3.2626860e+02   1.0417100e+00
   3.2675070e+02   2.5186200e-01
   3.2723280e+02   8.7073500e-01
   3.2771490e+02   6.7795001e-02
   3.2819700e+02   1.9591220e+00
   3.2867910e+02   3.0884550e+00
   3.2916130e+02   2.2799530e+00
   3.2964340e+02   1.3610690e+00
   3.3012550e+02   1.2622910e+00
   3.3060760e+02   2.8053440e+00
   3.3108970e+02   3.9707180e+00
   3.3157180e+02   4.4473420e+00
   3.3205400e+02   4.5317150e+00
   3.3253610e+02   5.0652540e+00
   3.3301820e+02   6.1169200e+00
   3.3350030e+02   7.5356520e+00
   3.3398240e+02   9.2640080e+00
   3.3446450e+02   1.1345620e+01
   3.3494670e+02   1.3624620e+01
   3.3542880e+02   1.6001770e+01
   3.3591090e+02   1.8635150e+01
   3.3639300e+02   2.1843860e+01
   3.3687510e+02   2.6049490e+01
   3.3735720e+02   2.9910260e+01
   3.3783940e+02   3.3056850e+01
   3.3832150e+02   3.5446040e+01
   3.3880360e+02   3.7431760e+01
   3.3928570e+02   3.8808400e+01
   3.3976780e+02   4.0148890e+01
   3.4024990e+02   4.2080750e+01
   3.4073200e+02   4.4590900e+01
   3.4121410e+02   4.7598910e+01
   3.4169630e+02   5.1251990e+01
   3.4217840e+02   5.5348060e+01
   3.4266050e+02   5.8731450e+01
   3.4314260e+02   6.1202530e+01
   3.4362470e+02   6.3756620e+01
   3.4410680e+02   6.7177960e+01
   3.4458900e+02   7.1389480e+01
   3.4507110e+02   7.5964350e+01
   3.4555320e+02   8.0893490e+01
   3.4603530e+02   8.5952970e+01
   3.4651740e+02   8.9770710e+01
   3.4699950e+02   9.2431010e+01
   3.4748170e+02   9.7032410e+01
   3.4796380e+02   1.0572280e+02
   3.4844590e+02   1.1795170e+02
   3.4892800e+02   1.3163120e+02
   3.4941010e+02   1.4649930e+02
   3.4989220e+02   1.6303390e+02
   3.5037440e+02   1.8134760e+02
   3.5085650e+02   2.0149080e+02
   3.5133860e+02   2.2432790e+02
   3.5182070e+02   2.5126300e+02
   3.5230280e+02   2.8067660e+02
   3.5278490e+02   3.1213640e+02
   3.5326710e+02   3.4592000e+02
   3.5374920e+02   3.7573480e+02
   3.5423130e+02   4.0179600e+02
   3.5471340e+02   4.1948160e+02
   3.5519550e+02   4.2048070e+02
   3.5567760e+02   3.9723650e+02
   3.5615980e+02   3.6050160e+02
   3.5664190e+02   3.1451250e+02
   3.5712400e+02   2.6136480e+02
   3.5760610e+02   2.1198780e+02
   3.5808820e+02   1.7171500e+02
   3.5857030e+02   1.3879220e+02
   3.5905250e+02   1.1251870e+02
   3.5953460e+02   9.4082510e+01
   3.6001670e+02   7.9551470e+01
   3.6049880e+02   6.7688690e+01
   3.6098090e+02   5.8089940e+01
   3.6146300e+02   5.0088240e+01
   3.6194520e+02   4.4110180e+01
   3.6242730e+02   3.9189260e+01
   3.6290940e+02   3.4810080e+01
   3.6339150e+02   3.0885710e+01
   3.6387360e+02   2.7633580e+01
   3.6435570e+02   2.5538080e+01
   3.6483790e+02   2.4027500e+01
   3.6532000e+02   2.2447880e+01
   3.6580210e+02   2.0506390e+01
   3.6628420e+02   1.8617950e+01
   3.6676630e+02   1.6841520e+01
   3.6724840e+02   1.5166590e+01
   3.6773060e+02   1.3828060e+01
   3.6821270e+02   1.3262940e+01
   3.6869480e+02   1.2782810e+01
   3.6917690e+02   1.1936800e+01
   3.6965900e+02   9.7376940e+00
   3.7014110e+02   8.3890380e+00
   3.7062330e+02   8.5778730e+00
   3.7110540e+02   9.7773510e+00
   3.7158750e+02   9.9409940e+00
   3.7206960e+02   8.2211910e+00
   3.7255170e+02   6.4950100e+00
   3.7303380e+02   5.5952300e+00
   3.7351600e+02   5.9354170e+00
   3.7399810e+02   5.8759310e+00
   3.7448020e+02   5.1276250e+00
   3.7496230e+02   4.2113270e+00
   3.7544440e+02   4.0932770e+00
   3.7592650e+02   5.2024610e+00
   3.7640870e+02   5.8450090e+00
   3.7689080e+02   5.3766860e+00
   3.7737290e+02   3.8460770e+00
   3.7785500e+02   3.0323720e+00
   3.7833710e+02   3.0680010e+00
   3.7881920e+02   3.4379810e+00
   3.7930140e+02   3.6362610e+00
   3.7978350e+02   3.6375890e+00
   3.8026560e+02   3.6812740e+00
   3.8074770e+02   3.9085770e+00
   3.8122980e+02   4.2349010e+00
   3.8171190e+02   4.4475860e+00
   3.8219410e+02   4.4983520e+00
   3.8267620e+02   4.8001170e+00
   3.8315830e+02   5.8619000e+00
   3.8364040e+02   7.5101850e+00
   3.8412250e+02   8.9398880e+00
   3.8460460e+02   9.9908520e+00
   3.8508680e+02   1.0823690e+01
   3.8556890e+02   1.1514920e+01
   3.8605100e+02   1.2225290e+01
   3.8653310e+02   1.3293310e+01
   3.8701520e+02   1.4945720e+01
   3.8749730e+02   1.6973510e+01
   3.8797950e+02   1.9156680e+01
   3.8846160e+02   2.1556040e+01
   3.8894370e+02   2.4169840e+01
   3.8942580e+02   2.6629810e+01
   3.8990790e+02   2.9396580e+01
   3.9039000e+02   3.3157790e+01
   3.9087220e+02   3.8713390e+01
   3.9135430e+02   4.4629790e+01
   3.9183640e+02   5.0650790e+01
   3.9231850e+02   5.6318830e+01
   3.9280060e+02   6.0158810e+01
   3.9328270e+02   6.1660020e+01
   3.9376490e+02   6.0931760e+01
   3.9424700e+02   5.7614580e+01
   3.9472910e+02   5.0721690e+01
   3.9521120e+02   4.3873370e+01
   3.9569330e+02   3.7533080e+01
   3.9617540e+02   3.2193710e+01
   3.9665760e+02   2.8594490e+01
   3.9713970e+02   2.7490330e+01
   3.9762180e+02   2.7602990e+01
   3.9810390e+02   2.8639960e+01
   3.9858600e+02   3.0603160e+01
   3.9906810e+02   3.3234540e+01
   3.9955030e+02   3.7024810e+01
   4.0003240e+02   4.1185230e+01
   4.0051450e+02   4.5133870e+01
   4.0099660e+02   4.9757840e+01
   4.0147870e+02   5.3009530e+01
   4.0196080e+02   5.5107480e+01
   4.0244300e+02   5.5776750e+01
   4.0292510e+02   5.3833540e+01
   4.0340720e+02   4.8545680e+01
   4.0388930e+02   4.1719410e+01
   4.0437140e+02   3.3737030e+01
   4.0485350e+02   2.3771340e+01
   4.0533570e+02   1.5975780e+01
   4.0581780e+02   1.0817470e+01
   4.0629990e+02   7.3084790e+00
   4.0678200e+02   4.1104970e+00
   4.0726410e+02   1.1514210e+00
   4.0774620e+02   1.0421220e+00
   4.0822840e+02   2.0494160e+00
   4.0871050e+02   2.1514130e+00
   4.0919260e+02   2.9784770e+00
   4.0967470e+02   4.6416170e+00
   4.1015680e+02   6.2110750e+00
   4.1063890e+02   6.8509900e+00
   4.1112110e+02   6.6721950e+00
   4.1160320e+02   6.2848890e+00
   4.1208530e+02   5.7181700e+00
   4.1256740e+02   5.1199190e+00
   4.1304950e+02   4.6155170e+00
   4.1353160e+02   4.2226490e+00
   4.1401380e+02   4.0542070e+00
   4.1449590e+02   4.5966640e+00
   4.1497800e+02   5.2429960e+00
   4.1546010e+02   4.8322530e+00
   4.1594220e+02   3.2268750e+00
   4.1642430e+02   1.7399900e+00
   4.1690650e+02   1.7647170e+00
   4.1738860e+02   2.5198360e+00
   4.1787070e+02   2.8494260e+00
   4.1835280e+02   2.1084060e+00
   4.1883490e+02   1.0474320e+00
   4.1931700e+02   1.2130000e-03
   4.1979920e+02   1.0246960e+00
   4.2028130e+02   1.8980030e+00
   4.2076340e+02   2.4873580e+00
   4.2124550e+02   2.9879530e+00
   4.2172760e+02   3.5196990e+00
   4.2220970e+02   4.1026760e+00
   4.2269190e+02   4.7311170e+00
   4.2317400e+02   5.4125140e+00
   4.2365610e+02   6.1389390e+00
   4.2413820e+02   6.9219440e+00
   4.2462030e+02   7.5472030e+00
   4.2510240e+02   8.4200440e+00
   4.2558460e+02   9.7597120e+00
   4.2606670e+02   1.1594440e+01
   4.2654880e+02   1.3243520e+01
   4.2703090e+02   1.4599180e+01
   4.2751300e+02   1.5885150e+01
   4.2799510e+02   1.7260210e+01
   4.2847730e+02   1.8765270e+01
   4.2895940e+02   2.0217580e+01
   4.2944150e+02   2.1342900e+01
   4.2992360e+02   2.2519910e+01
   4.3040570e+02   2.4917980e+01
   4.3088780e+02   2.8897480e+01
   4.3137000e+02   3.2951770e+01
   4.3185210e+02   3.6424880e+01
   4.3233420e+02   3.9318560e+01
   4.3281630e+02   4.2114700e+01
   4.3329840e+02   4.4708020e+01
   4.3378050e+02   4.7575620e+01
   4.3426270e+02   5.1285000e+01
   4.3474480e+02   5.5795200e+01
   4.3522690e+02   6.0664370e+01
   4.3570900e+02   6.5804540e+01
   4.3619110e+02   7.1307910e+01
   4.3667320e+02   7.7112100e+01
   4.3715540e+02   8.3291780e+01
   4.3763750e+02   9.0331150e+01
   4.3811960e+02   9.8359870e+01
   4.3860170e+02   1.0750850e+02
   4.3908380e+02   1.1792780e+02
   4.3956590e+02   1.2964610e+02
   4.4004800e+02   1.4280580e+02
   4.4053020e+02   1.5782940e+02
   4.4101230e+02   1.7445100e+02
   4.4149440e+02   1.9222690e+02
   4.4197650e+02   2.0918240e+02
   4.4245860e+02   2.2872390e+02
   4.4294070e+02   2.5295610e+02
   4.4342290e+02   2.8159200e+02
   4.4390500e+02   3.1382610e+02
   4.4438710e+02   3.4839430e+02
   4.4486920e+02   3.8666090e+02
   4.4535130e+02   4.2960660e+02
   4.4583340e+02   4.7865530e+02
   4.4631560e+02   5.3030260e+02
   4.4679770e+02   5.8516600e+02
   4.4727980e+02   6.4174160e+02
   4.4776190e+02   6.9717690e+02
   4.4824400e+02   7.4899240e+02
   4.4872610e+02   8.0167740e+02
   4.4920830e+02   8.5510850e+02
   4.4969040e+02   9.0938090e+02
   4.5017250e+02   9.6730510e+02
   4.5065460e+02   1.0292340e+03
   4.5113670e+02   1.0935080e+03
   4.5161880e+02   1.1577470e+03
   4.5210100e+02   1.2201950e+03
   4.5258310e+02   1.2900750e+03
   4.5306520e+02   1.3693970e+03
   4.5354730e+02   1.4566210e+03
   4.5402940e+02   1.5492580e+03
   4.5451150e+02   1.6472010e+03
   4.5499370e+02   1.7546710e+03
   4.5547580e+02   1.8745830e+03
   4.5595790e+02   2.0063920e+03
   4.5644000e+02   2.1477360e+03
   4.5692210e+02   2.2993540e+03
   4.5740420e+02   2.4644800e+03
   4.5788640e+02   2.6497430e+03
   4.5836850e+02   2.8519910e+03
   4.5885060e+02   3.0691510e+03
   4.5933270e+02   3.3020720e+03
   4.5981480e+02   3.5441580e+03
   4.6029690e+02   3.7933900e+03
   4.6077910e+02   4.0478160e+03
   4.6126120e+02   4.2931050e+03
   4.6174330e+02   4.5444080e+03
   4.6222540e+02   4.7697230e+03
   4.6270750e+02   4.9457980e+03
   4.6318960e+02   5.0741410e+03
   4.6367180e+02   5.1307550e+03
   4.6415390e+02   5.1031850e+03
   4.6463600e+02   4.9981130e+03
   4.6511810e+02   4.8216670e+03
   4.6560020e+02   4.5398610e+03
   4.6608230e+02   4.2259500e+03
   4.6656450e+02   3.8814770e+03
   4.6704660e+02   3.5163190e+03
   4.6752870e+02   3.1678410e+03
   4.6801080e+02   2.8290610e+03
   4.6849290e+02   2.5182390e+03
   4.6897500e+02   2.2419710e+03
   4.6945720e+02   2.0029580e+03
   4.6993930e+02   1.7912600e+03
   4.7042140e+02   1.6116010e+03
   4.7090350e+02   1.4567580e+03
   4.7138560e+02   1.3204520e+03
   4.7186770e+02   1.2046530e+03
   4.7234990e+02   1.1005630e+03
   4.7283200e+02   1.0051320e+03
   4.7331410e+02   9.1931770e+02
   4.7379620e+02   8.4598380e+02
   4.7427830e+02   7.8591060e+02
   4.7476040e+02   7.3254490e+02
   4.7524260e+02   6.8266520e+02
   4.7572470e+02   6.3618560e+02
   4.7620680e+02   5.9428130e+02
   4.7668890e+02   5.5697050e+02
   4.7717100e+02   5.2290450e+02
   4.7765310e+02   4.9034660e+02
   4.7813530e+02   4.5978550e+02
   4.7861740e+02   4.3270760e+02
   4.7909950e+02   4.1049180e+02
   4.7958160e+02   3.9084660e+02
   4.8006370e+02   3.7168020e+02
   4.8054580e+02   3.5308860e+02
   4.8102800e+02   3.3577230e+02
   4.8151010e+02   3.2080860e+02
   4.8199220e+02   3.0676910e+02
   4.8247430e+02   2.9255350e+02
   4.8295640e+02   2.7776750e+02
   4.8343850e+02   2.6377730e+02
   4.8392070e+02   2.5134400e+02
   4.8440280e+02   2.4002790e+02
   4.8488490e+02   2.2938800e+02
   4.8536700e+02   2.1890910e+02
   4.8584910e+02   2.0973580e+02
   4.8633120e+02   2.0290590e+02
   4.8681340e+02   1.9787010e+02
   4.8729550e+02   1.9166080e+02
   4.8777760e+02   1.8341350e+02
   4.8825970e+02   1.7522400e+02
   4.8874180e+02   1.6780660e+02
   4.8922390e+02   1.6119330e+02
   4.8970610e+02   1.5561710e+02
   4.9018820e+02   1.5137710e+02
   4.9067030e+02   1.4772360e+02
   4.9115240e+02   1.4369490e+02
   4.9163450e+02   1.3915190e+02
   4.9211660e+02   1.3509720e+02
   4.9259880e+02   1.3176840e+02
   4.9308090e+02   1.2888790e+02
   4.9356300e+02   1.2586910e+02
   4.9404510e+02   1.2269480e+02
   4.9452720e+02   1.1948150e+02
   4.9500930e+02   1.1583540e+02
   4.9549150e+02   1.1217210e+02
   4.9597360e+02   1.0956020e+02
   4.9645570e+02   1.0809070e+02
   4.9693780e+02   1.0715760e+02
   4.9741990e+02   1.0679760e+02
   4.9790200e+02   1.0651220e+02
   4.9838420e+02   1.0542990e+02
   4.9886630e+02   1.0239680e+02
   4.9934840e+02   9.9826590e+01
   4.9983050e+02   9.9553570e+01
   5.0031260e+02   1.0088520e+02
   5.0079470e+02   1.0213290e+02
   5.0127690e+02   1.0169960e+02
   5.0175900e+02   1.0191400e+02
   5.0224110e+02   1.0395630e+02
   5.0272320e+02   1.0812660e+02
   5.0320530e+02   1.1292220e+02
   5.0368740e+02   1.1774160e+02
   5.0416960e+02   1.2316000e+02
   5.0465170e+02   1.2966550e+02
   5.0513380e+02   1.3827300e+02
   5.0561590e+02   1.4651100e+02
   5.0609800e+02   1.5441550e+02
   5.0658010e+02   1.6156830e+02
   5.0706230e+02   1.6753570e+02
   5.0754440e+02   1.7303990e+02
   5.0802650e+02   1.7559700e+02
   5.0850860e+02   1.7489250e+02
   5.0899070e+02   1.7068800e+02
   5.0947280e+02   1.5954980e+02
   5.0995500e+02   1.4079720e+02
   5.1043710e+02   1.2018190e+02
   5.1091920e+02   1.0176760e+02
   5.1140130e+02   8.5740500e+01
   5.1188340e+02   7.3203320e+01
   5.1236550e+02   6.4548290e+01
   5.1284770e+02   5.8155540e+01
   5.1332980e+02   5.2649320e+01
   5.1381190e+02   4.7953380e+01
   5.1429400e+02   4.3874210e+01
   5.1477610e+02   4.0039320e+01
   5.1525820e+02   3.6962430e+01
   5.1574040e+02   3.5522770e+01
   5.1622250e+02   3.5451780e+01
   5.1670460e+02   3.4832890e+01
   5.1718670e+02   3.2095150e+01
   5.1766880e+02   2.9052700e+01
   5.1815090e+02   2.6870090e+01
   5.1863310e+02   2.5935360e+01
   5.1911520e+02   2.5235860e+01
   5.1959730e+02   2.5195130e+01
   5.2007940e+02   2.5084750e+01
   5.2056150e+02   2.3948730e+01
   5.2104360e+02   2.0553150e+01
   5.2152580e+02   1.8064700e+01
   5.2200790e+02   1.7236280e+01
   5.2249000e+02   1.7776150e+01
   5.2297210e+02   1.8107030e+01
   5.2345420e+02   1.8211460e+01
   5.2393630e+02   1.7916580e+01
   5.2441850e+02   1.6951260e+01
   5.2490060e+02   1.5337230e+01
   5.2538270e+02   1.4322040e+01
   5.2586480e+02   1.3999150e+01
   5.2634690e+02   1.3781940e+01
   5.2682900e+02   1.2954540e+01
   5.2731120e+02   1.1675230e+01
   5.2779330e+02   1.0486510e+01
   5.2827540e+02   9.4056700e+00
   5.2875750e+02   8.6603470e+00
   5.2923960e+02   8.7950440e+00
   5.2972170e+02   9.5204010e+00
   5.3020390e+02   9.9878080e+00
   5.3068600e+02   9.6273880e+00
   5.3116810e+02   8.9486080e+00
   5.3165020e+02   8.1325300e+00
   5.3213230e+02   7.2014240e+00
   5.3261440e+02   6.6677780e+00
   5.3309660e+02   7.0552220e+00
   5.3357870e+02   7.6944270e+00
   5.3406080e+02   8.1307530e+00
   5.3454290e+02   8.3597030e+00
   5.3502500e+02   8.2661970e+00
   5.3550710e+02   7.5458370e+00
   5.3598930e+02   6.6111600e+00
   5.3647140e+02   6.0990450e+00
   5.3695350e+02   6.2715000e+00
   5.3743560e+02   6.3560260e+00
   5.3791770e+02   6.1340330e+00
   5.3839980e+02   5.6778180e+00
   5.3888200e+02   5.5088040e+00
   5.3936410e+02   5.7065810e+00
   5.3984620e+02   5.8510210e+00
   5.4032830e+02   5.6466290e+00
   5.4081040e+02   5.1432570e+00
   5.4129250e+02   4.5726090e+00
   5.4177470e+02   3.8981860e+00
   5.4225680e+02   3.4926150e+00
   5.4273890e+02   4.0975340e+00
   5.4322100e+02   5.2703090e+00
   5.4370310e+02   5.9653470e+00
   5.4418520e+02   5.8177410e+00
   5.4466740e+02   5.2052610e+00
   5.4514950e+02   4.1477200e+00
   5.4563160e+02   2.8787540e+00
   5.4611370e+02   1.9819640e+00
   5.4659580e+02   1.9502640e+00
   5.4707790e+02   2.1684420e+00
   5.4756010e+02   2.3998030e+00
   5.4804220e+02   2.6340710e+00
   5.4852430e+02   2.6667180e+00
   5.4900640e+02   2.3514560e+00
   5.4948850e+02   1.8974990e+00
   5.4997060e+02   1.4311520e+00
   5.5045280e+02   1.0164030e+00
   5.5093490e+02   4.4934100e-01
   5.5141700e+02   4.8249100e-01
   5.5189910e+02   1.4025270e+00
   5.5238120e+02   1.7180330e+00
   5.5286330e+02   1.3052290e+00
   5.5334550e+02   8.5598800e-01
   5.5382760e+02   5.2200300e-01
   5.5430970e+02   2.5779700e-01
   5.5479180e+02   1.8466200e-01
   5.5527390e+02   8.0297100e-01
   5.5575600e+02   1.0275190e+00
   5.5623820e+02   1.7652100e-01
   5.5672030e+02   1.2450490e+00
   5.5720240e+02   2.1053540e+00
   5.5768450e+02   2.3406220e+00
   5.5816660e+02   2.4184880e+00
   5.5864870e+02   2.5796890e+00
   5.5913090e+02   2.8616940e+00
   5.5961300e+02   3.3875890e+00
   5.6009510e+02   4.5400090e+00
   5.6057720e+02   5.2387850e+00
   5.6105930e+02   4.4367520e+00
   5.6154140e+02   2.9004140e+00
   5.6202360e+02   2.0036930e+00
   5.6250570e+02   3.0259780e+00
   5.6298780e+02   3.7393110e+00
   5.6346990e+02   3.1957930e+00
   5.6395200e+02   1.5724030e+00
   5.6443410e+02   8.0081200e-01
   5.6491630e+02   1.2712940e+00
   5.6539840e+02   2.0415570e+00
   5.6588050e+02   2.8214420e+00
   5.6636260e+02   3.7543110e+00
   5.6684470e+02   3.6501690e+00
   5.6732680e+02   2.2385560e+00
   5.6780900e+02   5.7215100e-01
   5.6829110e+02   5.3790002e-03
   5.6877320e+02   3.5146300e-01
   5.6925530e+02   2.6889800e-01
   5.6973740e+02   7.4373600e-01
   5.7021950e+02   1.8819500e+00
   5.7070170e+02   1.8963470e+00
   5.7118380e+02   1.0714490e+00
   5.7166590e+02   3.1547500e-01
   5.7214800e+02   6.8320997e-02
   5.7263010e+02   7.3867999e-02
   5.7311220e+02   2.1225700e-01
   5.7359440e+02   4.5246900e-01
   5.7407650e+02   5.8517500e-01
   5.7455860e+02   3.2503500e-01
   5.7504070e+02   6.6315003e-02
   5.7552280e+02   4.8119001e-02
   5.7600490e+02   3.5907700e-01
   5.7648710e+02   7.7042400e-01
   5.7696920e+02   1.4240260e+00
   5.7745130e+02   2.0698390e+00
   5.7793340e+02   2.5097960e+00
   5.7841550e+02   2.8358230e+00
   5.7889760e+02   2.6417690e+00
   5.7937980e+02   1.6029740e+00
   5.7986190e+02   2.4453700e-01
   5.8034400e+02   9.5833004e-02
   5.8082610e+02   6.2421400e-01
   5.8130820e+02   1.6518710e+00
   5.8179030e+02   2.9303360e+00
   5.8227250e+02   4.2324680e+00
   5.8275460e+02   4.7753520e+00
   5.8323670e+02   4.6088560e+00
   5.8371880e+02   4.2949370e+00
   5.8420090e+02   3.8460240e+00
   5.8468300e+02   3.6876220e+00
   5.8516520e+02   4.7550200e+00
   5.8564730e+02   7.4541850e+00
   5.8612940e+02   9.4085690e+00
   5.8661150e+02   8.4796750e+00
   5.8709360e+02   6.4230420e+00
   5.8757570e+02   5.0969770e+00
   5.8805780e+02   5.6035460e+00
   5.8853990e+02   6.1321560e+00
   5.8902200e+02   6.3592380e+00
   5.8950420e+02   6.3881990e+00
   5.8998630e+02   6.4506380e+00
   5.9046840e+02   6.4497450e+00
   5.9095050e+02   6.6580120e+00
   5.9143260e+02   7.2395860e+00
   5.9191470e+02   8.1245960e+00
   5.9239690e+02   8.6735080e+00
   5.9287900e+02   8.8101960e+00
   5.9336110e+02   8.9155810e+00
   5.9384320e+02   9.4312130e+00
   5.9432530e+02   1.0197050e+01
   5.9480740e+02   1.0251160e+01
   5.9528960e+02   9.5103450e+00
   5.9577170e+02   8.4916990e+00
   5.9625380e+02   7.3076400e+00
   5.9673590e+02   6.2911380e+00
   5.9721800e+02   6.1438750e+00
   5.9770010e+02   7.4144670e+00
   5.9818230e+02   8.7972870e+00
   5.9866440e+02   9.7232280e+00
   5.9914650e+02   1.0123760e+01
   5.9962860e+02   9.8764650e+00
   6.0011070e+02   8.0431590e+00
   6.0059280e+02   6.4697040e+00
   6.0107500e+02   5.7799760e+00
   6.0155710e+02   5.9244000e+00
   6.0203920e+02   6.2143710e+00
   6.0252130e+02   6.9276660e+00
   6.0300340e+02   7.4058690e+00
   6.0348550e+02   7.2466430e+00
   6.0396770e+02   6.3508150e+00
   6.0444980e+02   6.0793840e+00
   6.0493190e+02   6.6122820e+00
   6.0541400e+02   7.2123790e+00
   6.0589610e+02   7.0659560e+00
   6.0637820e+02   6.3237760e+00
   6.0686040e+02   6.0584950e+00
   6.0734250e+02   6.4806820e+00
   6.0782460e+02   6.9054790e+00
   6.0830670e+02   6.4615170e+00
   6.0878880e+02   5.4910200e+00
   6.0927090e+02   4.6956330e+00
   6.0975310e+02   4.1344830e+00
   6.1023520e+02   4.0385210e+00
   6.1071730e+02   4.9333420e+00
   6.1119940e+02   6.4751430e+00
   6.1168150e+02   7.7197110e+00
   6.1216360e+02   8.4622190e+00
   6.1264580e+02   8.6670760e+00
   6.1312790e+02   8.0409010e+00
   6.1361000e+02   6.5566790e+00
   6.1409210e+02   5.8763050e+00
   6.1457420e+02   6.4902500e+00
   6.1505630e+02   7.1266710e+00
   6.1553850e+02   7.0047760e+00
   6.1602060e+02   5.9012680e+00
   6.1650270e+02   5.5822220e+00
   6.1698480e+02   6.2629470e+00
   6.1746690e+02   6.9652400e+00
   6.1794900e+02   6.3186420e+00
   6.1843120e+02   4.6311720e+00
   6.1891330e+02   3.4782330e+00
   6.1939540e+02   3.2700120e+00
   6.1987750e+02   3.4828190e+00
   6.2035960e+02   3.4570690e+00
   6.2084170e+02   3.3080670e+00
   6.2132390e+02   3.3277510e+00
   6.2180600e+02   3.9202880e+00
   6.2228810e+02   4.4910960e+00
   6.2277020e+02   4.6250690e+00
   6.2325230e+02   4.3730930e+00
   6.2373440e+02   4.0274120e+00
   6.2421660e+02   3.2777180e+00
   6.2469870e+02   2.8608320e+00
   6.2518080e+02   3.3432620e+00
   6.2566290e+02   4.8405910e+00
   6.2614500e+02   5.5502240e+00
   6.2662710e+02   5.0776820e+00
   6.2710930e+02   4.3464890e+00
   6.2759140e+02   4.0387730e+00
   6.2807350e+02   4.1558990e+00
   6.2855560e+02   4.1224670e+00
   6.2903770e+02   3.8731230e+00
   6.2951980e+02   3.5509720e+00
   6.3000200e+02   3.3843460e+00
   6.3048410e+02   3.3325730e+00
   6.3096620e+02   3.2043000e+00
   6.3144830e+02   2.8804700e+00
   6.3193040e+02   2.6236570e+00
   6.3241250e+02   2.8548360e+00
   6.3289470e+02   3.3123170e+00
   6.3337680e+02   3.4882580e+00
   6.3385890e+02   2.9005580e+00
   6.3434100e+02   2.2995760e+00
   6.3482310e+02   1.9484330e+00
   6.3530520e+02   1.8367230e+00
   6.3578740e+02   1.8963700e+00
   6.3626950e+02   2.3698580e+00
   6.3675160e+02   2.7072300e+00
   6.3723370e+02   2.5372090e+00
   6.3771580e+02   1.7616650e+00
   6.3819790e+02   2.0056610e+00
   6.3868010e+02   3.7802960e+00
   6.3916220e+02   5.3563920e+00
   6.3964430e+02   4.8860860e+00
   6.4012640e+02   2.6857070e+00
   6.4060850e+02   1.7790910e+00
   6.4109060e+02   2.5206600e+00
   6.4157280e+02   3.8429260e+00
   6.4205490e+02   5.0261310e+00
   6.4253700e+02   5.9099580e+00
   6.4301910e+02   6.1577680e+00
   6.4350120e+02   5.3926090e+00
   6.4398330e+02   4.5409390e+00
   6.4446550e+02   4.1470410e+00
   6.4494760e+02   4.0736470e+00
   6.4542970e+02   4.0679930e+00
   6.4591180e+02   4.2254030e+00
   6.4639390e+02   4.2697140e+00
   6.4687600e+02   4.1463700e+00
   6.4735820e+02   3.8594210e+00
   6.4784030e+02   3.3661730e+00
   6.4832240e+02   2.4493940e+00
   6.4880450e+02   1.7421040e+00
   6.4928660e+02   1.4652560e+00
   6.4976870e+02   1.5983280e+00
   6.5025090e+02   2.1586910e+00
   6.5073300e+02   3.2212370e+00
   6.5121510e+02   3.9593580e+00
   6.5169720e+02   3.3761140e+00
   6.5217930e+02   2.0628810e+00
   6.5266140e+02   1.5062030e+00
   6.5314360e+02   1.8362350e+00
   6.5362570e+02   2.3699040e+00
   6.5410780e+02   2.7047200e+00
   6.5458990e+02   2.8933030e+00
   6.5507200e+02   3.0185700e+00
   6.5555410e+02   3.2085720e+00
   6.5603630e+02   3.0978700e+00
   6.5651840e+02   2.2041240e+00
   6.5700050e+02   1.0894550e+00
   6.5748260e+02   4.9657400e-01
   6.5796470e+02   7.6756300e-01
   6.5844680e+02   1.0385210e+00
   6.5892900e+02   1.2671970e+00
   6.5941110e+02   1.4027940e+00
   6.5989320e+02   1.2164840e+00
   6.6037530e+02   6.5119900e-01
   6.6085740e+02   3.3711200e-01
   6.6133950e+02   6.2079600e-01
   6.6182170e+02   1.2655330e+00
   6.6230380e+02   1.8475880e+00
   6.6278590e+02   2.3227010e+00
   6.6326800e+02   2.3478010e+00
   6.6375010e+02   1.1041640e+00
   6.6423220e+02   3.0464200e-01
   6.6471440e+02   7.3614500e-01
   6.6519650e+02   1.5183300e-01
   6.6567860e+02   6.1364700e-01
   6.6616070e+02   1.5992510e+00
   6.6664280e+02   2.3430630e+00
   6.6712490e+02   2.5228880e+00
   6.6760710e+02   1.9045260e+00
   6.6808920e+02   1.2410580e+00
   6.6857130e+02   3.1904600e-01
   6.6905340e+02   3.8041700e-01
   6.6953550e+02   3.5387400e-01
   6.7001760e+02   5.7515000e-01
   6.7049980e+02   1.3829730e+00
   6.7098190e+02   1.9758830e+00
   6.7146400e+02   2.4511800e+00
   6.7194610e+02   3.1101070e+00
   6.7242820e+02   3.7915190e+00
   6.7291030e+02   3.7230450e+00
   6.7339250e+02   2.1580730e+00
   6.7387460e+02   5.8393900e-01
   6.7435670e+02   7.5820900e-01
   6.7483880e+02   2.0820850e+00
   6.7532090e+02   3.2526170e+00
   6.7580300e+02   3.7018430e+00
   6.7628520e+02   3.9002990e+00
   6.7676730e+02   3.9127040e+00
   6.7724940e+02   3.8247760e+00
   6.7773150e+02   3.9036940e+00
   6.7821360e+02   4.2326810e+00
   6.7869570e+02   4.6638950e+00
   6.7917790e+02   5.2211150e+00
   6.7966000e+02   5.9286040e+00
   6.8014210e+02   6.1791460e+00
   6.8062420e+02   5.9050370e+00
   6.8110630e+02   5.8232040e+00
   6.8158840e+02   6.5923460e+00
   6.8207060e+02   7.9533160e+00
   6.8255270e+02   9.1008680e+00
   6.8303480e+02   1.0016710e+01
   6.8351690e+02   1.0739560e+01
   6.8399900e+02   1.1172640e+01
   6.8448110e+02   1.1505480e+01
   6.8496330e+02   1.2004050e+01
   6.8544540e+02   1.2833730e+01
   6.8592750e+02   1.3452910e+01
   6.8640960e+02   1.3301480e+01
   6.8689170e+02   1.3012630e+01
   6.8737380e+02   1.3323860e+01
   6.8785600e+02   1.4891590e+01
   6.8833810e+02   1.5897200e+01
   6.8882020e+02   1.5934170e+01
   6.8930230e+02   1.5659330e+01
   6.8978440e+02   1.6203660e+01
   6.9026650e+02   1.7624740e+01
   6.9074870e+02   1.9234180e+01
   6.9123080e+02   2.0942510e+01
   6.9171290e+02   2.2592880e+01
   6.9219500e+02   2.3973760e+01
   6.9267710e+02   2.5178690e+01
   6.9315920e+02   2.6232910e+01
   6.9364140e+02   2.7526050e+01
   6.9412350e+02   2.8593390e+01
   6.9460560e+02   2.8946910e+01
   6.9508770e+02   2.8721320e+01
   6.9556980e+02   2.8458130e+01
   6.9605190e+02   2.8994060e+01
   6.9653410e+02   2.8941670e+01
   6.9701620e+02   2.7413470e+01
   6.9749830e+02   2.4455890e+01
   6.9798040e+02   2.2232510e+01
   6.9846250e+02   2.0933890e+01
   6.9894460e+02   1.9956470e+01
   6.9942680e+02   1.9111510e+01
   6.9990890e+02   1.8361020e+01
   7.0039100e+02   1.7083820e+01
   7.0087310e+02   1.5243350e+01
   7.0135520e+02   1.3339990e+01
   7.0183730e+02   1.1546240e+01
   7.0231950e+02   1.0061710e+01
   7.0280160e+02   9.4553450e+00
   7.0328370e+02   9.9396440e+00
   7.0376580e+02   1.0222470e+01
   7.0424790e+02   9.1692430e+00
   7.0473000e+02   7.7152860e+00
   7.0521220e+02   6.7685320e+00
   7.0569430e+02   7.1083070e+00
   7.0617640e+02   6.9089740e+00
   7.0665850e+02   5.4667660e+00
   7.0714060e+02   3.8263700e+00
   7.0762270e+02   3.3238910e+00
   7.0810490e+02   4.3135530e+00
   7.0858700e+02   5.0181960e+00
   7.0906910e+02   5.1610870e+00
   7.0955120e+02   4.9179690e+00
   7.1003330e+02   4.4378510e+00
   7.1051540e+02   3.7781980e+00
   7.1099760e+02   3.3690570e+00
   7.1147970e+02   3.4332200e+00
   7.1196180e+02   3.6991880e+00
   7.1244390e+02   4.0787960e+00
   7.1292600e+02   4.4403690e+00
   7.1340810e+02   4.4773410e+00
   7.1389030e+02   3.4600750e+00
   7.1437240e+02   2.7045520e+00
   7.1485450e+02   3.0641250e+00
   7.1533660e+02   4.2703400e+00
   7.1581870e+02   4.5512010e+00
   7.1630080e+02   3.4137120e+00
   7.1678300e+02   2.1548000e+00
   7.1726510e+02   9.8572500e-01
   7.1774720e+02   8.7810000e-03
   7.1822930e+02   4.6867400e-01
   7.1871140e+02   2.4766010e+00
   7.1919350e+02   4.1193770e+00
   7.1967570e+02   3.7401500e+00
   7.2015780e+02   2.2946240e+00
   7.2063990e+02   1.5363310e+00
   7.2112200e+02   1.5050960e+00
   7.2160410e+02   1.7577820e+00
   7.2208620e+02   2.3707580e+00
   7.2256840e+02   2.8690640e+00
   7.2305050e+02   2.8814090e+00
   7.2353260e+02   2.2133560e+00
   7.2401470e+02   1.6798400e+00
   7.2449680e+02   1.3115770e+00
   7.2497890e+02   1.1772840e+00
   7.2546110e+02   1.4682690e+00
   7.2594320e+02   2.5233690e+00
   7.2642530e+02   2.4252170e+00
   7.2690740e+02   7.6223800e-01
   7.2738950e+02   9.0621200e-01
   7.2787160e+02   4.4359600e-01
   7.2835380e+02   1.5166020e+00
   7.2883590e+02   2.3556820e+00
   7.2931800e+02   1.4609600e+00
   7.2980010e+02   2.7936600e-01
   7.3028220e+02   1.0673500e-01
   7.3076430e+02   4.6120500e-01
   7.3124650e+02   6.8960600e-01
   7.3172860e+02   3.8961800e-01
   7.3221070e+02   2.8212000e-01
   7.3269280e+02   9.3644700e-01
   7.3317490e+02   1.7659000e+00
   7.3365700e+02   1.8197170e+00
   7.3413920e+02   4.9243900e-01
   7.3462130e+02   2.0335400e-01
   7.3510340e+02   2.4978600e-01
   7.3558550e+02   1.1888200e+00
   7.3606760e+02   1.0750120e+00
   7.3654970e+02   7.0199999e-04
   7.3703190e+02   5.6863400e-01
   7.3751400e+02   9.7815998e-02
   7.3799610e+02   1.1759720e+00
   7.3847820e+02   1.6589130e+00
   7.3896030e+02   1.6816330e+00
   7.3944240e+02   1.5908050e+00
   7.3992460e+02   1.4629210e+00
   7.4040670e+02   1.3376770e+00
   7.4088880e+02   1.2840960e+00
   7.4137090e+02   1.2640530e+00
   7.4185300e+02   1.0844570e+00
   7.4233510e+02   5.8153500e-01
   7.4281730e+02   1.6088100e-01
   7.4329940e+02   7.3317997e-02
   7.4378150e+02   1.3491100e-01
   7.4426360e+02   5.4832000e-02
   7.4474570e+02   1.7933700e-01
   7.4522780e+02   3.8011200e-01
   7.4571000e+02   3.8903000e-01
   7.4619210e+02   3.0847200e-01
   7.4667420e+02   2.6492300e-01
   7.4715630e+02   2.8129600e-01
   7.4763840e+02   5.0822400e-01
   7.4812050e+02   1.7089840e+00
   7.4860270e+02   2.6147770e+00
   7.4908480e+02   1.9282990e+00
   7.4956690e+02   4.9604800e-01
   7.5004900e+02   1.7684780e+00
   7.5053110e+02   4.5268200e-01
   7.5101320e+02   8.6075600e-01
   7.5149540e+02   8.5109700e-01
   7.5197750e+02   6.2903600e-01
   7.5245960e+02   1.2232210e+00
   7.5294170e+02   8.0005600e-01
   7.5342380e+02   1.6387200e-01
   7.5390590e+02   1.3780200e-01
   7.5438810e+02   1.5913400e-01
   7.5487020e+02   4.7759999e-02
   7.5535230e+02   4.8319200e-01
   7.5583440e+02   7.9093900e-01
   7.5631650e+02   7.3871600e-01
   7.5679860e+02   4.1677100e-01
   7.5728080e+02   2.0051600e-01
   7.5776290e+02   1.3179550e+00
   7.5824500e+02   1.9836270e+00
   7.5872710e+02   1.6700820e+00
   7.5920920e+02   1.1679920e+00
   7.5969130e+02   1.0626220e+00
   7.6017350e+02   1.5456920e+00
   7.6065560e+02   1.5586240e+00
   7.6113770e+02   9.6186800e-01
   7.6161980e+02   2.5392200e-01
   7.6210190e+02   8.4220998e-02
   7.6258400e+02   8.5395999e-02
   7.6306620e+02   2.3188000e-01
   7.6354830e+02   9.2649800e-01
   7.6403040e+02   1.5928340e+00
   7.6451250e+02   1.9106750e+00
   7.6499460e+02   1.9881440e+00
   7.6547670e+02   1.9463730e+00
   7.6595890e+02   1.8298340e+00
   7.6644100e+02   1.5580370e+00
   7.6692310e+02   6.0376700e-01
   7.6740520e+02   1.9177200e-01
   7.6788730e+02   2.6850900e-01
   7.6836940e+02   2.5230480e+00
   7.6885160e+02   3.8359990e+00
   7.6933370e+02   3.7468490e+00
   7.6981580e+02   3.0243000e+00
   7.7029790e+02   2.7747190e+00
   7.7078000e+02   2.8558730e+00
   7.7126210e+02   2.6971890e+00
   7.7174430e+02   1.9934390e+00
   7.7222640e+02   1.3951260e+00
   7.7270850e+02   1.6849980e+00
   7.7319060e+02   2.3729020e+00
   7.7367270e+02   2.7276080e+00
   7.7415480e+02   1.8732380e+00
   7.7463700e+02   1.5062870e+00
   7.7511910e+02   2.2246250e+00
   7.7560120e+02   3.4265980e+00
   7.7608330e+02   4.2102580e+00
   7.7656540e+02   4.4781190e+00
   7.7704750e+02   4.7602540e+00
   7.7752970e+02   5.2239460e+00
   7.7801180e+02   5.6362840e+00
   7.7849390e+02   5.4485400e+00
   7.7897600e+02   4.8181530e+00
   7.7945810e+02   4.3189700e+00
   7.7994020e+02   4.0834430e+00
   7.8042240e+02   4.1693950e+00
   7.8090450e+02   4.8523940e+00
   7.8138660e+02   5.8542100e+00
   7.8186870e+02   6.6484830e+00
   7.8235080e+02   6.9214170e+00
   7.8283290e+02   7.1737060e+00
   7.8331510e+02   7.5287170e+00
   7.8379720e+02   7.9110570e+00
   7.8427930e+02   8.1446460e+00
   7.8476140e+02   8.2004320e+00
   7.8524350e+02   8.1625900e+00
   7.8572560e+02   8.1037370e+00
   7.8620770e+02   8.1635890e+00
   7.8668980e+02   8.4839780e+00
   7.8717190e+02   9.1029510e+00
   7.8765410e+02   1.0127100e+01
   7.8813620e+02   1.2345030e+01
   7.8861830e+02   1.4296260e+01
   7.8910040e+02   1.4285550e+01
   7.8958250e+02   1.3240330e+01
   7.9006460e+02   1.3486090e+01
   7.9054680e+02   1.7075570e+01
   7.9102890e+02   2.0148020e+01
   7.9151100e+02   2.1730120e+01
   7.9199310e+02   2.2328900e+01
   7.9247520e+02   2.3352550e+01
   7.9295730e+02   2.4866480e+01
   7.9343950e+02   2.6650780e+01
   7.9392160e+02   2.8706290e+01
   7.9440370e+02   3.0940200e+01
   7.9488580e+02   3.3275220e+01
   7.9536790e+02   3.5712550e+01
   7.9585000e+02   3.7869980e+01
   7.9633220e+02   3.9004230e+01
   7.9681430e+02   4.0401210e+01
   7.9729640e+02   4.3142430e+01
   7.9777850e+02   4.6804500e+01
   7.9826060e+02   4.9735380e+01
   7.9874270e+02   5.1043530e+01
   7.9922490e+02   5.2703690e+01
   7.9970700e+02   5.5066900e+01
   8.0018910e+02   5.8129850e+01
   8.0067120e+02   6.2149080e+01
   8.0115330e+02   6.7116130e+01
   8.0163540e+02   7.2055490e+01
   8.0211760e+02   7.5971670e+01
   8.0259970e+02   8.0216970e+01
   8.0308180e+02   8.7522050e+01
   8.0356390e+02   9.6932880e+01
   8.0404600e+02   1.0554120e+02
   8.0452810e+02   1.1073240e+02
   8.0501030e+02   1.1613820e+02
   8.0549240e+02   1.2442880e+02
   8.0597450e+02   1.3449090e+02
   8.0645660e+02   1.4149480e+02
   8.0693870e+02   1.4432030e+02
   8.0742080e+02   1.4635200e+02
   8.0790300e+02   1.4904460e+02
   8.0838510e+02   1.5140100e+02
   8.0886720e+02   1.4956590e+02
   8.0934930e+02   1.4374760e+02
   8.0983140e+02   1.3605060e+02
   8.1031350e+02   1.2707560e+02
   8.1079570e+02   1.1721080e+02
   8.1127780e+02   1.0618870e+02
   8.1175990e+02   9.4517220e+01
   8.1224200e+02   8.3688860e+01
   8.1272410e+02   7.3794310e+01
   8.1320620e+02   6.5308520e+01
   8.1368840e+02   5.8846390e+01
   8.1417050e+02   5.3865150e+01
   8.1465260e+02   4.8739030e+01
   8.1513470e+02   4.3236080e+01
   8.1561680e+02   3.8378370e+01
   8.1609890e+02   3.4513240e+01
   8.1658110e+02   3.1398830e+01
   8.1706320e+02   2.8539030e+01
   8.1754530e+02   2.5951840e+01
   8.1802740e+02   2.3760470e+01
   8.1850950e+02   2.2156300e+01
   8.1899160e+02   2.0839540e+01
   8.1947380e+02   1.9597860e+01
   8.1995590e+02   1.8485610e+01
   8.2043800e+02   1.7690120e+01
   8.2092010e+02   1.7952900e+01
   8.2140220e+02   1.7573710e+01
   8.2188430e+02   1.5979050e+01
   8.2236650e+02   1.3724900e+01
   8.2284860e+02   1.2349210e+01
   8.2333070e+02   1.1889350e+01
   8.2381280e+02   1.1380640e+01
   8.2429490e+02   1.0350780e+01
   8.2477700e+02   9.3352200e+00
   8.2525920e+02   9.4407270e+00
   8.2574130e+02   1.0179670e+01
   8.2622340e+02   1.0337200e+01
   8.2670550e+02   8.7350080e+00
   8.2718760e+02   7.1982880e+00
   8.2766970e+02   6.2682570e+00
   8.2815190e+02   5.9266510e+00
   8.2863400e+02   6.0800630e+00
   8.2911610e+02   7.0401690e+00
   8.2959820e+02   7.7681430e+00
   8.3008030e+02   8.1150890e+00
   8.3056240e+02   8.0822830e+00
   8.3104460e+02   7.3661040e+00
   8.3152670e+02   6.1699370e+00
   8.3200880e+02   5.5836410e+00
   8.3249090e+02   6.2622830e+00
   8.3297300e+02   7.1269680e+00
   8.3345510e+02   7.1870270e+00
   8.3393730e+02   6.7842330e+00
   8.3441940e+02   6.4701460e+00
   8.3490150e+02   6.3648070e+00
   8.3538360e+02   6.4099500e+00
   8.3586570e+02   6.7503810e+00
   8.3634780e+02   7.1203770e+00
   8.3683000e+02   6.9535980e+00
   8.3731210e+02   6.1306300e+00
   8.3779420e+02   6.0939940e+00
   8.3827630e+02   7.3307570e+00
   8.3875840e+02   8.7139970e+00
   8.3924050e+02   8.4922180e+00
   8.3972270e+02   7.3064420e+00
   8.4020480e+02   6.4420090e+00
   8.4068690e+02   6.2648930e+00
   8.4116900e+02   6.4277730e+00
   8.4165110e+02   7.0637050e+00
   8.4213320e+02   7.8055730e+00
   8.4261540e+02   8.2135470e+00
   8.4309750e+02   8.2342300e+00
   8.4357960e+02   7.9615330e+00
   8.4406170e+02   7.2311330e+00
   8.4454380e+02   6.5220640e+00
   8.4502590e+02   6.6185530e+00
   8.4550810e+02   7.3092650e+00
   8.4599020e+02   7.4323580e+00
   8.4647230e+02   6.7181630e+00
   8.4695440e+02   6.0535280e+00
   8.4743650e+02   6.4045870e+00
   8.4791860e+02   7.1215520e+00
   8.4840080e+02   7.5016780e+00
   8.4888290e+02   7.3590550e+00
   8.4936500e+02   7.0395660e+00
   8.4984710e+02   6.5028150e+00
   8.5032920e+02   5.9030910e+00
   8.5081130e+02   5.3152010e+00
   8.5129350e+02   4.7213970e+00
   8.5177560e+02   4.2836760e+00
   8.5225770e+02   3.9886860e+00
   8.5273980e+02   4.0014570e+00
   8.5322190e+02   4.9852220e+00
   8.5370400e+02   6.1687160e+00
   8.5418620e+02   6.0415120e+00
   8.5466830e+02   4.3710330e+00
   8.5515040e+02   3.1462630e+00
   8.5563250e+02   3.7579420e+00
   8.5611460e+02   4.7446140e+00
   8.5659670e+02   5.1817630e+00
   8.5707890e+02   5.0073930e+00
   8.5756100e+02   4.7808910e+00
   8.5804310e+02   4.5405200e+00
   8.5852520e+02   4.1344220e+00
   8.5900730e+02   3.1350020e+00
   8.5948940e+02   1.8917770e+00
   8.5997160e+02   1.9631730e+00
   8.6045370e+02   3.2124630e+00
   8.6093580e+02   4.1275630e+00
   8.6141790e+02   3.4659500e+00
   8.6190000e+02   2.3566510e+00
   8.6238210e+02   1.5640790e+00
   8.6286430e+02   1.1170200e+00
   8.6334640e+02   4.7560100e-01
   8.6382850e+02   9.0101600e-01
   8.6431060e+02   1.5914920e+00
   8.6479270e+02   7.6567800e-01
   8.6527480e+02   1.0916820e+00
   8.6575700e+02   1.6353380e+00
   8.6623910e+02   9.3188500e-01
   8.6672120e+02   4.4280998e-02
   8.6720330e+02   6.8983500e-01
   8.6768540e+02   1.1667940e+00
   8.6816750e+02   1.1634290e+00
   8.6864970e+02   8.1663500e-01
   8.6913180e+02   5.1659400e-01
   8.6961390e+02   4.7193900e-01
   8.7009600e+02   3.8893900e-01
   8.7057810e+02   1.5274800e-01
   8.7106020e+02   1.5247300e-01
   8.7154240e+02   2.8245500e-01
   8.7202450e+02   2.0726800e-01
   8.7250660e+02   2.7298000e-01
   8.7298870e+02   6.5262600e-01
   8.7347080e+02   1.0584640e+00
   8.7395290e+02   8.7287100e-01
   8.7443510e+02   3.9920800e-01
   8.7491720e+02   3.1374400e-01
   8.7539930e+02   1.1475830e+00
   8.7588140e+02   1.9474950e+00
   8.7636350e+02   2.6106640e+00
   8.7684560e+02   2.9082950e+00
   8.7732780e+02   2.4331820e+00
   8.7780990e+02   6.2039200e-01
   8.7829200e+02   1.0738400e-01
   8.7877410e+02   7.3907500e-01
   8.7925620e+02   2.0267260e+00
   8.7973830e+02   2.2547910e+00
   8.8022050e+02   1.7656400e+00
   8.8070260e+02   1.5417180e+00
   8.8118470e+02   1.7964860e+00
   8.8166680e+02   2.0919880e+00
   8.8214890e+02   2.0691910e+00
   8.8263100e+02   1.9949040e+00
   8.8311320e+02   2.0970920e+00
   8.8359530e+02   2.3943020e+00
   8.8407740e+02   2.9792790e+00
   8.8455950e+02   4.1438370e+00
   8.8504160e+02   5.0434880e+00
   8.8552370e+02   4.7718050e+00
   8.8600590e+02   3.5791400e+00
   8.8648800e+02   3.1201480e+00
   8.8697010e+02   3.4125140e+00
   8.8745220e+02   3.7434620e+00
   8.8793430e+02   3.3853910e+00
   8.8841640e+02   3.0456700e+00
   8.8889860e+02   3.2516330e+00
   8.8938070e+02   4.0863040e+00
   8.8986280e+02   4.9308930e+00
   8.9034490e+02   6.0837100e+00
   8.9082700e+02   6.6464310e+00
   8.9130910e+02   5.9979780e+00
   8.9179130e+02   4.4907070e+00
   8.9227340e+02   4.1888200e+00
   8.9275550e+02   5.0359340e+00
   8.9323760e+02   5.7670900e+00
   8.9371970e+02   5.4899370e+00
   8.9420180e+02   4.9509580e+00
   8.9468400e+02   4.9188080e+00
   8.9516610e+02   5.2630840e+00
   8.9564820e+02   5.6212920e+00
   8.9613030e+02   6.1205370e+00
   8.9661240e+02   6.3109590e+00
   8.9709450e+02   6.0426330e+00
   8.9757670e+02   5.4602740e+00
   8.9805880e+02   4.8337250e+00
   8.9854090e+02   4.1487430e+00
   8.9902300e+02   3.5612560e+00
   8.9950510e+02   3.0740810e+00
   8.9998720e+02   2.8349460e+00
   9.0046940e+02   2.9620970e+00
   9.0095150e+02   3.3054660e+00
   9.0143360e+02   3.4768070e+00
   9.0191570e+02   3.1301270e+00
   9.0239780e+02   3.0806050e+00
   9.0287990e+02   4.0949170e+00
   9.0336210e+02   5.1164250e+00
   9.0384420e+02   5.0927580e+00
   9.0432630e+02   3.7316280e+00
   9.0480840e+02   3.1529390e+00
   9.0529050e+02   3.5557250e+00
   9.0577260e+02   4.0910490e+00
   9.0625480e+02   3.7325900e+00
   9.0673690e+02   3.0382770e+00
   9.0721900e+02   2.9985660e+00
   9.0770110e+02   3.7303090e+00
   9.0818320e+02   4.4500810e+00
   9.0866530e+02   5.2934570e+00
   9.0914750e+02   5.5470660e+00
   9.0962960e+02   4.5855100e+00
   9.1011170e+02   2.4513700e+00
   9.1059380e+02   1.1137470e+00
   9.1107590e+02   6.2846400e-01
   9.1155800e+02   7.0554400e-01
   9.1204020e+02   1.4465640e+00
   9.1252230e+02   2.5081180e+00
   9.1300440e+02   3.2665790e+00
   9.1348650e+02   3.7443390e+00
   9.1396860e+02   3.9815900e+00
   9.1445070e+02   3.8783800e+00
   9.1493290e+02   3.6675030e+00
   9.1541500e+02   3.3745500e+00
   9.1589710e+02   3.1127780e+00
   9.1637920e+02   3.0158840e+00
   9.1686130e+02   3.1708450e+00
   9.1734340e+02   3.2111360e+00
   9.1782560e+02   2.9639740e+00
   9.1830770e+02   2.7670440e+00
   9.1878980e+02   3.4110870e+00
   9.1927190e+02   4.5554350e+00
   9.1975400e+02   5.3936310e+00
   9.2023610e+02   5.6994170e+00
   9.2071830e+02   5.6686550e+00
   9.2120040e+02   5.1787030e+00
   9.2168250e+02   4.4625550e+00
   9.2216460e+02   3.7351530e+00
   9.2264670e+02   2.8794860e+00
   9.2312880e+02   2.7537840e+00
   9.2361100e+02   3.5314480e+00
   9.2409310e+02   4.3778920e+00
   9.2457520e+02   4.4259030e+00
   9.2505730e+02   3.9383160e+00
   9.2553940e+02   3.4991680e+00
   9.2602150e+02   3.1718670e+00
   9.2650370e+02   2.9538730e+00
   9.2698580e+02   3.1043550e+00
   9.2746790e+02   3.1483990e+00
   9.2795000e+02   2.6008000e+00
   9.2843210e+02   1.5457080e+00
   9.2891420e+02   1.2381590e+00
   9.2939640e+02   1.9256210e+00
   9.2987850e+02   2.4306870e+00
   9.3036060e+02   2.1974490e+00
   9.3084270e+02   1.5357440e+00
   9.3132480e+02   9.7271700e-01
   9.3180690e+02   5.6092100e-01
   9.3228910e+02   4.7280900e-01
   9.3277120e+02   1.2757260e+00
   9.3325330e+02   1.8720630e+00
   9.3373540e+02   1.4855650e+00
   9.3421750e+02   6.8028300e-01
   9.3469960e+02   6.4791900e-01
   9.3518180e+02   1.7856290e+00
   9.3566390e+02   2.2257310e+00
   9.3614600e+02   1.5806050e+00
   9.3662810e+02   6.6805300e-01
   9.3711020e+02   6.9950100e-01
   9.3759230e+02   1.2504430e+00
   9.3807450e+02   1.3573530e+00
   9.3855660e+02   7.4751300e-01
   9.3903870e+02   1.6746500e-01
   9.3952080e+02   3.6331002e-02
   9.4000290e+02   1.9623000e-02
   9.4048500e+02   1.2248200e-01
   9.4096720e+02   2.6537300e-01
   9.4144930e+02   7.6591500e-01
   9.4193140e+02   1.8956380e+00
   9.4241350e+02   2.6196900e+00
   9.4289560e+02   1.8036350e+00
   9.4337770e+02   2.5267000e-01
   9.4385990e+02   1.0571300e-01
   9.4434200e+02   5.5009500e-01
   9.4482410e+02   9.7230500e-01
   9.4530620e+02   2.2200800e-01
   9.4578830e+02   1.0637740e+00
   9.4627040e+02   5.8212001e-02
   9.4675260e+02   1.9328610e+00
   9.4723470e+02   2.3901140e+00
   9.4771680e+02   9.9795500e-01
   9.4819890e+02   2.2081800e-01
   9.4868100e+02   8.8326300e-01
   9.4916310e+02   2.0415340e+00
   9.4964530e+02   2.4104460e+00
   9.5012740e+02   2.2611390e+00
   9.5060950e+02   2.0896840e+00
   9.5109160e+02   2.0678790e+00
   9.5157370e+02   1.9515990e+00
   9.5205580e+02   1.3770370e+00
   9.5253800e+02   9.0194700e-01
   9.5302010e+02   1.0434800e+00
   9.5350220e+02   1.9178310e+00
   9.5398430e+02   2.5011440e+00
   9.5446640e+02   2.7535710e+00
   9.5494850e+02   2.8664170e+00
   9.5543070e+02   3.2932280e+00
   9.5591280e+02   3.5321120e+00
   9.5639490e+02   2.5011600e+00
   9.5687700e+02   3.4050800e-01
   9.5735910e+02   8.7826500e-01
   9.5784120e+02   5.1221500e-01
   9.5832340e+02   1.8570630e+00
   9.5880550e+02   2.2964100e+00
   9.5928760e+02   2.0462570e+00
   9.5976970e+02   1.9213030e+00
   9.6025180e+02   1.9216080e+00
   9.6073390e+02   1.8777470e+00
   9.6121610e+02   1.7163090e+00
   9.6169820e+02   1.5059050e+00
   9.6218030e+02   1.1706470e+00
   9.6266240e+02   9.0927100e-01
   9.6314450e+02   9.7724900e-01
   9.6362660e+02   1.7523730e+00
   9.6410880e+02   2.3389890e+00
   9.6459090e+02   2.7897190e+00
   9.6507300e+02   2.9471590e+00
   9.6555510e+02   2.4407650e+00
   9.6603720e+02   1.3896560e+00
   9.6651930e+02   9.1004200e-01
   9.6700150e+02   1.0872570e+00
   9.6748360e+02   1.4541020e+00
   9.6796570e+02   1.7635500e+00
   9.6844780e+02   2.0180440e+00
   9.6892990e+02   2.2888790e+00
   9.6941200e+02   2.5664140e+00
   9.6989420e+02   2.4267200e+00
   9.7037630e+02   1.5413590e+00
   9.7085840e+02   9.4780000e-01
   9.7134050e+02   1.2159960e+00
   9.7182260e+02   1.8604890e+00
   9.7230470e+02   1.2706220e+00
   9.7278690e+02   1.9724300e-01
   9.7326900e+02   1.0658570e+00
   9.7375110e+02   2.7033200e-01
   9.7423320e+02   6.0907000e-01
   9.7471530e+02   4.9098200e-01
   9.7519740e+02   2.3331000e-02
   9.7567960e+02   2.1564500e-01
   9.7616170e+02   1.6133190e+00
   9.7664380e+02   2.0873110e+00
   9.7712590e+02   1.3498310e+00
   9.7760800e+02   3.4271200e-01
   9.7809010e+02   3.6628999e-02
   9.7857230e+02   1.7794800e-01
   9.7905440e+02   2.5688200e-01
   9.7953650e+02   2.2734100e-01
   9.8001860e+02   2.5623300e-01
   9.8050070e+02   5.1515200e-01
   9.8098280e+02   7.6287800e-01
   9.8146500e+02   9.1033900e-01
   9.8194710e+02   9.5085100e-01
   9.8242910e+02   7.3262000e-01
   9.8291130e+02   2.0223200e-01
   9.8339340e+02   6.4423002e-02
   9.8387550e+02   8.2202100e-01
   9.8435760e+02   1.7768550e+00
   9.8483970e+02   2.0731050e+00
   9.8532180e+02   1.8733140e+00
   9.8580400e+02   1.4645000e+00
   9.8628610e+02   4.2342400e-01
   9.8676820e+02   3.5583001e-02
   9.8725030e+02   5.6005100e-01
   9.8773240e+02   1.3897090e+00
   9.8821450e+02   1.5108870e+00
   9.8869670e+02   9.7738600e-01
   9.8917880e+02   9.2523200e-01
   9.8966090e+02   1.4417420e+00
   9.9014300e+02   1.9463420e+00
   9.9062510e+02   2.0667800e+00
   9.9110720e+02   1.9071500e+00
   9.9158940e+02   1.3415830e+00
   9.9207150e+02   4.2240100e-01
   9.9255360e+02   1.6942600e-01
   9.9303570e+02   1.0322800e+00
   9.9351780e+02   1.6846390e+00
   9.9399990e+02   1.5901410e+00
   9.9448210e+02   1.1253970e+00
   9.9496420e+02   1.2985840e+00
   9.9544630e+02   1.8998640e+00
   9.9592840e+02   2.2171480e+00
   9.9641050e+02   1.9850540e+00
   9.9689260e+02   1.4341130e+00
   9.9737480e+02   2.3003001e-02
   9.9785690e+02   1.2524720e+00
   9.9833900e+02   1.1476060e+00
   9.9882110e+02   1.1257100e+00
   9.9930320e+02   1.7838900e+00
   9.9978530e+02   4.9237800e-01
   1.0002670e+03   9.0515900e-01
   1.0007500e+03   4.7624200e-01
   1.0012320e+03   7.0300300e-01
   1.0017140e+03   7.1724700e-01
   1.0021960e+03   3.1636800e-01
   1.0026780e+03   8.7213100e-01
   1.0031600e+03   3.8874800e-01
   1.0036420e+03   1.2659070e+00
   1.0041240e+03   1.0419080e+00
   1.0046070e+03   1.3315600e-01
   1.0050890e+03   1.7002900e-01
   1.0055710e+03   1.0546100e-01
   1.0060530e+03   4.6660600e-01
   1.0065350e+03   8.1826000e-01
   1.0070170e+03   1.0981060e+00
   1.0074990e+03   1.1941450e+00
   1.0079810e+03   1.2180250e+00
   1.0084630e+03   1.2882000e+00
   1.0089460e+03   1.3800660e+00
   1.0094280e+03   1.7318500e+00
   1.0099100e+03   2.6539990e+00
   1.0103920e+03   3.1970290e+00
   1.0108740e+03   2.2278670e+00
   1.0113560e+03   3.6523400e-01
   1.0118380e+03   1.7226400e-01
   1.0123200e+03   1.3647000e+00
   1.0128020e+03   2.2911000e+00
   1.0132850e+03   1.8046040e+00
   1.0137670e+03   1.0817340e+00
   1.0142490e+03   6.0173800e-01
   1.0147310e+03   3.1703900e-01
   1.0152130e+03   4.1000001e-02
   1.0156950e+03   1.2883800e-01
   1.0161770e+03   2.2803999e-02
   1.0166590e+03   4.4323000e-01
   1.0171420e+03   1.0071560e+00
   1.0176240e+03   1.5419310e+00
   1.0181060e+03   1.8802570e+00
   1.0185880e+03   1.7021480e+00
   1.0190700e+03   8.5524700e-01
   1.0195520e+03   1.5660100e-01
   1.0200340e+03   3.8317900e-01
   1.0205160e+03   5.2156100e-01
   1.0209980e+03   2.6700001e-03
   1.0214810e+03   1.0243150e+00
   1.0219630e+03   1.6738820e+00
   1.0224450e+03   1.9745250e+00
   1.0229270e+03   2.0524980e+00
   1.0234090e+03   1.6248320e+00
   1.0238910e+03   1.3965150e+00
   1.0243730e+03   2.2196200e+00
   1.0248550e+03   3.4369510e+00
   1.0253380e+03   3.8461230e+00
   1.0258200e+03   3.0661770e+00
   1.0263020e+03   2.4148640e+00
   1.0267840e+03   1.9431380e+00
   1.0272660e+03   1.7025150e+00
   1.0277480e+03   1.8439870e+00
   1.0282300e+03   2.2189790e+00
   1.0287120e+03   2.5154040e+00
   1.0291940e+03   2.7203600e+00
   1.0296770e+03   3.1127400e+00
   1.0301590e+03   4.4879840e+00
   1.0306410e+03   5.2183990e+00
   1.0311230e+03   4.4392620e+00
   1.0316050e+03   2.7925870e+00
   1.0320870e+03   2.1946720e+00
   1.0325690e+03   2.5536580e+00
   1.0330510e+03   2.6772000e+00
   1.0335340e+03   2.0884400e+00
   1.0340160e+03   1.5131150e+00
   1.0344980e+03   1.7200390e+00
   1.0349800e+03   2.2485960e+00
   1.0354620e+03   2.5009000e+00
   1.0359440e+03   2.1194380e+00
   1.0364260e+03   2.3964310e+00
   1.0369080e+03   3.6903990e+00
   1.0373910e+03   4.6306080e+00
   1.0378730e+03   3.7252500e+00
   1.0383550e+03   1.8813780e+00
   1.0388370e+03   1.6596830e+00
   1.0393190e+03   2.7048570e+00
   1.0398010e+03   3.3922500e+00
   1.0402830e+03   2.4362640e+00
   1.0407650e+03   1.6157150e+00
   1.0412470e+03   1.6235050e+00
   1.0417290e+03   2.0593720e+00
   1.0422120e+03   2.2748110e+00
   1.0426940e+03   2.2659990e+00
   1.0431760e+03   2.1133420e+00
   1.0436580e+03   1.8003690e+00
   1.0441400e+03   1.5341870e+00
   1.0446220e+03   1.3665770e+00
   1.0451040e+03   1.4459920e+00
   1.0455860e+03   1.9911880e+00
   1.0460690e+03   3.0661240e+00
   1.0465510e+03   3.7451630e+00
   1.0470330e+03   3.9119260e+00
   1.0475150e+03   3.8804400e+00
   1.0479970e+03   3.6676860e+00
   1.0484790e+03   3.4497760e+00
   1.0489610e+03   3.8509220e+00
   1.0494430e+03   4.5487980e+00
   1.0499260e+03   4.6724170e+00
   1.0504080e+03   3.4378590e+00
   1.0508900e+03   2.4645540e+00
   1.0513720e+03   2.2443240e+00
   1.0518540e+03   2.5561070e+00
   1.0523360e+03   3.3281560e+00
   1.0528180e+03   4.5937270e+00
   1.0533000e+03   6.0781330e+00
   1.0537820e+03   7.7834930e+00
   1.0542650e+03   8.5245130e+00
   1.0547470e+03   6.1525960e+00
   1.0552290e+03   3.5585560e+00
   1.0557110e+03   3.4958570e+00
   1.0561930e+03   5.3729020e+00
   1.0566750e+03   6.4753420e+00
   1.0571570e+03   6.1757350e+00
   1.0576390e+03   5.9081420e+00
   1.0581210e+03   5.8140870e+00
   1.0586040e+03   5.8924790e+00
   1.0590860e+03   5.8455120e+00
   1.0595680e+03   5.8941960e+00
   1.0600500e+03   6.7432630e+00
   1.0605320e+03   8.6129300e+00
   1.0610140e+03   1.0127600e+01
   1.0614960e+03   1.0382070e+01
   1.0619780e+03   1.0320830e+01
   1.0624610e+03   1.0229390e+01
   1.0629430e+03   1.0155030e+01
   1.0634250e+03   1.0423530e+01
   1.0639070e+03   1.1003040e+01
   1.0643890e+03   1.1576170e+01
   1.0648710e+03   1.1869060e+01
   1.0653530e+03   1.2433140e+01
   1.0658350e+03   1.3961170e+01
   1.0663180e+03   1.5791050e+01
   1.0668000e+03   1.7155740e+01
   1.0672820e+03   1.7778240e+01
   1.0677640e+03   1.8734970e+01
   1.0682460e+03   2.0030240e+01
   1.0687280e+03   2.1595300e+01
   1.0692100e+03   2.3524930e+01
   1.0696920e+03   2.5601530e+01
   1.0701740e+03   2.7473520e+01
   1.0706560e+03   2.9182050e+01
   1.0711390e+03   3.0974670e+01
   1.0716210e+03   3.2814540e+01
   1.0721030e+03   3.4985500e+01
   1.0725850e+03   3.7583630e+01
   1.0730670e+03   4.0400580e+01
   1.0735490e+03   4.3154270e+01
   1.0740310e+03   4.5909480e+01
   1.0745130e+03   4.9145800e+01
   1.0749960e+03   5.2854460e+01
   1.0754780e+03   5.6919730e+01
   1.0759600e+03   6.1166550e+01
   1.0764420e+03   6.5821690e+01
   1.0769240e+03   7.0925680e+01
   1.0774060e+03   7.6550580e+01
   1.0778880e+03   8.3086300e+01
   1.0783700e+03   9.0621200e+01
   1.0788530e+03   9.7857980e+01
   1.0793350e+03   1.0419790e+02
   1.0798170e+03   1.1015520e+02
   1.0802990e+03   1.1765350e+02
   1.0807810e+03   1.2462240e+02
   1.0812630e+03   1.2816920e+02
   1.0817450e+03   1.2686370e+02
   1.0822270e+03   1.2443450e+02
   1.0827090e+03   1.2125940e+02
   1.0831920e+03   1.1607590e+02
   1.0836740e+03   1.0736270e+02
   1.0841560e+03   9.6245960e+01
   1.0846380e+03   8.4573490e+01
   1.0851200e+03   7.2894330e+01
   1.0856020e+03   6.2770740e+01
   1.0860840e+03   5.5241490e+01
   1.0865660e+03   4.8789720e+01
   1.0870480e+03   4.3180170e+01
   1.0875310e+03   3.8231040e+01
   1.0880130e+03   3.3845940e+01
   1.0884950e+03   2.9975750e+01
   1.0889770e+03   2.6021220e+01
   1.0894590e+03   2.1928470e+01
   1.0899410e+03   1.8850990e+01
   1.0904230e+03   1.8670890e+01
   1.0909050e+03   1.8799530e+01
   1.0913870e+03   1.7245140e+01
   1.0918700e+03   1.4481960e+01
   1.0923520e+03   1.2724720e+01
   1.0928340e+03   1.2059730e+01
   1.0933160e+03   1.1810040e+01
   1.0937980e+03   1.1949640e+01
   1.0942800e+03   1.2008980e+01
   1.0947620e+03   1.1307270e+01
   1.0952440e+03   1.0266780e+01
   1.0957270e+03   9.3948970e+00
   1.0962090e+03   8.8015440e+00
   1.0966910e+03   8.2197270e+00
   1.0971730e+03   7.5628510e+00
   1.0976550e+03   7.0924000e+00
   1.0981370e+03   7.0051420e+00
   1.0986190e+03   7.1084900e+00
   1.0991010e+03   7.0184100e+00
   1.0995830e+03   6.7423400e+00
   1.1000660e+03   6.2792890e+00
   1.1005480e+03   5.4541930e+00
   1.1010300e+03   4.7477340e+00
   1.1015120e+03   4.0920490e+00
   1.1019940e+03   3.8071370e+00
   1.1024760e+03   4.5137940e+00
   1.1029580e+03   6.0635530e+00
   1.1034400e+03   5.8832470e+00
   1.1039220e+03   4.1382980e+00
   1.1044050e+03   2.7264480e+00
   1.1048870e+03   3.2021330e+00
   1.1053690e+03   3.8760830e+00
   1.1058510e+03   3.6701510e+00
   1.1063330e+03   3.0585330e+00
   1.1068150e+03   3.0383610e+00
   1.1072970e+03   3.7374110e+00
   1.1077790e+03   4.0992280e+00
   1.1082620e+03   4.0171660e+00
   1.1087440e+03   3.6567380e+00
   1.1092260e+03   2.9629970e+00
   1.1097080e+03   2.2195820e+00
   1.1101900e+03   1.5860980e+00
   1.1106720e+03   1.1278990e+00
   1.1111540e+03   1.2448650e+00
   1.1116360e+03   2.2578130e+00
   1.1121190e+03   2.9409640e+00
   1.1126010e+03   2.9896160e+00
   1.1130830e+03   2.6418230e+00
   1.1135650e+03   2.1134570e+00
   1.1140470e+03   1.4914630e+00
   1.1145290e+03   9.0058900e-01
   1.1150110e+03   3.2724000e-01
   1.1154930e+03   1.1810000e-02
   1.1159750e+03   6.4002998e-02
   1.1164580e+03   1.6604600e-01
   1.1169400e+03   8.7021001e-02
   1.1174220e+03   5.5298001e-02
   1.1179040e+03   1.8051100e-01
   1.1183860e+03   6.9153600e-01
   1.1188680e+03   1.1602250e+00
   1.1193500e+03   1.6007080e+00
   1.1198320e+03   1.7132110e+00
   1.1203140e+03   1.0337220e+00
   1.1207970e+03   2.5190700e-01
   1.1212790e+03   7.3044002e-02
   1.1217610e+03   5.1688999e-02
   1.1222430e+03   1.2691500e-01
   1.1227250e+03   5.7379900e-01
   1.1232070e+03   7.3553500e-01
   1.1236890e+03   1.4685100e-01
   1.1241710e+03   9.7904200e-01
   1.1246540e+03   7.3449700e-01
   1.1251360e+03   1.5204600e-01
   1.1256180e+03   4.4137600e-01
   1.1261000e+03   2.0531460e+00
   1.1265820e+03   2.3887860e+00
   1.1270640e+03   1.1679990e+00
   1.1275460e+03   1.7450000e-01
   1.1280280e+03   3.1289700e-01
   1.1285100e+03   4.0739998e-03
   1.1289930e+03   8.0779999e-02
   1.1294750e+03   4.5085100e-01
   1.1299570e+03   4.1283400e-01
   1.1304390e+03   3.9340200e-01
   1.1309210e+03   6.6167400e-01
   1.1314030e+03   4.2419001e-02
   1.1318850e+03   7.7382700e-01
   1.1323670e+03   9.2365300e-01
   1.1328490e+03   6.6199500e-01
   1.1333320e+03   3.6304500e-01
   1.1338140e+03   7.2433002e-02
   1.1342960e+03   2.4796300e-01
   1.1347780e+03   5.1538100e-01
   1.1352600e+03   9.8033100e-01
   1.1357420e+03   1.8143460e+00
   1.1362240e+03   2.7708820e+00
   1.1367060e+03   3.3946230e+00
   1.1371890e+03   3.7189100e+00
   1.1376710e+03   3.8606490e+00
   1.1381530e+03   3.8242570e+00
   1.1386350e+03   3.6413570e+00
   1.1391170e+03   2.8790130e+00
   1.1395990e+03   2.4749220e+00
   1.1400810e+03   3.1534350e+00
   1.1405630e+03   4.5490110e+00
   1.1410460e+03   4.7222820e+00
   1.1415280e+03   3.9417420e+00
   1.1420100e+03   3.6042480e+00
   1.1424920e+03   4.4746170e+00
   1.1429740e+03   5.5607450e+00
   1.1434560e+03   6.5799790e+00
   1.1439380e+03   7.4017640e+00
   1.1444200e+03   7.8169940e+00
   1.1449020e+03   7.8026500e+00
   1.1453850e+03   8.4167560e+00
   1.1458670e+03   9.5935060e+00
   1.1463490e+03   1.0634440e+01
   1.1468310e+03   1.1009110e+01
   1.1473130e+03   1.1335850e+01
   1.1477950e+03   1.2084370e+01
   1.1482770e+03   1.3036200e+01
   1.1487590e+03   1.3729070e+01
   1.1492410e+03   1.3961260e+01
   1.1497240e+03   1.5121940e+01
   1.1502060e+03   1.7342390e+01
   1.1506880e+03   1.9596110e+01
   1.1511700e+03   2.0987880e+01
   1.1516520e+03   2.2002690e+01
   1.1521340e+03   2.2666480e+01
   1.1526160e+03   2.3319850e+01
   1.1530980e+03   2.5221070e+01
   1.1535810e+03   2.9008460e+01
   1.1540630e+03   3.1899180e+01
   1.1545450e+03   3.3391490e+01
   1.1550270e+03   3.4515370e+01
   1.1555090e+03   3.6196690e+01
   1.1559910e+03   3.8271220e+01
   1.1564730e+03   4.0805080e+01
   1.1569550e+03   4.3713460e+01
   1.1574380e+03   4.5740550e+01
   1.1579200e+03   4.6493170e+01
   1.1584020e+03   4.7235200e+01
   1.1588840e+03   4.8416980e+01
   1.1593660e+03   4.9323670e+01
   1.1598480e+03   4.8738070e+01
   1.1603300e+03   4.7183560e+01
   1.1608120e+03   4.5610560e+01
   1.1612940e+03   4.4230370e+01
   1.1617760e+03   4.2075290e+01
   1.1622590e+03   3.8566360e+01
   1.1627410e+03   3.4952740e+01
   1.1632230e+03   3.1473460e+01
   1.1637050e+03   2.8349820e+01
   1.1641870e+03   2.6460640e+01
   1.1646690e+03   2.5268040e+01
   1.1651510e+03   2.3345680e+01
   1.1656330e+03   1.9988250e+01
   1.1661160e+03   1.7118330e+01
   1.1665980e+03   1.5341470e+01
   1.1670800e+03   1.4008710e+01
   1.1675620e+03   1.2880510e+01
   1.1680440e+03   1.1910640e+01
   1.1685260e+03   1.0986060e+01
   1.1690080e+03   1.0079710e+01
   1.1694900e+03   9.0733720e+00
   1.1699730e+03   7.8168490e+00
   1.1704550e+03   6.6519170e+00
   1.1709370e+03   5.6764140e+00
   1.1714190e+03   4.8742600e+00
   1.1719010e+03   4.2366560e+00
   1.1723830e+03   3.7741550e+00
   1.1728650e+03   3.7066420e+00
   1.1733470e+03   3.9219970e+00
   1.1738290e+03   3.7800520e+00
   1.1743120e+03   2.2508160e+00
   1.1747940e+03   1.1461560e+00
   1.1752760e+03   1.5581360e+00
   1.1757580e+03   2.4774780e+00
   1.1762400e+03   3.0044170e+00
   1.1767220e+03   3.1442410e+00
   1.1772040e+03   3.2882460e+00
   1.1776860e+03   3.4156880e+00
   1.1781680e+03   3.1700900e+00
   1.1786510e+03   1.6958850e+00
   1.1791330e+03   4.8821300e-01
   1.1796150e+03   3.8153800e-01
   1.1800970e+03   1.0037690e+00
   1.1805790e+03   2.2020650e+00
   1.1810610e+03   3.9992680e+00
   1.1815430e+03   3.7231450e+00
   1.1820250e+03   1.1465450e+00
   1.1825080e+03   9.7370900e-01
   1.1829900e+03   8.1709996e-03
   1.1834720e+03   1.4684300e+00
   1.1839540e+03   1.7364200e+00
   1.1844360e+03   1.1931840e+00
   1.1849180e+03   6.6629000e-01
   1.1854000e+03   1.3398000e-01
   1.1858820e+03   4.8018999e-02
   1.1863650e+03   5.1306900e-01
   1.1868470e+03   1.0944370e+00
   1.1873290e+03   1.6259690e+00
   1.1878110e+03   1.9753880e+00
   1.1882930e+03   1.8370900e+00
   1.1887750e+03   1.4054410e+00
   1.1892570e+03   1.5913090e+00
   1.1897390e+03   2.4362560e+00
   1.1902210e+03   2.6799160e+00
   1.1907030e+03   2.0125050e+00
   1.1911860e+03   1.2286300e+00
   1.1916680e+03   1.0480190e+00
   1.1921500e+03   1.0997920e+00
   1.1926320e+03   1.1278310e+00
   1.1931140e+03   1.1025850e+00
   1.1935960e+03   9.6556100e-01
   1.1940780e+03   7.1788800e-01
   1.1945600e+03   2.7055400e-01
   1.1950430e+03   5.0482200e-01
   1.1955250e+03   1.0959850e+00
   1.1960070e+03   8.8242300e-01
   1.1964890e+03   2.8588900e-01
   1.1969710e+03   3.7239800e-01
   1.1974530e+03   1.0588300e+00
   1.1979350e+03   1.3867340e+00
   1.1984170e+03   1.3089900e+00
   1.1989000e+03   1.3135910e+00
   1.1993820e+03   1.6617740e+00
   1.1998640e+03   1.9401630e+00
   1.2003460e+03   1.6198880e+00
   1.2008280e+03   1.0435560e+00
   1.2013100e+03   6.0463700e-01
   1.2017920e+03   3.5305000e-01
   1.2022740e+03   3.7696999e-02
   1.2027560e+03   6.3860300e-01
   1.2032390e+03   7.2328200e-01
   1.2037210e+03   2.6276400e-01
   1.2042030e+03   1.4981160e+00
   1.2046850e+03   2.2445680e+00
   1.2051670e+03   2.6046910e+00
   1.2056490e+03   2.6569520e+00
   1.2061310e+03   2.3717650e+00
   1.2066130e+03   2.0335390e+00
   1.2070950e+03   1.6151960e+00
   1.2075780e+03   1.3425600e+00
   1.2080600e+03   1.4060360e+00
   1.2085420e+03   1.5894320e+00
   1.2090240e+03   1.6021730e+00
   1.2095060e+03   1.5998540e+00
   1.2099880e+03   1.8788150e+00
   1.2104700e+03   2.6109390e+00
   1.2109520e+03   2.9549710e+00
   1.2114350e+03   2.8751450e+00
   1.2119170e+03   2.7262570e+00
   1.2123990e+03   2.5590740e+00
   1.2128810e+03   2.5991820e+00
   1.2133630e+03   3.3435670e+00
   1.2138450e+03   4.3791350e+00
   1.2143270e+03   4.9622120e+00
   1.2148090e+03   5.0465770e+00
   1.2152920e+03   4.6392290e+00
   1.2157740e+03   3.6699220e+00
   1.2162560e+03   2.8450620e+00
   1.2167380e+03   2.6672590e+00
   1.2172200e+03   2.9023510e+00
   1.2177020e+03   3.5913620e+00
   1.2181840e+03   4.5153350e+00
   1.2186660e+03   5.0854800e+00
   1.2191480e+03   5.2261730e+00
   1.2196300e+03   5.2264250e+00
   1.2201130e+03   5.0610200e+00
   1.2205950e+03   5.0963820e+00
   1.2210770e+03   5.9662700e+00
   1.2215590e+03   6.8498380e+00
   1.2220410e+03   6.8473210e+00
   1.2225230e+03   6.3138730e+00
   1.2230050e+03   6.1815490e+00
   1.2234870e+03   6.5764390e+00
   1.2239700e+03   6.8620450e+00
   1.2244520e+03   6.9792480e+00
   1.2249340e+03   7.2005540e+00
   1.2254160e+03   7.7512280e+00
   1.2258980e+03   8.4810330e+00
   1.2263800e+03   9.6529850e+00
   1.2268620e+03   1.0821330e+01
   1.2273440e+03   1.0717390e+01
   1.2278270e+03   8.9974140e+00
   1.2283090e+03   8.3899990e+00
   1.2287910e+03   9.2011030e+00
   1.2292730e+03   1.0120780e+01
   1.2297550e+03   1.0194240e+01
   1.2302370e+03   9.8168330e+00
   1.2307190e+03   8.9795990e+00
   1.2312010e+03   7.9923250e+00
   1.2316830e+03   7.7179950e+00
   1.2321660e+03   8.2400050e+00
   1.2326480e+03   8.4967350e+00
   1.2331300e+03   8.3635860e+00
   1.2336120e+03   8.2393650e+00
   1.2340940e+03   8.6337360e+00
   1.2345760e+03   8.9898150e+00
   1.2350580e+03   8.8801500e+00
   1.2355400e+03   8.4143140e+00
   1.2360220e+03   7.8336410e+00
   1.2365050e+03   7.0586010e+00
   1.2369870e+03   6.2373050e+00
   1.2374690e+03   5.2856520e+00
   1.2379510e+03   4.7209930e+00
   1.2384330e+03   5.3633190e+00
   1.2389150e+03   6.1379930e+00
   1.2393970e+03   6.4911800e+00
   1.2398790e+03   6.3906400e+00
   1.2403620e+03   5.3213500e+00
   1.2408440e+03   3.4296720e+00
   1.2413260e+03   3.1477890e+00
   1.2418080e+03   4.9638440e+00
   1.2422900e+03   6.5130540e+00
   1.2427720e+03   5.8376390e+00
   1.2432540e+03   4.6069870e+00
   1.2437360e+03   3.8428730e+00
   1.2442190e+03   3.4339290e+00
   1.2447010e+03   3.4310680e+00
   1.2451830e+03   3.7579040e+00
   1.2456650e+03   3.9597630e+00
   1.2461470e+03   3.9637990e+00
   1.2466290e+03   3.6156080e+00
   1.2471110e+03   2.4002080e+00
   1.2475930e+03   1.5883710e+00
   1.2480750e+03   1.6745990e+00
   1.2485570e+03   2.3473970e+00
   1.2490400e+03   2.9793620e+00
   1.2495220e+03   3.5731280e+00
   1.2500040e+03   4.1914140e+00
   1.2504860e+03   4.8728030e+00
   1.2509680e+03   5.1149830e+00
   1.2514500e+03   4.1261140e+00
   1.2519320e+03   3.3515320e+00
   1.2524140e+03   3.3757550e+00
   1.2528970e+03   3.8016130e+00
   1.2533790e+03   3.7759860e+00
   1.2538610e+03   3.4640500e+00
   1.2543430e+03   3.3028720e+00
   1.2548250e+03   3.3739170e+00
   1.2553070e+03   3.4565350e+00
   1.2557890e+03   3.5972820e+00
   1.2562710e+03   3.5187680e+00
   1.2567540e+03   2.9935300e+00
   1.2572360e+03   2.4349140e+00
   1.2577180e+03   2.8714070e+00
   1.2582000e+03   3.7516940e+00
   1.2586820e+03   3.8793720e+00
   1.2591640e+03   2.9789660e+00
   1.2596460e+03   2.6590650e+00
   1.2601280e+03   3.4102250e+00
   1.2606100e+03   4.1564560e+00
   1.2610930e+03   4.6658330e+00
   1.2615750e+03   4.8056260e+00
   1.2620570e+03   4.0702900e+00
   1.2625390e+03   2.9817430e+00
   1.2630210e+03   2.2763980e+00
   1.2635030e+03   2.0826800e+00
   1.2639850e+03   2.0824510e+00
   1.2644670e+03   2.2327580e+00
   1.2649490e+03   2.7244340e+00
   1.2654320e+03   3.8314740e+00
   1.2659140e+03   4.6716230e+00
   1.2663960e+03   3.5495000e+00
   1.2668780e+03   1.8922350e+00
   1.2673600e+03   1.5018230e+00
   1.2678420e+03   2.5694270e+00
   1.2683240e+03   2.9231340e+00
   1.2688060e+03   2.4426270e+00
   1.2692890e+03   2.3180310e+00
   1.2697710e+03   3.0265660e+00
   1.2702530e+03   3.6803280e+00
   1.2707350e+03   3.1249310e+00
   1.2712170e+03   2.3160100e+00
   1.2716990e+03   2.2481920e+00
   1.2721810e+03   2.8017580e+00
   1.2726630e+03   3.2463910e+00
   1.2731460e+03   3.5734410e+00
   1.2736280e+03   3.3601680e+00
   1.2741100e+03   2.4088820e+00
   1.2745920e+03   1.2949450e+00
   1.2750740e+03   2.2557100e-01
   1.2755560e+03   1.0598180e+00
   1.2760380e+03   3.3409900e-01
   1.2765200e+03   1.5197980e+00
   1.2770020e+03   3.2529220e+00
   1.2774840e+03   4.7299270e+00
   1.2779670e+03   5.0264660e+00
   1.2784490e+03   3.6997530e+00
   1.2789310e+03   2.4521640e+00
   1.2794130e+03   2.0296100e+00
   1.2798950e+03   2.1685640e+00
   1.2803770e+03   3.0457460e+00
   1.2808590e+03   4.0999370e+00
   1.2813410e+03   3.5361790e+00
   1.2818230e+03   1.9719620e+00
   1.2823060e+03   1.2301410e+00
   1.2827880e+03   1.5107730e+00
   1.2832700e+03   1.1008300e+00
   1.2837520e+03   1.7126390e+00
   1.2842340e+03   2.0908660e+00
   1.2847160e+03   2.0940860e+00
   1.2851980e+03   1.9170910e+00
   1.2856800e+03   1.9056320e+00
   1.2861630e+03   1.9660800e+00
   1.2866450e+03   1.9498210e+00
   1.2871270e+03   2.1175920e+00
   1.2876090e+03   1.9970470e+00
   1.2880910e+03   1.5163650e+00
   1.2885730e+03   9.7887400e-01
   1.2890550e+03   4.1741200e-01
   1.2895370e+03   1.1467000e-02
   1.2900200e+03   0.0000000e+00
   1.5000000e+03   0.0000000e+00
