   1.0000000e+02   0.0000000e+00
   1.5029600e+02   0.0000000e+00
   1.5077810e+02   1.6968001e-02
   1.5126020e+02   1.4144130e+00
   1.5174240e+02   2.3104250e+00
   1.5222450e+02   2.3800810e+00
   1.5270660e+02   1.7666470e+00
   1.5318870e+02   8.3650200e-01
   1.5367080e+02   3.6952200e-01
   1.5415290e+02   6.8298300e-01
   1.5463510e+02   8.3205998e-02
   1.5511720e+02   1.6245420e+00
   1.5559930e+02   3.7245640e+00
   1.5608140e+02   7.0981750e+00
   1.5656350e+02   1.0260100e+01
   1.5704560e+02   1.2940130e+01
   1.5752780e+02   1.5096010e+01
   1.5800990e+02   1.6916630e+01
   1.5849200e+02   1.7901090e+01
   1.5897410e+02   1.8831670e+01
   1.5945620e+02   2.0406540e+01
   1.5993830e+02   2.2536480e+01
   1.6042050e+02   2.5549840e+01
   1.6090260e+02   3.0107640e+01
   1.6138470e+02   3.6352870e+01
   1.6186680e+02   4.1729290e+01
   1.6234890e+02   4.4094670e+01
   1.6283100e+02   4.5482640e+01
   1.6331320e+02   4.8262300e+01
   1.6379530e+02   5.4876740e+01
   1.6427740e+02   6.1800660e+01
   1.6475950e+02   6.6819560e+01
   1.6524160e+02   6.9415950e+01
   1.6572370e+02   7.2781740e+01
   1.6620590e+02   7.9460720e+01
   1.6668800e+02   8.7844700e+01
   1.6717010e+02   9.5426850e+01
   1.6765220e+02   1.0019000e+02
   1.6813430e+02   1.0442110e+02
   1.6861640e+02   1.0973960e+02
   1.6909850e+02   1.1644760e+02
   1.6958070e+02   1.2365640e+02
   1.7006280e+02   1.3090830e+02
   1.7054490e+02   1.3820370e+02
   1.7102700e+02   1.4550320e+02
   1.7150910e+02   1.5269990e+02
   1.7199120e+02   1.5994940e+02
   1.7247340e+02   1.6738670e+02
   1.7295550e+02   1.7505570e+02
   1.7343760e+02   1.8295890e+02
   1.7391970e+02   1.9157410e+02
   1.7440180e+02   2.0054430e+02
   1.7488390e+02   2.0881280e+02
   1.7536610e+02   2.1496990e+02
   1.7584820e+02   2.2026550e+02
   1.7633030e+02   2.2636650e+02
   1.7681240e+02   2.3377870e+02
   1.7729450e+02   2.4149810e+02
   1.7777660e+02   2.4817450e+02
   1.7825880e+02   2.5415680e+02
   1.7874090e+02   2.6060830e+02
   1.7922300e+02   2.6894920e+02
   1.7970510e+02   2.7826500e+02
   1.8018720e+02   2.8659110e+02
   1.8066930e+02   2.9339380e+02
   1.8115150e+02   3.0009570e+02
   1.8163360e+02   3.0894220e+02
   1.8211570e+02   3.1976670e+02
   1.8259780e+02   3.3022280e+02
   1.8307990e+02   3.3886960e+02
   1.8356200e+02   3.4584760e+02
   1.8404420e+02   3.5170330e+02
   1.8452630e+02   3.5705280e+02
   1.8500840e+02   3.6240570e+02
   1.8549050e+02   3.6923320e+02
   1.8597260e+02   3.7733290e+02
   1.8645470e+02   3.8613880e+02
   1.8693690e+02   3.9437810e+02
   1.8741900e+02   4.0155190e+02
   1.8790110e+02   4.0714140e+02
   1.8838320e+02   4.1125380e+02
   1.8886530e+02   4.1336840e+02
   1.8934740e+02   4.1437750e+02
   1.8982960e+02   4.1503450e+02
   1.9031170e+02   4.1317940e+02
   1.9079380e+02   4.0683870e+02
   1.9127590e+02   3.9655800e+02
   1.9175800e+02   3.8561130e+02
   1.9224010e+02   3.7496120e+02
   1.9272230e+02   3.6387810e+02
   1.9320440e+02   3.5012990e+02
   1.9368650e+02   3.3351170e+02
   1.9416860e+02   3.1474950e+02
   1.9465070e+02   2.9388270e+02
   1.9513280e+02   2.7103020e+02
   1.9561500e+02   2.4862190e+02
   1.9609710e+02   2.2709210e+02
   1.9657920e+02   2.0660050e+02
   1.9706130e+02   1.8800130e+02
   1.9754340e+02   1.7153400e+02
   1.9802550e+02   1.5598270e+02
   1.9850770e+02   1.4028470e+02
   1.9898980e+02   1.2429140e+02
   1.9947190e+02   1.0998260e+02
   1.9995400e+02   9.7849730e+01
   2.0043610e+02   8.7819850e+01
   2.0091820e+02   7.9587920e+01
   2.0140040e+02   7.3612610e+01
   2.0188250e+02   6.8195880e+01
   2.0236460e+02   6.1182240e+01
   2.0284670e+02   5.2278610e+01
   2.0332880e+02   4.4845830e+01
   2.0381090e+02   4.0155120e+01
   2.0429310e+02   3.7816710e+01
   2.0477520e+02   3.4346940e+01
   2.0525730e+02   2.9364690e+01
   2.0573940e+02   2.4166030e+01
   2.0622150e+02   2.0171100e+01
   2.0670360e+02   1.7630940e+01
   2.0718580e+02   1.5125120e+01
   2.0766790e+02   1.2174680e+01
   2.0815000e+02   8.9689790e+00
   2.0863210e+02   6.6610720e+00
   2.0911420e+02   5.4606480e+00
   2.0959630e+02   4.7411800e+00
   2.1007850e+02   3.8343960e+00
   2.1056060e+02   2.6734770e+00
   2.1104270e+02   1.6135410e+00
   2.1152480e+02   7.7677900e-01
   2.1200690e+02   1.5579200e-01
   2.1248900e+02   7.0497100e-01
   2.1297120e+02   2.0042270e+00
   2.1345330e+02   3.2755890e+00
   2.1393540e+02   3.9830630e+00
   2.1441750e+02   4.0402370e+00
   2.1489960e+02   3.8024140e+00
   2.1538170e+02   3.2524870e+00
   2.1586390e+02   2.3939510e+00
   2.1634600e+02   1.6794740e+00
   2.1682810e+02   8.8638300e-01
   2.1731020e+02   5.3660600e-01
   2.1779230e+02   1.4590910e+00
   2.1827440e+02   4.4206700e+00
   2.1875650e+02   6.7045900e+00
   2.1923870e+02   7.5832520e+00
   2.1972080e+02   7.0492710e+00
   2.2020290e+02   6.0802920e+00
   2.2068500e+02   4.2322690e+00
   2.2116710e+02   2.4873960e+00
   2.2164920e+02   2.1566770e+00
   2.2213140e+02   4.1085510e+00
   2.2261350e+02   5.4516910e+00
   2.2309560e+02   5.2938080e+00
   2.2357770e+02   3.5492250e+00
   2.2405980e+02   2.4458010e+00
   2.2454190e+02   2.0998230e+00
   2.2502410e+02   2.2513580e+00
   2.2550620e+02   2.7848050e+00
   2.2598830e+02   4.2513280e+00
   2.2647040e+02   4.8835450e+00
   2.2695250e+02   3.9498900e+00
   2.2743460e+02   1.3319090e+00
   2.2791680e+02   1.3154600e-01
   2.2839890e+02   1.4509600e-01
   2.2888100e+02   9.4877600e-01
   2.2936310e+02   1.0232390e+00
   2.2984520e+02   9.3291998e-02
   2.3032730e+02   1.0550540e+00
   2.3080950e+02   2.4830320e+00
   2.3129160e+02   4.2344670e+00
   2.3177370e+02   4.9703980e+00
   2.3225580e+02   4.0501400e+00
   2.3273790e+02   2.7801670e+00
   2.3322000e+02   2.5295870e+00
   2.3370220e+02   3.8318630e+00
   2.3418430e+02   5.0982970e+00
   2.3466640e+02   5.9470830e+00
   2.3514850e+02   6.3608250e+00
   2.3563060e+02   7.1539310e+00
   2.3611270e+02   8.6506200e+00
   2.3659490e+02   1.0205930e+01
   2.3707700e+02   1.1176250e+01
   2.3755910e+02   1.1208280e+01
   2.3804120e+02   1.1342860e+01
   2.3852330e+02   1.1826810e+01
   2.3900540e+02   1.2661540e+01
   2.3948760e+02   1.3234940e+01
   2.3996970e+02   1.3367370e+01
   2.4045180e+02   1.3436770e+01
   2.4093390e+02   1.3798710e+01
   2.4141600e+02   1.4643050e+01
   2.4189810e+02   1.5378270e+01
   2.4238030e+02   1.5647140e+01
   2.4286240e+02   1.5495270e+01
   2.4334450e+02   1.6559660e+01
   2.4382660e+02   1.9720260e+01
   2.4430870e+02   2.3114330e+01
   2.4479080e+02   2.5170650e+01
   2.4527300e+02   2.5308300e+01
   2.4575510e+02   2.5222690e+01
   2.4623720e+02   2.4824580e+01
   2.4671930e+02   2.4214340e+01
   2.4720140e+02   2.4941910e+01
   2.4768350e+02   2.7905880e+01
   2.4816570e+02   3.1106700e+01
   2.4864780e+02   3.2836980e+01
   2.4912990e+02   3.2043300e+01
   2.4961200e+02   3.2135190e+01
   2.5009410e+02   3.3867170e+01
   2.5057620e+02   3.6978260e+01
   2.5105840e+02   3.9325360e+01
   2.5154050e+02   4.0495680e+01
   2.5202260e+02   4.1430620e+01
   2.5250470e+02   4.2795440e+01
   2.5298680e+02   4.4883850e+01
   2.5346890e+02   4.6738940e+01
   2.5395110e+02   4.8215380e+01
   2.5443320e+02   4.9383500e+01
   2.5491530e+02   5.0452380e+01
   2.5539740e+02   5.0931590e+01
   2.5587950e+02   5.2069790e+01
   2.5636160e+02   5.4865810e+01
   2.5684380e+02   6.0298680e+01
   2.5732590e+02   6.4841980e+01
   2.5780800e+02   6.7965550e+01
   2.5829010e+02   7.0011020e+01
   2.5877220e+02   7.2412320e+01
   2.5925430e+02   7.5276310e+01
   2.5973650e+02   7.8331570e+01
   2.6021860e+02   8.1332460e+01
   2.6070070e+02   8.3802150e+01
   2.6118280e+02   8.7652540e+01
   2.6166490e+02   9.3566380e+01
   2.6214700e+02   1.0071700e+02
   2.6262920e+02   1.0671360e+02
   2.6311130e+02   1.1094170e+02
   2.6359340e+02   1.1516550e+02
   2.6407550e+02   1.2003630e+02
   2.6455760e+02   1.2533410e+02
   2.6503970e+02   1.3242020e+02
   2.6552190e+02   1.4216680e+02
   2.6600400e+02   1.5320880e+02
   2.6648610e+02   1.6236600e+02
   2.6696820e+02   1.6859860e+02
   2.6745030e+02   1.7539110e+02
   2.6793240e+02   1.8416200e+02
   2.6841460e+02   1.9529490e+02
   2.6889670e+02   2.0717690e+02
   2.6937880e+02   2.1980780e+02
   2.6986090e+02   2.3319110e+02
   2.7034300e+02   2.4722370e+02
   2.7082510e+02   2.6208000e+02
   2.7130730e+02   2.7678320e+02
   2.7178940e+02   2.8987160e+02
   2.7227150e+02   3.0085310e+02
   2.7275360e+02   3.1639290e+02
   2.7323570e+02   3.3768360e+02
   2.7371780e+02   3.6161160e+02
   2.7420000e+02   3.8367150e+02
   2.7468210e+02   4.0325860e+02
   2.7516420e+02   4.2307470e+02
   2.7564630e+02   4.4373640e+02
   2.7612840e+02   4.6510780e+02
   2.7661050e+02   4.8804090e+02
   2.7709270e+02   5.1300290e+02
   2.7757480e+02   5.3886160e+02
   2.7805690e+02   5.6405920e+02
   2.7853900e+02   5.8842690e+02
   2.7902110e+02   6.1324900e+02
   2.7950320e+02   6.3874440e+02
   2.7998540e+02   6.6453920e+02
   2.8046750e+02   6.9048360e+02
   2.8094960e+02   7.1652390e+02
   2.8143170e+02   7.4343290e+02
   2.8191380e+02   7.7186510e+02
   2.8239590e+02   8.0179070e+02
   2.8287810e+02   8.3293850e+02
   2.8336020e+02   8.6558150e+02
   2.8384230e+02   8.9942120e+02
   2.8432440e+02   9.3243770e+02
   2.8480650e+02   9.6474680e+02
   2.8528860e+02   9.9738270e+02
   2.8577080e+02   1.0307470e+03
   2.8625290e+02   1.0647710e+03
   2.8673500e+02   1.1005980e+03
   2.8721710e+02   1.1394140e+03
   2.8769920e+02   1.1798150e+03
   2.8818130e+02   1.2169690e+03
   2.8866350e+02   1.2509200e+03
   2.8914560e+02   1.2832040e+03
   2.8962770e+02   1.3155760e+03
   2.9010980e+02   1.3477420e+03
   2.9059190e+02   1.3769110e+03
   2.9107400e+02   1.4031830e+03
   2.9155620e+02   1.4259330e+03
   2.9203830e+02   1.4436730e+03
   2.9252040e+02   1.4565670e+03
   2.9300250e+02   1.4648800e+03
   2.9348460e+02   1.4699950e+03
   2.9396670e+02   1.4709980e+03
   2.9444890e+02   1.4645830e+03
   2.9493100e+02   1.4503370e+03
   2.9541310e+02   1.4289720e+03
   2.9589520e+02   1.3994370e+03
   2.9637730e+02   1.3626730e+03
   2.9685940e+02   1.3240580e+03
   2.9734160e+02   1.2880570e+03
   2.9782370e+02   1.2518640e+03
   2.9830580e+02   1.2089400e+03
   2.9878790e+02   1.1578980e+03
   2.9927000e+02   1.1033300e+03
   2.9975210e+02   1.0503490e+03
   3.0023430e+02   9.9855080e+02
   3.0071640e+02   9.4931900e+02
   3.0119850e+02   9.0437890e+02
   3.0168060e+02   8.6135920e+02
   3.0216270e+02   8.1663460e+02
   3.0264480e+02   7.6948670e+02
   3.0312700e+02   7.2357740e+02
   3.0360910e+02   6.8115750e+02
   3.0409120e+02   6.4236360e+02
   3.0457330e+02   6.0547780e+02
   3.0505540e+02   5.7017870e+02
   3.0553750e+02   5.3663620e+02
   3.0601970e+02   5.0597610e+02
   3.0650180e+02   4.7822440e+02
   3.0698390e+02   4.5145820e+02
   3.0746600e+02   4.2390320e+02
   3.0794810e+02   3.9683350e+02
   3.0843020e+02   3.7218200e+02
   3.0891240e+02   3.5091440e+02
   3.0939450e+02   3.3157830e+02
   3.0987660e+02   3.1307600e+02
   3.1035870e+02   2.9532490e+02
   3.1084080e+02   2.7880590e+02
   3.1132290e+02   2.6392660e+02
   3.1180510e+02   2.5022900e+02
   3.1228720e+02   2.3770430e+02
   3.1276930e+02   2.2659440e+02
   3.1325140e+02   2.1604750e+02
   3.1373350e+02   2.0531530e+02
   3.1421560e+02   1.9465570e+02
   3.1469780e+02   1.8468050e+02
   3.1517990e+02   1.7613830e+02
   3.1566200e+02   1.6804190e+02
   3.1614410e+02   1.5976120e+02
   3.1662620e+02   1.5080010e+02
   3.1710830e+02   1.4252970e+02
   3.1759050e+02   1.3547460e+02
   3.1807260e+02   1.2952730e+02
   3.1855470e+02   1.2440430e+02
   3.1903680e+02   1.2102480e+02
   3.1951890e+02   1.1768560e+02
   3.2000100e+02   1.1340620e+02
   3.2048320e+02   1.0780190e+02
   3.2096530e+02   1.0269540e+02
   3.2144740e+02   9.9156190e+01
   3.2192950e+02   9.6205020e+01
   3.2241160e+02   9.2696500e+01
   3.2289370e+02   8.6863980e+01
   3.2337590e+02   8.1911680e+01
   3.2385800e+02   7.9437290e+01
   3.2434010e+02   7.9680480e+01
   3.2482220e+02   7.8604770e+01
   3.2530430e+02   7.4021910e+01
   3.2578640e+02   6.8786220e+01
   3.2626860e+02   6.5071170e+01
   3.2675070e+02   6.4685180e+01
   3.2723280e+02   6.4051120e+01
   3.2771490e+02   6.2696320e+01
   3.2819700e+02   6.0683270e+01
   3.2867910e+02   5.8491550e+01
   3.2916130e+02   5.5802900e+01
   3.2964340e+02   5.3146120e+01
   3.3012550e+02   5.0791230e+01
   3.3060760e+02   4.8658870e+01
   3.3108970e+02   4.7030940e+01
   3.3157180e+02   4.6174770e+01
   3.3205400e+02   4.5826480e+01
   3.3253610e+02   4.5248810e+01
   3.3301820e+02   4.4568210e+01
   3.3350030e+02   4.3483980e+01
   3.3398240e+02   4.1809300e+01
   3.3446450e+02   3.9256930e+01
   3.3494670e+02   3.6915850e+01
   3.3542880e+02   3.4858180e+01
   3.3591090e+02   3.2996580e+01
   3.3639300e+02   3.1120820e+01
   3.3687510e+02   2.8900330e+01
   3.3735720e+02   2.7417690e+01
   3.3783940e+02   2.7332840e+01
   3.3832150e+02   2.8745070e+01
   3.3880360e+02   2.8700790e+01
   3.3928570e+02   2.6619370e+01
   3.3976780e+02   2.4165920e+01
   3.4024990e+02   2.3267350e+01
   3.4073200e+02   2.4240310e+01
   3.4121410e+02   2.4722560e+01
   3.4169630e+02   2.4104970e+01
   3.4217840e+02   2.2639390e+01
   3.4266050e+02   2.1451030e+01
   3.4314260e+02   2.0634430e+01
   3.4362470e+02   1.9915100e+01
   3.4410680e+02   1.8652980e+01
   3.4458900e+02   1.6790920e+01
   3.4507110e+02   1.5679750e+01
   3.4555320e+02   1.5911410e+01
   3.4603530e+02   1.6904690e+01
   3.4651740e+02   1.7158020e+01
   3.4699950e+02   1.6619550e+01
   3.4748170e+02   1.6031720e+01
   3.4796380e+02   1.5831680e+01
   3.4844590e+02   1.5952130e+01
   3.4892800e+02   1.6386000e+01
   3.4941010e+02   1.7269090e+01
   3.4989220e+02   1.7736040e+01
   3.5037440e+02   1.6225590e+01
   3.5085650e+02   1.3339810e+01
   3.5133860e+02   1.1122880e+01
   3.5182070e+02   1.0573390e+01
   3.5230280e+02   1.1190410e+01
   3.5278490e+02   1.2769590e+01
   3.5326710e+02   1.5349990e+01
   3.5374920e+02   1.7088730e+01
   3.5423130e+02   1.5022200e+01
   3.5471340e+02   1.1126220e+01
   3.5519550e+02   9.0206300e+00
   3.5567760e+02   1.1688320e+01
   3.5615980e+02   1.5102200e+01
   3.5664190e+02   1.5084730e+01
   3.5712400e+02   1.2212390e+01
   3.5760610e+02   9.5653690e+00
   3.5808820e+02   9.2681120e+00
   3.5857030e+02   1.0032300e+01
   3.5905250e+02   1.0614440e+01
   3.5953460e+02   1.0702850e+01
   3.6001670e+02   1.0318270e+01
   3.6049880e+02   9.2024380e+00
   3.6098090e+02   7.7316890e+00
   3.6146300e+02   6.7713010e+00
   3.6194520e+02   6.8603060e+00
   3.6242730e+02   7.2952730e+00
   3.6290940e+02   7.7617490e+00
   3.6339150e+02   8.2473140e+00
   3.6387360e+02   8.5978390e+00
   3.6435570e+02   8.8693850e+00
   3.6483790e+02   8.9882350e+00
   3.6532000e+02   8.8348690e+00
   3.6580210e+02   8.1510770e+00
   3.6628420e+02   7.3963620e+00
   3.6676630e+02   6.4758910e+00
   3.6724840e+02   5.3227840e+00
   3.6773060e+02   4.7938540e+00
   3.6821270e+02   5.9271700e+00
   3.6869480e+02   7.1950380e+00
   3.6917690e+02   7.5923160e+00
   3.6965900e+02   6.5074160e+00
   3.7014110e+02   5.2507930e+00
   3.7062330e+02   3.4786530e+00
   3.7110540e+02   1.5078890e+00
   3.7158750e+02   5.9489400e-01
   3.7206960e+02   1.3137970e+00
   3.7255170e+02   2.3459170e+00
   3.7303380e+02   3.2153630e+00
   3.7351600e+02   3.9847720e+00
   3.7399810e+02   4.4472500e+00
   3.7448020e+02   4.3922730e+00
   3.7496230e+02   4.0514980e+00
   3.7544440e+02   3.8262790e+00
   3.7592650e+02   3.8304440e+00
   3.7640870e+02   3.6007390e+00
   3.7689080e+02   2.8729100e+00
   3.7737290e+02   1.6725770e+00
   3.7785500e+02   9.5982400e-01
   3.7833710e+02   8.1352200e-01
   3.7881920e+02   9.6376000e-01
   3.7930140e+02   1.1408230e+00
   3.7978350e+02   1.3354950e+00
   3.8026560e+02   1.8631130e+00
   3.8074770e+02   3.0695950e+00
   3.8122980e+02   4.3820500e+00
   3.8171190e+02   4.0565800e+00
   3.8219410e+02   2.0629580e+00
   3.8267620e+02   4.3120999e-02
   3.8315830e+02   8.3293200e-01
   3.8364040e+02   8.0419900e-01
   3.8412250e+02   6.8985000e-01
   3.8460460e+02   5.2150000e-01
   3.8508680e+02   4.5541400e-01
   3.8556890e+02   9.0289300e-01
   3.8605100e+02   1.6850890e+00
   3.8653310e+02   2.1418150e+00
   3.8701520e+02   1.6550900e+00
   3.8749730e+02   7.8776600e-01
   3.8797950e+02   3.4343000e-01
   3.8846160e+02   3.3078000e-01
   3.8894370e+02   4.8114000e-01
   3.8942580e+02   6.5898100e-01
   3.8990790e+02   8.4722900e-01
   3.9039000e+02   1.0205990e+00
   3.9087220e+02   1.2007290e+00
   3.9135430e+02   1.3253020e+00
   3.9183640e+02   1.2912450e+00
   3.9231850e+02   1.1435850e+00
   3.9280060e+02   1.0543980e+00
   3.9328270e+02   1.1839750e+00
   3.9376490e+02   1.3545230e+00
   3.9424700e+02   1.4551540e+00
   3.9472910e+02   1.4871830e+00
   3.9521120e+02   1.4036250e+00
   3.9569330e+02   1.0195310e+00
   3.9617540e+02   5.4928600e-01
   3.9665760e+02   3.1280500e-01
   3.9713970e+02   7.9731800e-01
   3.9762180e+02   1.1421970e+00
   3.9810390e+02   9.6154800e-01
   3.9858600e+02   1.7872600e-01
   3.9906810e+02   3.7016300e-01
   3.9955030e+02   7.6376300e-01
   4.0003240e+02   7.9624900e-01
   4.0051450e+02   2.8744500e-01
   4.0099660e+02   1.9190980e+00
   4.0147870e+02   3.0045470e+00
   4.0196080e+02   1.9953160e+00
   4.0244300e+02   3.5423300e-01
   4.0292510e+02   9.9197400e-01
   4.0340720e+02   1.1073460e+00
   4.0388930e+02   3.3680110e+00
   4.0437140e+02   4.6379700e+00
   4.0485350e+02   4.7393340e+00
   4.0533570e+02   4.6306920e+00
   4.0581780e+02   4.3094640e+00
   4.0629990e+02   3.7862090e+00
   4.0678200e+02   2.8790890e+00
   4.0726410e+02   1.4120180e+00
   4.0774620e+02   6.1865200e-01
   4.0822840e+02   1.1272890e+00
   4.0871050e+02   2.6083530e+00
   4.0919260e+02   3.4346160e+00
   4.0967470e+02   3.5535580e+00
   4.1015680e+02   3.4050140e+00
   4.1063890e+02   3.4291380e+00
   4.1112110e+02   3.5437930e+00
   4.1160320e+02   3.2051240e+00
   4.1208530e+02   2.1603850e+00
   4.1256740e+02   9.4679300e-01
   4.1304950e+02   3.4272800e-01
   4.1353160e+02   2.7566500e-01
   4.1401380e+02   3.8778700e-01
   4.1449590e+02   5.1754800e-01
   4.1497800e+02   6.9041400e-01
   4.1546010e+02   1.1201320e+00
   4.1594220e+02   1.8636020e+00
   4.1642430e+02   2.1824650e+00
   4.1690650e+02   8.1079100e-01
   4.1738860e+02   1.2234500e+00
   4.1787070e+02   2.3524930e+00
   4.1835280e+02   1.2359770e+00
   4.1883490e+02   1.8441800e-01
   4.1931700e+02   7.3918200e-01
   4.1979920e+02   5.5693100e-01
   4.2028130e+02   2.2232100e-01
   4.2076340e+02   2.9438800e-01
   4.2124550e+02   6.8122900e-01
   4.2172760e+02   6.8513500e-01
   4.2220970e+02   7.8475997e-02
   4.2269190e+02   4.5478800e-01
   4.2317400e+02   9.4078100e-01
   4.2365610e+02   1.2095490e+00
   4.2413820e+02   1.0097200e+00
   4.2462030e+02   1.9741800e-01
   4.2510240e+02   1.3729100e+00
   4.2558460e+02   2.2124480e+00
   4.2606670e+02   2.6831820e+00
   4.2654880e+02   3.3891140e+00
   4.2703090e+02   5.1326600e+00
   4.2751300e+02   6.4114990e+00
   4.2799510e+02   5.9803470e+00
   4.2847730e+02   2.4368290e+00
   4.2895940e+02   3.3450300e-01
   4.2944150e+02   5.6596400e-01
   4.2992360e+02   2.1545260e+00
   4.3040570e+02   2.4082180e+00
   4.3088780e+02   7.5097700e-01
   4.3137000e+02   4.4979900e-01
   4.3185210e+02   1.4213600e-01
   4.3233420e+02   2.5279240e+00
   4.3281630e+02   3.9485930e+00
   4.3329840e+02   4.2638550e+00
   4.3378050e+02   4.1119080e+00
   4.3426270e+02   4.1261440e+00
   4.3474480e+02   4.2978060e+00
   4.3522690e+02   4.5577550e+00
   4.3570900e+02   4.9718320e+00
   4.3619110e+02   5.3803100e+00
   4.3667320e+02   5.3317260e+00
   4.3715540e+02   4.8907620e+00
   4.3763750e+02   4.5933380e+00
   4.3811960e+02   4.9955140e+00
   4.3860170e+02   5.7140200e+00
   4.3908380e+02   5.9861300e+00
   4.3956590e+02   5.5997160e+00
   4.4004800e+02   5.4602970e+00
   4.4053020e+02   6.7559360e+00
   4.4101230e+02   8.7427980e+00
   4.4149440e+02   1.0212450e+01
   4.4197650e+02   1.0270000e+01
   4.4245860e+02   9.9909360e+00
   4.4294070e+02   9.8625030e+00
   4.4342290e+02   9.9025880e+00
   4.4390500e+02   1.0230970e+01
   4.4438710e+02   1.1610640e+01
   4.4486920e+02   1.2902300e+01
   4.4535130e+02   1.3249860e+01
   4.4583340e+02   1.1742800e+01
   4.4631560e+02   1.0595030e+01
   4.4679770e+02   1.0089540e+01
   4.4727980e+02   1.0203090e+01
   4.4776190e+02   1.0921600e+01
   4.4824400e+02   1.2927500e+01
   4.4872610e+02   1.4784650e+01
   4.4920830e+02   1.6112670e+01
   4.4969040e+02   1.6895970e+01
   4.5017250e+02   1.7855010e+01
   4.5065460e+02   1.9256790e+01
   4.5113670e+02   2.0467300e+01
   4.5161880e+02   2.0894940e+01
   4.5210100e+02   2.0206740e+01
   4.5258310e+02   1.9917600e+01
   4.5306520e+02   2.0244430e+01
   4.5354730e+02   2.0989880e+01
   4.5402940e+02   2.1823760e+01
   4.5451150e+02   2.2791820e+01
   4.5499370e+02   2.3312300e+01
   4.5547580e+02   2.2623890e+01
   4.5595790e+02   2.1177900e+01
   4.5644000e+02   2.1714260e+01
   4.5692210e+02   2.4402740e+01
   4.5740420e+02   2.7336720e+01
   4.5788640e+02   2.8623750e+01
   4.5836850e+02   2.8645450e+01
   4.5885060e+02   2.8511320e+01
   4.5933270e+02   2.8680010e+01
   4.5981480e+02   2.8854770e+01
   4.6029690e+02   2.8122240e+01
   4.6077910e+02   2.6805980e+01
   4.6126120e+02   2.6270280e+01
   4.6174330e+02   2.8308120e+01
   4.6222540e+02   3.0900820e+01
   4.6270750e+02   3.2140760e+01
   4.6318960e+02   3.1772030e+01
   4.6367180e+02   3.1466160e+01
   4.6415390e+02   3.2572010e+01
   4.6463600e+02   3.4006500e+01
   4.6511810e+02   3.4676710e+01
   4.6560020e+02   3.2817730e+01
   4.6608230e+02   3.1590640e+01
   4.6656450e+02   3.2093980e+01
   4.6704660e+02   3.3948550e+01
   4.6752870e+02   3.5569340e+01
   4.6801080e+02   3.6893300e+01
   4.6849290e+02   3.7857770e+01
   4.6897500e+02   3.8457060e+01
   4.6945720e+02   3.8748990e+01
   4.6993930e+02   3.8508510e+01
   4.7042140e+02   3.6878510e+01
   4.7090350e+02   3.5480030e+01
   4.7138560e+02   3.6397520e+01
   4.7186770e+02   4.0635640e+01
   4.7234990e+02   4.3937260e+01
   4.7283200e+02   4.5445620e+01
   4.7331410e+02   4.5584980e+01
   4.7379620e+02   4.5712680e+01
   4.7427830e+02   4.5806520e+01
   4.7476040e+02   4.6388570e+01
   4.7524260e+02   4.8123500e+01
   4.7572470e+02   5.0642090e+01
   4.7620680e+02   5.2044890e+01
   4.7668890e+02   5.2088900e+01
   4.7717100e+02   5.1835070e+01
   4.7765310e+02   5.2373890e+01
   4.7813530e+02   5.3582570e+01
   4.7861740e+02   5.5164720e+01
   4.7909950e+02   5.7394790e+01
   4.7958160e+02   5.9487760e+01
   4.8006370e+02   6.0436600e+01
   4.8054580e+02   6.0428510e+01
   4.8102800e+02   6.0154570e+01
   4.8151010e+02   5.9319530e+01
   4.8199220e+02   5.8857420e+01
   4.8247430e+02   5.9844860e+01
   4.8295640e+02   6.2659990e+01
   4.8343850e+02   6.5073780e+01
   4.8392070e+02   6.5822280e+01
   4.8440280e+02   6.5857930e+01
   4.8488490e+02   6.6175720e+01
   4.8536700e+02   6.6945530e+01
   4.8584910e+02   6.8053070e+01
   4.8633120e+02   6.9855800e+01
   4.8681340e+02   7.2094820e+01
   4.8729550e+02   7.3579800e+01
   4.8777760e+02   7.3678250e+01
   4.8825970e+02   7.3738830e+01
   4.8874180e+02   7.4273620e+01
   4.8922390e+02   7.5277310e+01
   4.8970610e+02   7.6625370e+01
   4.9018820e+02   7.8572480e+01
   4.9067030e+02   8.0432980e+01
   4.9115240e+02   8.1292330e+01
   4.9163450e+02   8.0969670e+01
   4.9211660e+02   8.1121890e+01
   4.9259880e+02   8.2239070e+01
   4.9308090e+02   8.3860810e+01
   4.9356300e+02   8.4750430e+01
   4.9404510e+02   8.4932220e+01
   4.9452720e+02   8.5048080e+01
   4.9500930e+02   8.5529710e+01
   4.9549150e+02   8.6213090e+01
   4.9597360e+02   8.6772430e+01
   4.9645570e+02   8.7193760e+01
   4.9693780e+02   8.7416810e+01
   4.9741990e+02   8.6994480e+01
   4.9790200e+02   8.6431700e+01
   4.9838420e+02   8.6553830e+01
   4.9886630e+02   8.8023970e+01
   4.9934840e+02   8.9652910e+01
   4.9983050e+02   9.0794200e+01
   5.0031260e+02   9.1520140e+01
   5.0079470e+02   9.2007890e+01
   5.0127690e+02   9.1873230e+01
   5.0175900e+02   9.1912750e+01
   5.0224110e+02   9.2779750e+01
   5.0272320e+02   9.4765080e+01
   5.0320530e+02   9.5797970e+01
   5.0368740e+02   9.4508120e+01
   5.0416960e+02   9.2853120e+01
   5.0465170e+02   9.2300260e+01
   5.0513380e+02   9.3768160e+01
   5.0561590e+02   9.4708830e+01
   5.0609800e+02   9.4817350e+01
   5.0658010e+02   9.4380430e+01
   5.0706230e+02   9.4137160e+01
   5.0754440e+02   9.4283690e+01
   5.0802650e+02   9.3923450e+01
   5.0850860e+02   9.2334870e+01
   5.0899070e+02   8.9806550e+01
   5.0947280e+02   8.8843320e+01
   5.0995500e+02   8.9554140e+01
   5.1043710e+02   9.0962950e+01
   5.1091920e+02   9.2864140e+01
   5.1140130e+02   9.4869550e+01
   5.1188340e+02   9.5210880e+01
   5.1236550e+02   9.3262450e+01
   5.1284770e+02   9.0811000e+01
   5.1332980e+02   9.0116760e+01
   5.1381190e+02   9.0553940e+01
   5.1429400e+02   9.0628970e+01
   5.1477610e+02   8.8936870e+01
   5.1525820e+02   8.7188480e+01
   5.1574040e+02   8.7141110e+01
   5.1622250e+02   8.8502780e+01
   5.1670460e+02   8.9028750e+01
   5.1718670e+02   8.6409040e+01
   5.1766880e+02   8.3527940e+01
   5.1815090e+02   8.2399410e+01
   5.1863310e+02   8.4172420e+01
   5.1911520e+02   8.5553970e+01
   5.1959730e+02   8.6081790e+01
   5.2007940e+02   8.5898280e+01
   5.2056150e+02   8.5193730e+01
   5.2104360e+02   8.3687680e+01
   5.2152580e+02   8.2019620e+01
   5.2200790e+02   7.9876850e+01
   5.2249000e+02   7.7602890e+01
   5.2297210e+02   7.7295880e+01
   5.2345420e+02   7.9818180e+01
   5.2393630e+02   8.1787750e+01
   5.2441850e+02   8.1104710e+01
   5.2490060e+02   7.7783780e+01
   5.2538270e+02   7.5143890e+01
   5.2586480e+02   7.3220460e+01
   5.2634690e+02   7.1733730e+01
   5.2682900e+02   7.0347180e+01
   5.2731120e+02   6.9138340e+01
   5.2779330e+02   6.8422670e+01
   5.2827540e+02   6.8432880e+01
   5.2875750e+02   6.8667340e+01
   5.2923960e+02   6.8722060e+01
   5.2972170e+02   6.8531800e+01
   5.3020390e+02   6.7911410e+01
   5.3068600e+02   6.6160490e+01
   5.3116810e+02   6.4393460e+01
   5.3165020e+02   6.3531110e+01
   5.3213230e+02   6.3588150e+01
   5.3261440e+02   6.3500060e+01
   5.3309660e+02   6.2761440e+01
   5.3357870e+02   6.1764540e+01
   5.3406080e+02   6.0778270e+01
   5.3454290e+02   5.9958680e+01
   5.3502500e+02   5.8962860e+01
   5.3550710e+02   5.7613920e+01
   5.3598930e+02   5.6149480e+01
   5.3647140e+02   5.4957660e+01
   5.3695350e+02   5.4283020e+01
   5.3743560e+02   5.3375230e+01
   5.3791770e+02   5.1974470e+01
   5.3839980e+02   5.0205120e+01
   5.3888200e+02   4.8829610e+01
   5.3936410e+02   4.7855530e+01
   5.3984620e+02   4.7270720e+01
   5.4032830e+02   4.7422780e+01
   5.4081040e+02   4.8141490e+01
   5.4129250e+02   4.7977680e+01
   5.4177470e+02   4.6753430e+01
   5.4225680e+02   4.5292910e+01
   5.4273890e+02   4.4519620e+01
   5.4322100e+02   4.4216540e+01
   5.4370310e+02   4.3884950e+01
   5.4418520e+02   4.3531630e+01
   5.4466740e+02   4.2824190e+01
   5.4514950e+02   4.1097700e+01
   5.4563160e+02   3.8762770e+01
   5.4611370e+02   3.6830720e+01
   5.4659580e+02   3.5995830e+01
   5.4707790e+02   3.5512220e+01
   5.4756010e+02   3.5011800e+01
   5.4804220e+02   3.4464600e+01
   5.4852430e+02   3.3933150e+01
   5.4900640e+02   3.3802960e+01
   5.4948850e+02   3.3429610e+01
   5.4997060e+02   3.2360440e+01
   5.5045280e+02   2.9797320e+01
   5.5093490e+02   2.8042620e+01
   5.5141700e+02   2.7228440e+01
   5.5189910e+02   2.7148380e+01
   5.5238120e+02   2.7624160e+01
   5.5286330e+02   2.8952480e+01
   5.5334550e+02   2.9331470e+01
   5.5382760e+02   2.7973130e+01
   5.5430970e+02   2.5524320e+01
   5.5479180e+02   2.4224530e+01
   5.5527390e+02   2.4137600e+01
   5.5575600e+02   2.3997020e+01
   5.5623820e+02   2.2945940e+01
   5.5672030e+02   2.1384220e+01
   5.5720240e+02   1.9916700e+01
   5.5768450e+02   1.8555440e+01
   5.5816660e+02   1.7878880e+01
   5.5864870e+02   1.9076520e+01
   5.5913090e+02   2.1000640e+01
   5.5961300e+02   2.2210460e+01
   5.6009510e+02   2.2406460e+01
   5.6057720e+02   2.1820130e+01
   5.6105930e+02   1.9857500e+01
   5.6154140e+02   1.7260710e+01
   5.6202360e+02   1.5376010e+01
   5.6250570e+02   1.5316060e+01
   5.6298780e+02   1.5299820e+01
   5.6346990e+02   1.4723820e+01
   5.6395200e+02   1.3678760e+01
   5.6443410e+02   1.3127670e+01
   5.6491630e+02   1.3437180e+01
   5.6539840e+02   1.3786850e+01
   5.6588050e+02   1.3665440e+01
   5.6636260e+02   1.2909390e+01
   5.6684470e+02   1.2883000e+01
   5.6732680e+02   1.3919190e+01
   5.6780900e+02   1.4802030e+01
   5.6829110e+02   1.3742420e+01
   5.6877320e+02   1.1016460e+01
   5.6925530e+02   9.1120300e+00
   5.6973740e+02   8.6059880e+00
   5.7021950e+02   8.7809600e+00
   5.7070170e+02   8.8794710e+00
   5.7118380e+02   8.9774020e+00
   5.7166590e+02   9.0216370e+00
   5.7214800e+02   9.2331240e+00
   5.7263010e+02   9.2834630e+00
   5.7311220e+02   8.6384280e+00
   5.7359440e+02   7.3934480e+00
   5.7407650e+02   6.5104830e+00
   5.7455860e+02   7.0355380e+00
   5.7504070e+02   7.5611570e+00
   5.7552280e+02   7.0854030e+00
   5.7600490e+02   4.8633880e+00
   5.7648710e+02   3.5841830e+00
   5.7696920e+02   4.1546780e+00
   5.7745130e+02   5.2817840e+00
   5.7793340e+02   5.7475430e+00
   5.7841550e+02   5.2329710e+00
   5.7889760e+02   4.8247830e+00
   5.7937980e+02   4.7886510e+00
   5.7986190e+02   4.8862920e+00
   5.8034400e+02   4.4772340e+00
   5.8082610e+02   3.5148620e+00
   5.8130820e+02   2.5426940e+00
   5.8179030e+02   1.7323910e+00
   5.8227250e+02   1.1413270e+00
   5.8275460e+02   1.0274050e+00
   5.8323670e+02   1.3467560e+00
   5.8371880e+02   1.7275240e+00
   5.8420090e+02   1.9657900e+00
   5.8468300e+02   2.1459050e+00
   5.8516520e+02   2.4337920e+00
   5.8564730e+02   2.8977360e+00
   5.8612940e+02   3.0755160e+00
   5.8661150e+02   2.1847230e+00
   5.8709360e+02   1.1064450e+00
   5.8757570e+02   7.8280600e-01
   5.8805780e+02   2.8202060e+00
   5.8853990e+02   4.0012510e+00
   5.8902200e+02   3.1046140e+00
   5.8950420e+02   1.0086520e+00
   5.8998630e+02   2.3085000e-01
   5.9046840e+02   2.5183100e-01
   5.9095050e+02   1.2070000e-02
   5.9143260e+02   4.2483500e-01
   5.9191470e+02   9.9704000e-01
   5.9239690e+02   9.5895400e-01
   5.9287900e+02   1.7308000e-01
   5.9336110e+02   6.1682100e-01
   5.9384320e+02   8.3308400e-01
   5.9432530e+02   6.0395800e-01
   5.9480740e+02   7.4516300e-01
   5.9528960e+02   1.3287660e+00
   5.9577170e+02   1.8561710e+00
   5.9625380e+02   1.5908970e+00
   5.9673590e+02   9.6762100e-01
   5.9721800e+02   8.6378500e-01
   5.9770010e+02   1.8239140e+00
   5.9818230e+02   2.6425320e+00
   5.9866440e+02   2.1705170e+00
   5.9914650e+02   1.0463260e+00
   5.9962860e+02   3.5490400e-01
   6.0011070e+02   9.5909100e-01
   6.0059280e+02   1.5709530e+00
   6.0107500e+02   1.8478090e+00
   6.0155710e+02   1.7952730e+00
   6.0203920e+02   1.5569920e+00
   6.0252130e+02   8.1259200e-01
   6.0300340e+02   2.9640200e-01
   6.0348550e+02   4.3235800e-01
   6.0396770e+02   1.3056640e+00
   6.0444980e+02   1.5917820e+00
   6.0493190e+02   1.1745000e+00
   6.0541400e+02   5.5622900e-01
   6.0589610e+02   2.4539200e-01
   6.0637820e+02   1.6807600e-01
   6.0686040e+02   2.7174400e-01
   6.0734250e+02   1.2731170e+00
   6.0782460e+02   2.0636750e+00
   6.0830670e+02   1.4843900e+00
   6.0878880e+02   2.3697000e-02
   6.0927090e+02   1.2739110e+00
   6.0975310e+02   2.1990810e+00
   6.1023520e+02   2.6316220e+00
   6.1071730e+02   2.3017730e+00
   6.1119940e+02   1.4159850e+00
   6.1168150e+02   5.2198800e-01
   6.1216360e+02   7.6727300e-01
   6.1264580e+02   1.5173950e+00
   6.1312790e+02   9.9311800e-01
   6.1361000e+02   8.7698400e-01
   6.1409210e+02   1.7313390e+00
   6.1457420e+02   8.7771600e-01
   6.1505630e+02   8.0017000e-02
   6.1553850e+02   1.4483600e-01
   6.1602060e+02   9.5204200e-01
   6.1650270e+02   1.2694850e+00
   6.1698480e+02   5.9513900e-01
   6.1746690e+02   2.2750900e-01
   6.1794900e+02   5.6899998e-02
   6.1843120e+02   1.1525120e+00
   6.1891330e+02   1.3629910e+00
   6.1939540e+02   4.4539999e-02
   6.1987750e+02   1.4544980e+00
   6.2035960e+02   1.1969910e+00
   6.2084170e+02   1.1201500e-01
   6.2132390e+02   8.9193700e-01
   6.2180600e+02   3.9000999e-02
   6.2228810e+02   1.1944580e+00
   6.2277020e+02   1.8495640e+00
   6.2325230e+02   2.0387730e+00
   6.2373440e+02   1.9473720e+00
   6.2421660e+02   1.2488250e+00
   6.2469870e+02   6.2525900e-01
   6.2518080e+02   4.4345100e-01
   6.2566290e+02   7.5930800e-01
   6.2614500e+02   6.1328100e-01
   6.2662710e+02   4.8007200e-01
   6.2710930e+02   1.2784730e+00
   6.2759140e+02   4.9746700e-01
   6.2807350e+02   2.0729220e+00
   6.2855560e+02   2.8988040e+00
   6.2903770e+02   1.5120090e+00
   6.2951980e+02   4.7552500e-01
   6.3000200e+02   1.2378080e+00
   6.3048410e+02   1.0455630e+00
   6.3096620e+02   7.3782300e-01
   6.3144830e+02   5.2702300e-01
   6.3193040e+02   2.6390100e-01
   6.3241250e+02   4.5797700e-01
   6.3289470e+02   1.3208010e+00
   6.3337680e+02   1.6919250e+00
   6.3385890e+02   6.4274600e-01
   6.3434100e+02   2.8027300e-01
   6.3482310e+02   4.1542100e-01
   6.3530520e+02   1.5718100e-01
   6.3578740e+02   8.9126600e-01
   6.3626950e+02   2.2363740e+00
   6.3675160e+02   3.1407010e+00
   6.3723370e+02   3.0342710e+00
   6.3771580e+02   1.8363490e+00
   6.3819790e+02   1.5068970e+00
   6.3868010e+02   2.3480680e+00
   6.3916220e+02   3.1731720e+00
   6.3964430e+02   2.7412110e+00
   6.4012640e+02   1.2731780e+00
   6.4060850e+02   8.5891700e-01
   6.4109060e+02   1.7933650e+00
   6.4157280e+02   2.9587860e+00
   6.4205490e+02   3.0385740e+00
   6.4253700e+02   2.5349580e+00
   6.4301910e+02   2.4298100e+00
   6.4350120e+02   3.2502900e+00
   6.4398330e+02   4.0016020e+00
   6.4446550e+02   3.8599400e+00
   6.4494760e+02   3.2665710e+00
   6.4542970e+02   2.9601750e+00
   6.4591180e+02   3.7761230e+00
   6.4639390e+02   4.2138520e+00
   6.4687600e+02   3.4914700e+00
   6.4735820e+02   2.0237730e+00
   6.4784030e+02   1.4705200e+00
   6.4832240e+02   2.2982790e+00
   6.4880450e+02   3.1219940e+00
   6.4928660e+02   3.4336240e+00
   6.4976870e+02   3.2805020e+00
   6.5025090e+02   3.0367280e+00
   6.5073300e+02   2.6815800e+00
   6.5121510e+02   2.4127350e+00
   6.5169720e+02   2.4337160e+00
   6.5217930e+02   2.6620940e+00
   6.5266140e+02   2.8995670e+00
   6.5314360e+02   3.1209720e+00
   6.5362570e+02   3.2656710e+00
   6.5410780e+02   3.2482450e+00
   6.5458990e+02   3.2032320e+00
   6.5507200e+02   3.3078460e+00
   6.5555410e+02   3.8610990e+00
   6.5603630e+02   3.8958440e+00
   6.5651840e+02   2.6284330e+00
   6.5700050e+02   9.7370900e-01
   6.5748260e+02   6.3598998e-02
   6.5796470e+02   1.5222200e-01
   6.5844680e+02   5.2767900e-01
   6.5892900e+02   1.2547610e+00
   6.5941110e+02   2.1717220e+00
   6.5989320e+02   2.8946690e+00
   6.6037530e+02   3.4485470e+00
   6.6085740e+02   3.7611690e+00
   6.6133950e+02   3.6996000e+00
   6.6182170e+02   3.3811040e+00
   6.6230380e+02   3.2552190e+00
   6.6278590e+02   3.3105160e+00
   6.6326800e+02   3.2406160e+00
   6.6375010e+02   2.4542240e+00
   6.6423220e+02   1.6666870e+00
   6.6471440e+02   1.7000580e+00
   6.6519650e+02   2.5587920e+00
   6.6567860e+02   3.4239200e+00
   6.6616070e+02   4.2685240e+00
   6.6664280e+02   4.7675170e+00
   6.6712490e+02   4.5338130e+00
   6.6760710e+02   3.0619050e+00
   6.6808920e+02   2.2869260e+00
   6.6857130e+02   2.7321780e+00
   6.6905340e+02   3.4373320e+00
   6.6953550e+02   3.3564150e+00
   6.7001760e+02   2.2500000e+00
   6.7049980e+02   1.9997250e+00
   6.7098190e+02   2.9997100e+00
   6.7146400e+02   4.2666170e+00
   6.7194610e+02   4.3734440e+00
   6.7242820e+02   3.6995240e+00
   6.7291030e+02   3.3253170e+00
   6.7339250e+02   3.5545500e+00
   6.7387460e+02   4.0109250e+00
   6.7435670e+02   4.7245330e+00
   6.7483880e+02   5.5274350e+00
   6.7532090e+02   5.9257510e+00
   6.7580300e+02   5.2015230e+00
   6.7628520e+02   4.3550870e+00
   6.7676730e+02   3.7853390e+00
   6.7724940e+02   3.5850220e+00
   6.7773150e+02   3.6437070e+00
   6.7821360e+02   4.1749880e+00
   6.7869570e+02   4.4741210e+00
   6.7917790e+02   4.2586980e+00
   6.7966000e+02   3.6595310e+00
   6.8014210e+02   3.2534640e+00
   6.8062420e+02   2.9839170e+00
   6.8110630e+02   2.8984530e+00
   6.8158840e+02   3.3107760e+00
   6.8207060e+02   3.9302060e+00
   6.8255270e+02   3.5294650e+00
   6.8303480e+02   2.0214230e+00
   6.8351690e+02   8.6935400e-01
   6.8399900e+02   1.5922090e+00
   6.8448110e+02   3.0056300e+00
   6.8496330e+02   3.8778230e+00
   6.8544540e+02   3.9598850e+00
   6.8592750e+02   3.9815670e+00
   6.8640960e+02   3.9870910e+00
   6.8689170e+02   3.9779510e+00
   6.8737380e+02   3.8780210e+00
   6.8785600e+02   3.5491030e+00
   6.8833810e+02   3.5849610e+00
   6.8882020e+02   4.1935120e+00
   6.8930230e+02   5.0223540e+00
   6.8978440e+02   5.4864960e+00
   6.9026650e+02   5.5905000e+00
   6.9074870e+02   5.6825410e+00
   6.9123080e+02   5.8582150e+00
   6.9171290e+02   5.9479680e+00
   6.9219500e+02   5.6121220e+00
   6.9267710e+02   5.0095370e+00
   6.9315920e+02   4.6018680e+00
   6.9364140e+02   4.7305600e+00
   6.9412350e+02   5.0223080e+00
   6.9460560e+02   5.0586400e+00
   6.9508770e+02   4.9391630e+00
   6.9556980e+02   5.1119690e+00
   6.9605190e+02   6.2906950e+00
   6.9653410e+02   7.2836300e+00
   6.9701620e+02   7.3714750e+00
   6.9749830e+02   6.5639800e+00
   6.9798040e+02   6.5703740e+00
   6.9846250e+02   7.8324580e+00
   6.9894460e+02   9.1172640e+00
   6.9942680e+02   9.5514680e+00
   6.9990890e+02   9.1799010e+00
   7.0039100e+02   9.3538670e+00
   7.0087310e+02   1.0124950e+01
   7.0135520e+02   1.0864330e+01
   7.0183730e+02   1.0723160e+01
   7.0231950e+02   1.0240480e+01
   7.0280160e+02   1.0490830e+01
   7.0328370e+02   1.1737630e+01
   7.0376580e+02   1.2833570e+01
   7.0424790e+02   1.2440770e+01
   7.0473000e+02   1.1871730e+01
   7.0521220e+02   1.2396940e+01
   7.0569430e+02   1.5076600e+01
   7.0617640e+02   1.7592270e+01
   7.0665850e+02   1.9976200e+01
   7.0714060e+02   2.1957820e+01
   7.0762270e+02   2.3154530e+01
   7.0810490e+02   2.3348130e+01
   7.0858700e+02   2.3601090e+01
   7.0906910e+02   2.3991410e+01
   7.0955120e+02   2.4639340e+01
   7.1003330e+02   2.5765610e+01
   7.1051540e+02   2.7347490e+01
   7.1099760e+02   2.9245420e+01
   7.1147970e+02   3.1511990e+01
   7.1196180e+02   3.3920790e+01
   7.1244390e+02   3.6076800e+01
   7.1292600e+02   3.8176210e+01
   7.1340810e+02   4.0743610e+01
   7.1389030e+02   4.4729740e+01
   7.1437240e+02   4.8448550e+01
   7.1485450e+02   5.1022960e+01
   7.1533660e+02   5.2672620e+01
   7.1581870e+02   5.4972270e+01
   7.1630080e+02   5.8671360e+01
   7.1678300e+02   6.1754650e+01
   7.1726510e+02   6.3023620e+01
   7.1774720e+02   6.2930730e+01
   7.1822930e+02   6.5667800e+01
   7.1871140e+02   7.1412310e+01
   7.1919350e+02   7.6978990e+01
   7.1967570e+02   7.9784560e+01
   7.2015780e+02   8.1213970e+01
   7.2063990e+02   8.4141530e+01
   7.2112200e+02   8.8541520e+01
   7.2160410e+02   9.2851880e+01
   7.2208620e+02   9.5709730e+01
   7.2256840e+02   9.8222240e+01
   7.2305050e+02   1.0132450e+02
   7.2353260e+02   1.0529070e+02
   7.2401470e+02   1.0881810e+02
   7.2449680e+02   1.1126940e+02
   7.2497890e+02   1.1356450e+02
   7.2546110e+02   1.1630820e+02
   7.2594320e+02   1.1963350e+02
   7.2642530e+02   1.2302610e+02
   7.2690740e+02   1.2672710e+02
   7.2738950e+02   1.2992100e+02
   7.2787160e+02   1.3141400e+02
   7.2835380e+02   1.3161550e+02
   7.2883590e+02   1.3216620e+02
   7.2931800e+02   1.3343670e+02
   7.2980010e+02   1.3462470e+02
   7.3028220e+02   1.3517830e+02
   7.3076430e+02   1.3515510e+02
   7.3124650e+02   1.3456710e+02
   7.3172860e+02   1.3278220e+02
   7.3221070e+02   1.3142660e+02
   7.3269280e+02   1.3183340e+02
   7.3317490e+02   1.3260420e+02
   7.3365700e+02   1.3156620e+02
   7.3413920e+02   1.2777260e+02
   7.3462130e+02   1.2428520e+02
   7.3510340e+02   1.2155720e+02
   7.3558550e+02   1.1928070e+02
   7.3606760e+02   1.1666160e+02
   7.3654970e+02   1.1376420e+02
   7.3703190e+02   1.1167320e+02
   7.3751400e+02   1.1121230e+02
   7.3799610e+02   1.1114770e+02
   7.3847820e+02   1.0995710e+02
   7.3896030e+02   1.0772770e+02
   7.3944240e+02   1.0507780e+02
   7.3992460e+02   1.0159710e+02
   7.4040670e+02   9.8431210e+01
   7.4088880e+02   9.6316700e+01
   7.4137090e+02   9.5040420e+01
   7.4185300e+02   9.3457290e+01
   7.4233510e+02   9.1311830e+01
   7.4281730e+02   8.9168170e+01
   7.4329940e+02   8.7228840e+01
   7.4378150e+02   8.5410630e+01
   7.4426360e+02   8.3281430e+01
   7.4474570e+02   8.0726180e+01
   7.4522780e+02   7.8044540e+01
   7.4571000e+02   7.5453190e+01
   7.4619210e+02   7.2853470e+01
   7.4667420e+02   6.9943150e+01
   7.4715630e+02   6.6780720e+01
   7.4763840e+02   6.3973360e+01
   7.4812050e+02   6.2291660e+01
   7.4860270e+02   6.0708370e+01
   7.4908480e+02   5.8452440e+01
   7.4956690e+02   5.5492800e+01
   7.5004900e+02   5.2808490e+01
   7.5053110e+02   5.0636870e+01
   7.5101320e+02   4.8528730e+01
   7.5149540e+02   4.6359220e+01
   7.5197750e+02   4.4147350e+01
   7.5245960e+02   4.1034330e+01
   7.5294170e+02   3.6671520e+01
   7.5342380e+02   3.3069050e+01
   7.5390590e+02   3.2478990e+01
   7.5438810e+02   3.3718230e+01
   7.5487020e+02   3.3737790e+01
   7.5535230e+02   3.2318050e+01
   7.5583440e+02   3.0306750e+01
   7.5631650e+02   2.7865660e+01
   7.5679860e+02   2.5380430e+01
   7.5728080e+02   2.3243870e+01
   7.5776290e+02   2.1629880e+01
   7.5824500e+02   1.9957060e+01
   7.5872710e+02   1.7482910e+01
   7.5920920e+02   1.5460450e+01
   7.5969130e+02   1.4989460e+01
   7.6017350e+02   1.6805530e+01
   7.6065560e+02   1.6779430e+01
   7.6113770e+02   1.4362210e+01
   7.6161980e+02   1.1527500e+01
   7.6210190e+02   1.0453280e+01
   7.6258400e+02   1.0751590e+01
   7.6306620e+02   1.1441060e+01
   7.6354830e+02   1.2531560e+01
   7.6403040e+02   1.3070600e+01
   7.6451250e+02   1.1761410e+01
   7.6499460e+02   9.6648710e+00
   7.6547670e+02   7.9947200e+00
   7.6595890e+02   7.1137540e+00
   7.6644100e+02   6.4933010e+00
   7.6692310e+02   6.1251980e+00
   7.6740520e+02   5.9277340e+00
   7.6788730e+02   5.8294530e+00
   7.6836940e+02   5.8437350e+00
   7.6885160e+02   5.9660030e+00
   7.6933370e+02   6.2708280e+00
   7.6981580e+02   6.6240540e+00
   7.7029790e+02   6.3328090e+00
   7.7078000e+02   5.5859680e+00
   7.7126210e+02   5.4487150e+00
   7.7174430e+02   6.5896000e+00
   7.7222640e+02   7.4033810e+00
   7.7270850e+02   5.8994290e+00
   7.7319060e+02   3.3649140e+00
   7.7367270e+02   1.7192230e+00
   7.7415480e+02   2.1186830e+00
   7.7463700e+02   2.7218020e+00
   7.7511910e+02   3.5782620e+00
   7.7560120e+02   4.3196870e+00
   7.7608330e+02   4.1708370e+00
   7.7656540e+02   2.8454740e+00
   7.7704750e+02   1.9337160e+00
   7.7752970e+02   1.8524930e+00
   7.7801180e+02   2.0972600e+00
   7.7849390e+02   1.6483760e+00
   7.7897600e+02   7.1290600e-01
   7.7945810e+02   5.0446000e-02
   7.7994020e+02   1.3380400e-01
   7.8042240e+02   1.6743500e-01
   7.8090450e+02   1.5423280e+00
   7.8138660e+02   3.3093570e+00
   7.8186870e+02   4.1672360e+00
   7.8235080e+02   2.6696320e+00
   7.8283290e+02   1.5445710e+00
   7.8331510e+02   1.5093840e+00
   7.8379720e+02   2.0877530e+00
   7.8427930e+02   2.2230990e+00
   7.8476140e+02   1.8527830e+00
   7.8524350e+02   1.3491520e+00
   7.8572560e+02   6.9383200e-01
   7.8620770e+02   1.2104800e-01
   7.8668980e+02   2.9771400e-01
   7.8717190e+02   1.0133360e+00
   7.8765410e+02   1.4845580e+00
   7.8813620e+02   1.1857600e+00
   7.8861830e+02   7.1077000e-01
   7.8910040e+02   3.5371400e-01
   7.8958250e+02   1.3113400e-01
   7.9006460e+02   8.8196002e-02
   7.9054680e+02   3.3264200e-01
   7.9102890e+02   6.6723600e-01
   7.9151100e+02   1.1508940e+00
   7.9199310e+02   1.6676480e+00
   7.9247520e+02   1.7696840e+00
   7.9295730e+02   1.4007570e+00
   7.9343950e+02   1.1506040e+00
   7.9392160e+02   1.3997500e+00
   7.9440370e+02   1.6964110e+00
   7.9488580e+02   7.8064000e-01
   7.9536790e+02   8.8923600e-01
   7.9585000e+02   1.8086550e+00
   7.9633220e+02   3.5594200e-01
   7.9681430e+02   1.1770020e+00
   7.9729640e+02   1.3245390e+00
   7.9777850e+02   4.7390700e-01
   7.9826060e+02   4.2617999e-02
   7.9874270e+02   5.5312999e-02
   7.9922490e+02   7.7780200e-01
   7.9970700e+02   2.8928380e+00
   8.0018910e+02   5.5224300e+00
   8.0067120e+02   5.0510560e+00
   8.0115330e+02   1.4273530e+00
   8.0163540e+02   1.1189120e+00
   8.0211760e+02   1.0666000e-02
   8.0259970e+02   2.4025120e+00
   8.0308180e+02   2.5248260e+00
   8.0356390e+02   1.0023500e+00
   8.0404600e+02   1.9979900e-01
   8.0452810e+02   1.6340600e-01
   8.0501030e+02   6.7700200e-01
   8.0549240e+02   8.5592700e-01
   8.0597450e+02   6.8557700e-01
   8.0645660e+02   2.1153300e-01
   8.0693870e+02   8.3949300e-01
   8.0742080e+02   1.5889590e+00
   8.0790300e+02   1.7618560e+00
   8.0838510e+02   1.4872590e+00
   8.0886720e+02   1.0282290e+00
   8.0934930e+02   4.1915900e-01
   8.0983140e+02   3.2455001e-02
   8.1031350e+02   1.2599200e-01
   8.1079570e+02   3.6667001e-02
   8.1127780e+02   1.0057100e-01
   8.1175990e+02   2.7818300e-01
   8.1224200e+02   4.7473100e-01
   8.1272410e+02   8.4275800e-01
   8.1320620e+02   1.0492550e+00
   8.1368840e+02   9.8716700e-01
   8.1417050e+02   6.8829300e-01
   8.1465260e+02   1.2937900e-01
   8.1513470e+02   8.7773100e-01
   8.1561680e+02   1.3346860e+00
   8.1609890e+02   6.7666600e-01
   8.1658110e+02   4.3371600e-01
   8.1706320e+02   3.5542300e-01
   8.1754530e+02   6.3174400e-01
   8.1802740e+02   1.3843080e+00
   8.1850950e+02   1.1174770e+00
   8.1899160e+02   6.5205400e-01
   8.1947380e+02   5.0645400e-01
   8.1995590e+02   5.7934600e-01
   8.2043800e+02   5.9886200e-01
   8.2092010e+02   1.7784100e-01
   8.2140220e+02   1.7509500e-01
   8.2188430e+02   1.0054780e+00
   8.2236650e+02   2.2059480e+00
   8.2284860e+02   2.4305110e+00
   8.2333070e+02   1.6455380e+00
   8.2381280e+02   9.4397000e-01
   8.2429490e+02   6.3581800e-01
   8.2477700e+02   6.8583700e-01
   8.2525920e+02   1.5370480e+00
   8.2574130e+02   2.6780550e+00
   8.2622340e+02   2.9344480e+00
   8.2670550e+02   3.7529000e-01
   8.2718760e+02   1.5682680e+00
   8.2766970e+02   1.0750730e+00
   8.2815190e+02   8.8435400e-01
   8.2863400e+02   2.0287480e+00
   8.2911610e+02   2.0635530e+00
   8.2959820e+02   1.9235230e+00
   8.3008030e+02   1.7384640e+00
   8.3056240e+02   1.5258640e+00
   8.3104460e+02   1.3425140e+00
   8.3152670e+02   1.1745610e+00
   8.3200880e+02   8.9454700e-01
   8.3249090e+02   2.9391500e-01
   8.3297300e+02   1.0708600e-01
   8.3345510e+02   3.3667000e-01
   8.3393730e+02   1.2513730e+00
   8.3441940e+02   2.0307620e+00
   8.3490150e+02   2.3333280e+00
   8.3538360e+02   2.7639620e+00
   8.3586570e+02   3.8026280e+00
   8.3634780e+02   4.7336270e+00
   8.3683000e+02   4.0515900e+00
   8.3731210e+02   1.4467160e+00
   8.3779420e+02   4.6948200e-01
   8.3827630e+02   2.1262360e+00
   8.3875840e+02   4.4065700e+00
   8.3924050e+02   4.3833160e+00
   8.3972270e+02   2.9671780e+00
   8.4020480e+02   2.0427250e+00
   8.4068690e+02   2.3860630e+00
   8.4116900e+02   2.7129820e+00
   8.4165110e+02   2.1345210e+00
   8.4213320e+02   1.3451080e+00
   8.4261540e+02   1.2003020e+00
   8.4309750e+02   2.0167850e+00
   8.4357960e+02   2.7924500e+00
   8.4406170e+02   3.6038210e+00
   8.4454380e+02   4.1674800e+00
   8.4502590e+02   3.9958340e+00
   8.4550810e+02   3.2314300e+00
   8.4599020e+02   2.4768520e+00
   8.4647230e+02   1.7599030e+00
   8.4695440e+02   1.4698330e+00
   8.4743650e+02   2.4143070e+00
   8.4791860e+02   3.7322240e+00
   8.4840080e+02   4.4518890e+00
   8.4888290e+02   4.1718440e+00
   8.4936500e+02   3.8686220e+00
   8.4984710e+02   3.6826930e+00
   8.5032920e+02   3.5156400e+00
   8.5081130e+02   3.2941280e+00
   8.5129350e+02   3.0174560e+00
   8.5177560e+02   2.6150820e+00
   8.5225770e+02   1.9945680e+00
   8.5273980e+02   1.8455510e+00
   8.5322190e+02   3.2745210e+00
   8.5370400e+02   5.3623350e+00
   8.5418620e+02   6.7844850e+00
   8.5466830e+02   7.2698670e+00
   8.5515040e+02   7.6272890e+00
   8.5563250e+02   8.1365660e+00
   8.5611460e+02   8.7217410e+00
   8.5659670e+02   9.3950350e+00
   8.5707890e+02   1.0199250e+01
   8.5756100e+02   1.0586820e+01
   8.5804310e+02   1.0354550e+01
   8.5852520e+02   1.0309450e+01
   8.5900730e+02   1.1208710e+01
   8.5948940e+02   1.2664960e+01
   8.5997160e+02   1.3498570e+01
   8.6045370e+02   1.3723070e+01
   8.6093580e+02   1.3967640e+01
   8.6141790e+02   1.4910060e+01
   8.6190000e+02   1.5790080e+01
   8.6238210e+02   1.5972530e+01
   8.6286430e+02   1.5470780e+01
   8.6334640e+02   1.5234420e+01
   8.6382850e+02   1.5258910e+01
   8.6431060e+02   1.5690550e+01
   8.6479270e+02   1.6680130e+01
   8.6527480e+02   1.8057310e+01
   8.6575700e+02   1.9234630e+01
   8.6623910e+02   2.0219160e+01
   8.6672120e+02   2.0557510e+01
   8.6720330e+02   1.9316890e+01
   8.6768540e+02   1.7877090e+01
   8.6816750e+02   1.8087940e+01
   8.6864970e+02   1.9311510e+01
   8.6913180e+02   1.9736020e+01
   8.6961390e+02   1.7629970e+01
   8.7009600e+02   1.6039640e+01
   8.7057810e+02   1.6088710e+01
   8.7106020e+02   1.6966920e+01
   8.7154240e+02   1.6414090e+01
   8.7202450e+02   1.4207870e+01
   8.7250660e+02   1.3100230e+01
   8.7298870e+02   1.4326280e+01
   8.7347080e+02   1.5920210e+01
   8.7395290e+02   1.4514880e+01
   8.7443510e+02   1.1206070e+01
   8.7491720e+02   8.4828490e+00
   8.7539930e+02   7.3567350e+00
   8.7588140e+02   6.6416780e+00
   8.7636350e+02   6.1300200e+00
   8.7684560e+02   5.6807560e+00
   8.7732780e+02   5.0656430e+00
   8.7780990e+02   4.1283420e+00
   8.7829200e+02   3.6094970e+00
   8.7877410e+02   3.6091000e+00
   8.7925620e+02   3.8451390e+00
   8.7973830e+02   4.2064970e+00
   8.8022050e+02   4.5188140e+00
   8.8070260e+02   4.1399840e+00
   8.8118470e+02   2.8145900e+00
   8.8166680e+02   1.6042180e+00
   8.8214890e+02   1.0174560e+00
   8.8263100e+02   9.9504100e-01
   8.8311320e+02   1.6448970e+00
   8.8359530e+02   3.5134120e+00
   8.8407740e+02   4.2515560e+00
   8.8455950e+02   3.2986910e+00
   8.8504160e+02   2.1470490e+00
   8.8552370e+02   2.4458470e+00
   8.8600590e+02   3.8941500e+00
   8.8648800e+02   4.0834500e+00
   8.8697010e+02   2.9743650e+00
   8.8745220e+02   1.8749690e+00
   8.8793430e+02   1.7854610e+00
   8.8841640e+02   2.1097720e+00
   8.8889860e+02   2.4282680e+00
   8.8938070e+02   2.6972350e+00
   8.8986280e+02   2.7896120e+00
   8.9034490e+02   2.6004180e+00
   8.9082700e+02   2.3623500e+00
   8.9130910e+02   2.2002410e+00
   8.9179130e+02   2.1075440e+00
   8.9227340e+02   1.9898990e+00
   8.9275550e+02   1.8258210e+00
   8.9323760e+02   1.6270600e+00
   8.9371970e+02   1.2531740e+00
   8.9420180e+02   9.9255400e-01
   8.9468400e+02   1.2538760e+00
   8.9516610e+02   1.8876650e+00
   8.9564820e+02   2.4132390e+00
   8.9613030e+02   2.6867070e+00
   8.9661240e+02   2.7744600e+00
   8.9709450e+02   2.6405640e+00
   8.9757670e+02   2.3984070e+00
   8.9805880e+02   2.2477260e+00
   8.9854090e+02   2.1914060e+00
   8.9902300e+02   1.9140630e+00
   8.9950510e+02   1.1334690e+00
   8.9998720e+02   6.6500900e-01
   9.0046940e+02   2.0603180e+00
   9.0095150e+02   4.3403930e+00
   9.0143360e+02   5.8488920e+00
   9.0191570e+02   5.8402250e+00
   9.0239780e+02   5.5859830e+00
   9.0287990e+02   5.1843260e+00
   9.0336210e+02   4.8333280e+00
   9.0384420e+02   4.8312530e+00
   9.0432630e+02   5.3752900e+00
   9.0480840e+02   4.9067380e+00
   9.0529050e+02   3.0951540e+00
   9.0577260e+02   1.6264800e+00
   9.0625480e+02   2.8022460e+00
   9.0673690e+02   5.1400910e+00
   9.0721900e+02   6.2574770e+00
   9.0770110e+02   5.9510500e+00
   9.0818320e+02   5.0821990e+00
   9.0866530e+02   3.1299900e+00
   9.0914750e+02   1.5640260e+00
   9.0962960e+02   1.3485870e+00
   9.1011170e+02   2.4520720e+00
   9.1059380e+02   2.9781650e+00
   9.1107590e+02   2.7949680e+00
   9.1155800e+02   2.8461000e+00
   9.1204020e+02   3.9405210e+00
   9.1252230e+02   5.4639740e+00
   9.1300440e+02   5.9149930e+00
   9.1348650e+02   5.5493620e+00
   9.1396860e+02   5.2288060e+00
   9.1445070e+02   5.6335600e+00
   9.1493290e+02   5.8441160e+00
   9.1541500e+02   5.1772610e+00
   9.1589710e+02   4.0746310e+00
   9.1637920e+02   3.6644900e+00
   9.1686130e+02   4.1154940e+00
   9.1734340e+02   4.6437680e+00
   9.1782560e+02   5.1622310e+00
   9.1830770e+02   5.6112210e+00
   9.1878980e+02   6.0341950e+00
   9.1927190e+02   6.4147340e+00
   9.1975400e+02   6.3960270e+00
   9.2023610e+02   5.7635190e+00
   9.2071830e+02   5.1782230e+00
   9.2120040e+02   5.0862120e+00
   9.2168250e+02   5.0865940e+00
   9.2216460e+02   4.7253110e+00
   9.2264670e+02   3.7281800e+00
   9.2312880e+02   3.2653050e+00
   9.2361100e+02   3.4822080e+00
   9.2409310e+02   3.8284610e+00
   9.2457520e+02   3.5554050e+00
   9.2505730e+02   3.0399930e+00
   9.2553940e+02   3.3698880e+00
   9.2602150e+02   4.5717770e+00
   9.2650370e+02   5.3450160e+00
   9.2698580e+02   4.4250340e+00
   9.2746790e+02   3.4261930e+00
   9.2795000e+02   3.4397740e+00
   9.2843210e+02   4.3925630e+00
   9.2891420e+02   5.1235500e+00
   9.2939640e+02   5.6402590e+00
   9.2987850e+02   5.8184050e+00
   9.3036060e+02   5.5066680e+00
   9.3084270e+02   4.9614110e+00
   9.3132480e+02   4.7408290e+00
   9.3180690e+02   4.6985320e+00
   9.3228910e+02   4.5339810e+00
   9.3277120e+02   4.1262050e+00
   9.3325330e+02   3.7546080e+00
   9.3373540e+02   3.7241970e+00
   9.3421750e+02   3.8096010e+00
   9.3469960e+02   3.4376830e+00
   9.3518180e+02   2.2155000e+00
   9.3566390e+02   1.8828580e+00
   9.3614600e+02   2.9045260e+00
   9.3662810e+02   4.2984160e+00
   9.3711020e+02   4.6720580e+00
   9.3759230e+02   4.3821870e+00
   9.3807450e+02   4.2188870e+00
   9.3855660e+02   4.3502040e+00
   9.3903870e+02   4.6701050e+00
   9.3952080e+02   5.5076750e+00
   9.4000290e+02   6.2093960e+00
   9.4048500e+02   6.2041320e+00
   9.4096720e+02   5.2879490e+00
   9.4144930e+02   4.8039550e+00
   9.4193140e+02   4.8705600e+00
   9.4241350e+02   5.1654360e+00
   9.4289560e+02   5.6636050e+00
   9.4337770e+02   6.1702730e+00
   9.4385990e+02   6.4284210e+00
   9.4434200e+02   6.4212340e+00
   9.4482410e+02   6.0493930e+00
   9.4530620e+02   4.7859800e+00
   9.4578830e+02   3.6468050e+00
   9.4627040e+02   2.9384610e+00
   9.4675260e+02   2.6853180e+00
   9.4723470e+02   3.2549740e+00
   9.4771680e+02   4.9065700e+00
   9.4819890e+02   5.5741270e+00
   9.4868100e+02   4.4176330e+00
   9.4916310e+02   2.8033910e+00
   9.4964530e+02   2.5303500e+00
   9.5012740e+02   3.2226870e+00
   9.5060950e+02   4.3941350e+00
   9.5109160e+02   6.6654360e+00
   9.5157370e+02   7.7775570e+00
   9.5205580e+02   5.7289280e+00
   9.5253800e+02   3.2408450e+00
   9.5302010e+02   2.6213380e+00
   9.5350220e+02   4.2495730e+00
   9.5398430e+02   4.5578160e+00
   9.5446640e+02   3.3450930e+00
   9.5494850e+02   2.2055210e+00
   9.5543070e+02   2.8106230e+00
   9.5591280e+02   4.0673520e+00
   9.5639490e+02   4.6151730e+00
   9.5687700e+02   4.4180760e+00
   9.5735910e+02   4.0303960e+00
   9.5784120e+02   3.5269780e+00
   9.5832340e+02   2.9523770e+00
   9.5880550e+02   2.1371310e+00
   9.5928760e+02   1.2889400e+00
   9.5976970e+02   1.4713290e+00
   9.6025180e+02   2.6554720e+00
   9.6073390e+02   3.2848050e+00
   9.6121610e+02   2.5179140e+00
   9.6169820e+02   1.4830020e+00
   9.6218030e+02   1.4967350e+00
   9.6266240e+02   2.0258030e+00
   9.6314450e+02   2.2217410e+00
   9.6362660e+02   9.1265900e-01
   9.6410880e+02   8.3168000e-01
   9.6459090e+02   2.9022220e+00
   9.6507300e+02   5.1589050e+00
   9.6555510e+02   5.3355260e+00
   9.6603720e+02   3.6929470e+00
   9.6651930e+02   2.6876830e+00
   9.6700150e+02   2.4964600e+00
   9.6748360e+02   2.1623230e+00
   9.6796570e+02   1.6680900e-01
   9.6844780e+02   1.6856380e+00
   9.6892990e+02   1.4650120e+00
   9.6941200e+02   9.1946400e-01
   9.6989420e+02   2.1743930e+00
   9.7037630e+02   1.7044680e+00
   9.7085840e+02   1.0491490e+00
   9.7134050e+02   6.5806600e-01
   9.7182260e+02   5.3617900e-01
   9.7230470e+02   8.2708700e-01
   9.7278690e+02   1.4266360e+00
   9.7326900e+02   1.9340210e+00
   9.7375110e+02   2.4049990e+00
   9.7423320e+02   2.4138340e+00
   9.7471530e+02   9.4683800e-01
   9.7519740e+02   7.8073100e-01
   9.7567960e+02   8.6261000e-01
   9.7616170e+02   1.9389950e+00
   9.7664380e+02   2.6743930e+00
   9.7712590e+02   6.0607900e-01
   9.7760800e+02   1.7733460e+00
   9.7809010e+02   1.6251830e+00
   9.7857230e+02   2.3193000e-02
   9.7905440e+02   1.2379000e+00
   9.7953650e+02   1.8266450e+00
   9.8001860e+02   1.9712830e+00
   9.8050070e+02   1.5524900e+00
   9.8098280e+02   8.8765000e-01
   9.8146500e+02   1.5300000e-04
   9.8194710e+02   1.0199580e+00
   9.8242910e+02   1.6280060e+00
   9.8291130e+02   1.8272250e+00
   9.8339340e+02   1.5760960e+00
   9.8387550e+02   6.0534700e-01
   9.8435760e+02   4.5069900e-01
   9.8483970e+02   7.2047400e-01
   9.8532180e+02   4.6698000e-01
   9.8580400e+02   1.7953500e-01
   9.8628610e+02   1.1575300e-01
   9.8676820e+02   2.1513400e-01
   9.8725030e+02   1.1723300e-01
   9.8773240e+02   4.1082800e-01
   9.8821450e+02   7.4309997e-02
   9.8869670e+02   1.2578890e+00
   9.8917880e+02   1.1596070e+00
   9.8966090e+02   3.9921600e-01
   9.9014300e+02   1.6461180e+00
   9.9062510e+02   7.6464800e-01
   9.9110720e+02   7.2892800e-01
   9.9158940e+02   1.6383210e+00
   9.9207150e+02   1.8678130e+00
   9.9255360e+02   1.7586520e+00
   9.9303570e+02   1.0821990e+00
   9.9351780e+02   7.1220400e-01
   9.9399990e+02   1.0641020e+00
   9.9448210e+02   1.7073210e+00
   9.9496420e+02   1.5236660e+00
   9.9544630e+02   7.3300200e-01
   9.9592840e+02   2.2964001e-02
   9.9641050e+02   5.0312800e-01
   9.9689260e+02   6.1103800e-01
   9.9737480e+02   4.9173000e-01
   9.9785690e+02   1.6956330e+00
   9.9833900e+02   1.6367950e+00
   9.9882110e+02   3.8002000e-01
   9.9930320e+02   1.0553280e+00
   9.9978530e+02   1.2469500e-01
   1.0002670e+03   9.8257400e-01
   1.0007500e+03   9.7264100e-01
   1.0012320e+03   3.7843300e-01
   1.0017140e+03   4.7363002e-02
   1.0021960e+03   2.3375999e-02
   1.0026780e+03   2.5149500e-01
   1.0031600e+03   1.2510070e+00
   1.0036420e+03   1.8503420e+00
   1.0041240e+03   1.5997620e+00
   1.0046070e+03   7.7682500e-01
   1.0050890e+03   1.1241100e-01
   1.0055710e+03   3.9820900e-01
   1.0060530e+03   9.4101000e-01
   1.0065350e+03   1.6767880e+00
   1.0070170e+03   2.1889800e+00
   1.0074990e+03   1.8703610e+00
   1.0079810e+03   1.1576390e+00
   1.0084630e+03   5.9074400e-01
   1.0089460e+03   4.1963200e-01
   1.0094280e+03   8.7130005e-03
   1.0099100e+03   9.6853600e-01
   1.0103920e+03   1.6183010e+00
   1.0108740e+03   1.0402370e+00
   1.0113560e+03   2.4940500e-01
   1.0118380e+03   3.3784500e-01
   1.0123200e+03   5.5215500e-01
   1.0128020e+03   1.1910550e+00
   1.0132850e+03   7.7520800e-01
   1.0137670e+03   1.7604100e-01
   1.0142490e+03   4.4543500e-01
   1.0147310e+03   9.0118400e-01
   1.0152130e+03   6.8040500e-01
   1.0156950e+03   3.8343800e-01
   1.0161770e+03   1.0059970e+00
   1.0166590e+03   8.4382600e-01
   1.0171420e+03   6.4228800e-01
   1.0176240e+03   1.8162380e+00
   1.0181060e+03   3.3658600e+00
   1.0185880e+03   3.5792540e+00
   1.0190700e+03   1.8350070e+00
   1.0195520e+03   9.2347700e-01
   1.0200340e+03   2.0334930e+00
   1.0205160e+03   3.3634950e+00
   1.0209980e+03   3.9348450e+00
   1.0214810e+03   3.9833830e+00
   1.0219630e+03   5.4144590e+00
   1.0224450e+03   8.0527190e+00
   1.0229270e+03   1.0120150e+01
   1.0234090e+03   1.0341200e+01
   1.0238910e+03   1.0189470e+01
   1.0243730e+03   1.0636430e+01
   1.0248550e+03   1.1358860e+01
   1.0253380e+03   1.1794770e+01
   1.0258200e+03   1.1864580e+01
   1.0263020e+03   1.1371080e+01
   1.0267840e+03   1.0248490e+01
   1.0272660e+03   9.4541470e+00
   1.0277480e+03   1.0016890e+01
   1.0282300e+03   1.1271290e+01
   1.0287120e+03   1.1959370e+01
   1.0291940e+03   1.2027400e+01
   1.0296770e+03   1.2472020e+01
   1.0301590e+03   1.4022380e+01
   1.0306410e+03   1.5716380e+01
   1.0311230e+03   1.7165410e+01
   1.0316050e+03   1.8479370e+01
   1.0320870e+03   2.0352840e+01
   1.0325690e+03   2.2663670e+01
   1.0330510e+03   2.3702530e+01
   1.0335340e+03   2.2414600e+01
   1.0340160e+03   2.1504710e+01
   1.0344980e+03   2.3715520e+01
   1.0349800e+03   2.7218900e+01
   1.0354620e+03   2.9718080e+01
   1.0359440e+03   3.0685130e+01
   1.0364260e+03   3.2116560e+01
   1.0369080e+03   3.4214290e+01
   1.0373910e+03   3.5973570e+01
   1.0378730e+03   3.5865360e+01
   1.0383550e+03   3.5130740e+01
   1.0388370e+03   3.7641980e+01
   1.0393190e+03   4.2619870e+01
   1.0398010e+03   4.6556920e+01
   1.0402830e+03   4.6858290e+01
   1.0407650e+03   4.7067990e+01
   1.0412470e+03   4.8420520e+01
   1.0417290e+03   5.0399610e+01
   1.0422120e+03   5.1823320e+01
   1.0426940e+03   5.2600190e+01
   1.0431760e+03   5.5554210e+01
   1.0436580e+03   6.1461930e+01
   1.0441400e+03   6.6897580e+01
   1.0446220e+03   6.7785290e+01
   1.0451040e+03   6.7508210e+01
   1.0455860e+03   6.9530210e+01
   1.0460690e+03   7.4373840e+01
   1.0465510e+03   7.8303500e+01
   1.0470330e+03   8.0943360e+01
   1.0475150e+03   8.3556920e+01
   1.0479970e+03   8.6403930e+01
   1.0484790e+03   8.9567500e+01
   1.0489610e+03   9.3519270e+01
   1.0494430e+03   9.7854510e+01
   1.0499260e+03   1.0154840e+02
   1.0504080e+03   1.0319860e+02
   1.0508900e+03   1.0603180e+02
   1.0513720e+03   1.1219560e+02
   1.0518540e+03   1.1913370e+02
   1.0523360e+03   1.2491000e+02
   1.0528180e+03   1.2955970e+02
   1.0533000e+03   1.3392740e+02
   1.0537820e+03   1.3800450e+02
   1.0542650e+03   1.4308700e+02
   1.0547470e+03   1.5113410e+02
   1.0552290e+03   1.5968460e+02
   1.0557110e+03   1.6635160e+02
   1.0561930e+03   1.7181010e+02
   1.0566750e+03   1.7875480e+02
   1.0571570e+03   1.8811680e+02
   1.0576390e+03   1.9645920e+02
   1.0581210e+03   2.0277090e+02
   1.0586040e+03   2.0900530e+02
   1.0590860e+03   2.1821900e+02
   1.0595680e+03   2.2918120e+02
   1.0600500e+03   2.3954170e+02
   1.0605320e+03   2.4883540e+02
   1.0610140e+03   2.5872930e+02
   1.0614960e+03   2.7017090e+02
   1.0619780e+03   2.8187270e+02
   1.0624610e+03   2.9294200e+02
   1.0629430e+03   3.0379590e+02
   1.0634250e+03   3.1680700e+02
   1.0639070e+03   3.3199180e+02
   1.0643890e+03   3.4892970e+02
   1.0648710e+03   3.6825160e+02
   1.0653530e+03   3.8816350e+02
   1.0658350e+03   4.0744070e+02
   1.0663180e+03   4.2635030e+02
   1.0668000e+03   4.4550660e+02
   1.0672820e+03   4.6369390e+02
   1.0677640e+03   4.8646150e+02
   1.0682460e+03   5.1418510e+02
   1.0687280e+03   5.4376950e+02
   1.0692100e+03   5.7213260e+02
   1.0696920e+03   6.0123590e+02
   1.0701740e+03   6.3283340e+02
   1.0706560e+03   6.6770700e+02
   1.0711390e+03   7.0917930e+02
   1.0716210e+03   7.6235330e+02
   1.0721030e+03   8.1692270e+02
   1.0725850e+03   8.7003700e+02
   1.0730670e+03   9.2567560e+02
   1.0735490e+03   9.9067800e+02
   1.0740310e+03   1.0637090e+03
   1.0745130e+03   1.1452880e+03
   1.0749960e+03   1.2349710e+03
   1.0754780e+03   1.3283300e+03
   1.0759600e+03   1.4215300e+03
   1.0764420e+03   1.5173240e+03
   1.0769240e+03   1.6169020e+03
   1.0774060e+03   1.7207760e+03
   1.0778880e+03   1.8239390e+03
   1.0783700e+03   1.9260940e+03
   1.0788530e+03   2.0333810e+03
   1.0793350e+03   2.1467120e+03
   1.0798170e+03   2.2661650e+03
   1.0802990e+03   2.3939690e+03
   1.0807810e+03   2.5289540e+03
   1.0812630e+03   2.6676470e+03
   1.0817450e+03   2.8101060e+03
   1.0822270e+03   2.9617440e+03
   1.0827090e+03   3.1229270e+03
   1.0831920e+03   3.2914650e+03
   1.0836740e+03   3.4698100e+03
   1.0841560e+03   3.6546320e+03
   1.0846380e+03   3.8470490e+03
   1.0851200e+03   4.0402670e+03
   1.0856020e+03   4.2161240e+03
   1.0860840e+03   4.3815950e+03
   1.0865660e+03   4.5109910e+03
   1.0870480e+03   4.6039250e+03
   1.0875310e+03   4.6565940e+03
   1.0880130e+03   4.6662370e+03
   1.0884950e+03   4.6316380e+03
   1.0889770e+03   4.5387100e+03
   1.0894590e+03   4.3864650e+03
   1.0899410e+03   4.1928190e+03
   1.0904230e+03   3.9541010e+03
   1.0909050e+03   3.6933230e+03
   1.0913870e+03   3.4163060e+03
   1.0918700e+03   3.1280990e+03
   1.0923520e+03   2.8507960e+03
   1.0928340e+03   2.5819500e+03
   1.0933160e+03   2.3305460e+03
   1.0937980e+03   2.0982610e+03
   1.0942800e+03   1.8856200e+03
   1.0947620e+03   1.6943340e+03
   1.0952440e+03   1.5225010e+03
   1.0957270e+03   1.3681500e+03
   1.0962090e+03   1.2337020e+03
   1.0966910e+03   1.1109530e+03
   1.0971730e+03   9.9977840e+02
   1.0976550e+03   9.0061740e+02
   1.0981370e+03   8.1455760e+02
   1.0986190e+03   7.3982700e+02
   1.0991010e+03   6.7350120e+02
   1.0995830e+03   6.1583890e+02
   1.1000660e+03   5.6380800e+02
   1.1005480e+03   5.1693690e+02
   1.1010300e+03   4.7441550e+02
   1.1015120e+03   4.3755670e+02
   1.1019940e+03   4.0416230e+02
   1.1024760e+03   3.7240130e+02
   1.1029580e+03   3.4262060e+02
   1.1034400e+03   3.1748320e+02
   1.1039220e+03   2.9674720e+02
   1.1044050e+03   2.7748620e+02
   1.1048870e+03   2.5680480e+02
   1.1053690e+03   2.3814960e+02
   1.1058510e+03   2.2396830e+02
   1.1063330e+03   2.1255990e+02
   1.1068150e+03   2.0087500e+02
   1.1072970e+03   1.8881280e+02
   1.1077790e+03   1.7693890e+02
   1.1082620e+03   1.6516600e+02
   1.1087440e+03   1.5430190e+02
   1.1092260e+03   1.4529680e+02
   1.1097080e+03   1.3721770e+02
   1.1101900e+03   1.2902360e+02
   1.1106720e+03   1.2077150e+02
   1.1111540e+03   1.1299610e+02
   1.1116360e+03   1.0559580e+02
   1.1121190e+03   9.8935940e+01
   1.1126010e+03   9.3181850e+01
   1.1130830e+03   8.8050420e+01
   1.1135650e+03   8.3228940e+01
   1.1140470e+03   7.8480830e+01
   1.1145290e+03   7.3335220e+01
   1.1150110e+03   6.7510650e+01
   1.1154930e+03   6.2503510e+01
   1.1159750e+03   5.9092760e+01
   1.1164580e+03   5.5842730e+01
   1.1169400e+03   5.1883870e+01
   1.1174220e+03   4.7718440e+01
   1.1179040e+03   4.5442370e+01
   1.1183860e+03   4.4468440e+01
   1.1188680e+03   4.2466660e+01
   1.1193500e+03   3.7814650e+01
   1.1198320e+03   3.3632000e+01
   1.1203140e+03   3.1265410e+01
   1.1207970e+03   2.9883530e+01
   1.1212790e+03   2.9092100e+01
   1.1217610e+03   2.8885480e+01
   1.1222430e+03   2.8038380e+01
   1.1227250e+03   2.6581100e+01
   1.1232070e+03   2.5225880e+01
   1.1236890e+03   2.5046650e+01
   1.1241710e+03   2.4450360e+01
   1.1246540e+03   2.1815460e+01
   1.1251360e+03   1.8260830e+01
   1.1256180e+03   1.5835240e+01
   1.1261000e+03   1.4726380e+01
   1.1265820e+03   1.3833220e+01
   1.1270640e+03   1.3112930e+01
   1.1275460e+03   1.2409390e+01
   1.1280280e+03   1.1426410e+01
   1.1285100e+03   1.0515640e+01
   1.1289930e+03   1.0296460e+01
   1.1294750e+03   1.0560580e+01
   1.1299570e+03   1.0016240e+01
   1.1304390e+03   8.0502470e+00
   1.1309210e+03   6.8668670e+00
   1.1314030e+03   7.0013580e+00
   1.1318850e+03   7.5406490e+00
   1.1323670e+03   7.4060820e+00
   1.1328490e+03   6.8202970e+00
   1.1333320e+03   6.0624540e+00
   1.1338140e+03   5.1795650e+00
   1.1342960e+03   4.5243680e+00
   1.1347780e+03   4.4281460e+00
   1.1352600e+03   4.0939480e+00
   1.1357420e+03   3.1040950e+00
   1.1362240e+03   1.9599910e+00
   1.1367060e+03   2.0492860e+00
   1.1371890e+03   2.8119350e+00
   1.1376710e+03   2.5581970e+00
   1.1381530e+03   4.8829700e-01
   1.1386350e+03   8.7283300e-01
   1.1391170e+03   4.6368400e-01
   1.1395990e+03   1.6539150e+00
   1.1400810e+03   1.0722050e+00
   1.1405630e+03   7.4610900e-01
   1.1410460e+03   1.2632900e+00
   1.1415280e+03   6.4915500e-01
   1.1420100e+03   2.7906800e-01
   1.1424920e+03   1.5481570e+00
   1.1429740e+03   2.3560030e+00
   1.1434560e+03   2.1013340e+00
   1.1439380e+03   1.4045870e+00
   1.1444200e+03   7.5637800e-01
   1.1449020e+03   1.4805600e-01
   1.1453850e+03   1.9778400e-01
   1.1458670e+03   2.9347200e-01
   1.1463490e+03   3.6682100e-01
   1.1468310e+03   8.6514300e-01
   1.1473130e+03   1.0691990e+00
   1.1477950e+03   3.1097400e-01
   1.1482770e+03   1.9732670e+00
   1.1487590e+03   1.5191650e+00
   1.1492410e+03   1.8130490e+00
   1.1497240e+03   3.0717010e+00
   1.1502060e+03   1.8894500e+00
   1.1506880e+03   2.6249700e-01
   1.1511700e+03   5.2478000e-01
   1.1516520e+03   6.8800400e-01
   1.1521340e+03   1.3321000e-02
   1.1526160e+03   1.1500400e+00
   1.1530980e+03   1.4409030e+00
   1.1535810e+03   3.2331800e-01
   1.1540630e+03   1.3673400e-01
   1.1545450e+03   1.4203030e+00
   1.1550270e+03   2.6546630e+00
   1.1555090e+03   1.3278960e+00
   1.1559910e+03   5.6163000e-01
   1.1564730e+03   1.3719200e-01
   1.1569550e+03   3.3786160e+00
   1.1574380e+03   4.4368290e+00
   1.1579200e+03   1.6460270e+00
   1.1584020e+03   1.7422500e-01
   1.1588840e+03   3.1355300e-01
   1.1593660e+03   1.7478940e+00
   1.1598480e+03   2.6303250e+00
   1.1603300e+03   2.8368680e+00
   1.1608120e+03   1.6721650e+00
   1.1612940e+03   1.2374880e+00
   1.1617760e+03   2.3637240e+00
   1.1622590e+03   1.0784900e-01
   1.1627410e+03   2.3409420e+00
   1.1632230e+03   3.0465700e+00
   1.1637050e+03   2.6539150e+00
   1.1641870e+03   1.8033290e+00
   1.1646690e+03   6.6748000e-01
   1.1651510e+03   4.2051700e-01
   1.1656330e+03   1.4817500e+00
   1.1661160e+03   2.0903780e+00
   1.1665980e+03   2.0197910e+00
   1.1670800e+03   1.6121520e+00
   1.1675620e+03   8.4793100e-01
   1.1680440e+03   5.0400000e-02
   1.1685260e+03   9.6450999e-02
   1.1690080e+03   4.4975300e-01
   1.1694900e+03   6.3592500e-01
   1.1699730e+03   2.7500900e-01
   1.1704550e+03   8.1333900e-01
   1.1709370e+03   3.5058600e-01
   1.1714190e+03   5.7460000e-01
   1.1719010e+03   1.9485470e+00
   1.1723830e+03   3.5746770e+00
   1.1728650e+03   3.6180270e+00
   1.1733470e+03   2.3442380e+00
   1.1738290e+03   1.2560420e+00
   1.1743120e+03   1.0030670e+00
   1.1747940e+03   1.2292330e+00
   1.1752760e+03   2.3877110e+00
   1.1757580e+03   3.5103450e+00
   1.1762400e+03   3.4769290e+00
   1.1767220e+03   2.3347930e+00
   1.1772040e+03   2.0178380e+00
   1.1776860e+03   2.4919430e+00
   1.1781680e+03   2.8101960e+00
   1.1786510e+03   2.0330960e+00
   1.1791330e+03   1.3348850e+00
   1.1796150e+03   1.3368230e+00
   1.1800970e+03   1.7783050e+00
   1.1805790e+03   2.3921810e+00
   1.1810610e+03   3.1763760e+00
   1.1815430e+03   3.7742160e+00
   1.1820250e+03   4.1641240e+00
   1.1825080e+03   4.3659520e+00
   1.1829900e+03   4.0785220e+00
   1.1834720e+03   3.9215090e+00
   1.1839540e+03   4.5715330e+00
   1.1844360e+03   5.5799410e+00
   1.1849180e+03   5.9486390e+00
   1.1854000e+03   5.6488190e+00
   1.1858820e+03   5.1605530e+00
   1.1863650e+03   4.5184780e+00
   1.1868470e+03   4.0621950e+00
   1.1873290e+03   4.3480530e+00
   1.1878110e+03   4.6855320e+00
   1.1882930e+03   4.4407500e+00
   1.1887750e+03   3.7933650e+00
   1.1892570e+03   3.2499390e+00
   1.1897390e+03   2.7241820e+00
   1.1902210e+03   3.3294980e+00
   1.1907030e+03   5.5275120e+00
   1.1911860e+03   7.4520260e+00
   1.1916680e+03   6.8940280e+00
   1.1921500e+03   5.5990300e+00
   1.1926320e+03   5.1443940e+00
   1.1931140e+03   5.4743960e+00
   1.1935960e+03   5.2666930e+00
   1.1940780e+03   4.4240110e+00
   1.1945600e+03   4.0116270e+00
   1.1950430e+03   4.4101870e+00
   1.1955250e+03   5.0082090e+00
   1.1960070e+03   5.2333980e+00
   1.1964890e+03   5.2899630e+00
   1.1969710e+03   5.4563450e+00
   1.1974530e+03   5.7311860e+00
   1.1979350e+03   5.9356990e+00
   1.1984170e+03   6.1104280e+00
   1.1989000e+03   5.5644380e+00
   1.1993820e+03   3.6304930e+00
   1.1998640e+03   2.0845180e+00
   1.2003460e+03   3.5858760e+00
   1.2008280e+03   6.0377810e+00
   1.2013100e+03   6.8505400e+00
   1.2017920e+03   5.6233060e+00
   1.2022740e+03   4.9649660e+00
   1.2027560e+03   4.9167180e+00
   1.2032390e+03   5.0937960e+00
   1.2037210e+03   5.3719480e+00
   1.2042030e+03   5.7297670e+00
   1.2046850e+03   6.1545870e+00
   1.2051670e+03   6.6212010e+00
   1.2056490e+03   7.2365260e+00
   1.2061310e+03   8.2182160e+00
   1.2066130e+03   8.0370940e+00
   1.2070950e+03   6.2965090e+00
   1.2075780e+03   5.0091250e+00
   1.2080600e+03   5.7265630e+00
   1.2085420e+03   7.0847170e+00
   1.2090240e+03   7.4335020e+00
   1.2095060e+03   7.3595280e+00
   1.2099880e+03   7.9037630e+00
   1.2104700e+03   9.5144960e+00
   1.2109520e+03   9.9015200e+00
   1.2114350e+03   8.9979860e+00
   1.2119170e+03   8.0399780e+00
   1.2123990e+03   7.5481110e+00
   1.2128810e+03   7.5144810e+00
   1.2133630e+03   8.8478240e+00
   1.2138450e+03   1.0558460e+01
   1.2143270e+03   1.0522140e+01
   1.2148090e+03   7.5977780e+00
   1.2152920e+03   6.0603180e+00
   1.2157740e+03   6.3080750e+00
   1.2162560e+03   7.0416110e+00
   1.2167380e+03   7.4833830e+00
   1.2172200e+03   7.5370030e+00
   1.2177020e+03   6.8778080e+00
   1.2181840e+03   5.9667360e+00
   1.2186660e+03   5.8305050e+00
   1.2191480e+03   6.8166050e+00
   1.2196300e+03   7.5163120e+00
   1.2201130e+03   7.8363190e+00
   1.2205950e+03   7.6844640e+00
   1.2210770e+03   6.8614650e+00
   1.2215590e+03   5.9318850e+00
   1.2220410e+03   5.2077640e+00
   1.2225230e+03   4.8095400e+00
   1.2230050e+03   4.9902500e+00
   1.2234870e+03   5.9386750e+00
   1.2239700e+03   6.2810210e+00
   1.2244520e+03   5.9017940e+00
   1.2249340e+03   5.2526400e+00
   1.2254160e+03   4.0142520e+00
   1.2258980e+03   3.2170100e+00
   1.2263800e+03   4.4859010e+00
   1.2268620e+03   6.9041900e+00
   1.2273440e+03   7.4865720e+00
   1.2278270e+03   6.0852510e+00
   1.2283090e+03   5.4091340e+00
   1.2287910e+03   5.5635530e+00
   1.2292730e+03   5.9156800e+00
   1.2297550e+03   6.4693150e+00
   1.2302370e+03   6.8092960e+00
   1.2307190e+03   6.2990110e+00
   1.2312010e+03   5.3120420e+00
   1.2316830e+03   4.7092290e+00
   1.2321660e+03   4.5537110e+00
   1.2326480e+03   4.8753200e+00
   1.2331300e+03   5.6723480e+00
   1.2336120e+03   6.0767060e+00
   1.2340940e+03   4.8195500e+00
   1.2345760e+03   3.4606930e+00
   1.2350580e+03   3.4242860e+00
   1.2355400e+03   4.1044160e+00
   1.2360220e+03   3.7876430e+00
   1.2365050e+03   2.4349980e+00
   1.2369870e+03   2.0848080e+00
   1.2374690e+03   3.1316380e+00
   1.2379510e+03   4.3684840e+00
   1.2384330e+03   5.3032990e+00
   1.2389150e+03   5.6594540e+00
   1.2393970e+03   4.7299650e+00
   1.2398790e+03   3.2710270e+00
   1.2403620e+03   3.0115360e+00
   1.2408440e+03   3.8483430e+00
   1.2413260e+03   4.2538600e+00
   1.2418080e+03   3.9463960e+00
   1.2422900e+03   3.4305270e+00
   1.2427720e+03   3.0653530e+00
   1.2432540e+03   2.9401700e+00
   1.2437360e+03   3.3455810e+00
   1.2442190e+03   3.9584660e+00
   1.2447010e+03   3.9732970e+00
   1.2451830e+03   3.4430690e+00
   1.2456650e+03   2.4213710e+00
   1.2461470e+03   8.2354700e-01
   1.2466290e+03   5.5793800e-01
   1.2471110e+03   4.7670290e+00
   1.2475930e+03   8.0628360e+00
   1.2480750e+03   7.7915800e+00
   1.2485570e+03   5.4936220e+00
   1.2490400e+03   4.5283810e+00
   1.2495220e+03   4.6612700e+00
   1.2500040e+03   5.2344060e+00
   1.2504860e+03   6.1909940e+00
   1.2509680e+03   6.4325260e+00
   1.2514500e+03   4.6500240e+00
   1.2519320e+03   3.0176390e+00
   1.2524140e+03   2.2775880e+00
   1.2528970e+03   2.1534880e+00
   1.2533790e+03   2.1903380e+00
   1.2538610e+03   2.3383180e+00
   1.2543430e+03   2.4490050e+00
   1.2548250e+03   2.4865720e+00
   1.2553070e+03   2.6720430e+00
   1.2557890e+03   3.2895660e+00
   1.2562710e+03   3.7718960e+00
   1.2567540e+03   3.9891660e+00
   1.2572360e+03   3.9104160e+00
   1.2577180e+03   2.9753420e+00
   1.2582000e+03   1.8776860e+00
   1.2586820e+03   2.2436070e+00
   1.2591640e+03   4.4819490e+00
   1.2596460e+03   5.7953490e+00
   1.2601280e+03   5.4990390e+00
   1.2606100e+03   4.9270940e+00
   1.2610930e+03   4.5031890e+00
   1.2615750e+03   4.1146550e+00
   1.2620570e+03   3.8454590e+00
   1.2625390e+03   3.4179840e+00
   1.2630210e+03   2.0034640e+00
   1.2635030e+03   6.2057500e-01
   1.2639850e+03   9.7757000e-01
   1.2644670e+03   1.9391330e+00
   1.2649490e+03   3.9016570e+00
   1.2654320e+03   3.3339540e+00
   1.2659140e+03   2.1111300e+00
   1.2663960e+03   2.1310880e+00
   1.2668780e+03   2.5387420e+00
   1.2673600e+03   2.1660610e+00
   1.2678420e+03   9.0847800e-01
   1.2683240e+03   6.5860000e-01
   1.2688060e+03   1.5360260e+00
   1.2692890e+03   2.4446560e+00
   1.2697710e+03   3.1318210e+00
   1.2702530e+03   3.4850920e+00
   1.2707350e+03   3.1316680e+00
   1.2712170e+03   2.5925600e+00
   1.2716990e+03   2.4288180e+00
   1.2721810e+03   2.5746460e+00
   1.2726630e+03   2.5118260e+00
   1.2731460e+03   2.2478490e+00
   1.2736280e+03   2.2928770e+00
   1.2741100e+03   1.9427800e+00
   1.2745920e+03   2.4955290e+00
   1.2750740e+03   2.8363950e+00
   1.2755560e+03   2.9976200e+00
   1.2760380e+03   3.0562900e+00
   1.2765200e+03   2.9148710e+00
   1.2770020e+03   2.0115510e+00
   1.2774840e+03   4.8268100e-01
   1.2779670e+03   2.1835300e-01
   1.2784490e+03   3.7104800e-01
   1.2789310e+03   1.1481320e+00
   1.2794130e+03   1.8747250e+00
   1.2798950e+03   2.3652800e+00
   1.2803770e+03   2.5732570e+00
   1.2808590e+03   2.4690400e+00
   1.2813410e+03   1.5413210e+00
   1.2818230e+03   9.5364400e-01
   1.2823060e+03   6.9052100e-01
   1.2827880e+03   1.0245820e+00
   1.2832700e+03   9.8822000e-01
   1.2837520e+03   0.0000000e+00
   1.5000000e+03   0.0000000e+00
