   1.0000000e+02   0.0000000e+00
   1.4635060e+02   0.0000000e+00
   1.4683270e+02   1.8829300e-01
   1.4731480e+02   8.7890001e-03
   1.4779690e+02   2.5819090e+00
   1.4827910e+02   4.0651250e+00
   1.4876120e+02   4.1380620e+00
   1.4924330e+02   3.3892820e+00
   1.4972540e+02   2.4230960e+00
   1.5020750e+02   1.5958860e+00
   1.5068960e+02   1.0191040e+00
   1.5117180e+02   5.0518800e-01
   1.5165390e+02   2.7892999e-02
   1.5213600e+02   6.1157200e-01
   1.5261810e+02   1.4539180e+00
   1.5310020e+02   2.8289180e+00
   1.5358230e+02   3.6073610e+00
   1.5406450e+02   2.3430790e+00
   1.5454660e+02   1.4463500e+00
   1.5502870e+02   2.0935670e+00
   1.5551080e+02   7.6273800e+00
   1.5599290e+02   1.0831300e+01
   1.5647500e+02   8.8929440e+00
   1.5695720e+02   3.1851200e+00
   1.5743930e+02   5.7922400e-01
   1.5792140e+02   1.9116200e-01
   1.5840350e+02   2.3852540e+00
   1.5888560e+02   4.0911870e+00
   1.5936770e+02   4.5660400e+00
   1.5984990e+02   4.7406620e+00
   1.6033200e+02   4.9003300e+00
   1.6081410e+02   5.0160520e+00
   1.6129620e+02   4.9798580e+00
   1.6177830e+02   4.3257450e+00
   1.6226040e+02   3.7623900e+00
   1.6274260e+02   3.8643190e+00
   1.6322470e+02   6.0771480e+00
   1.6370680e+02   7.9428710e+00
   1.6418890e+02   7.9180910e+00
   1.6467100e+02   6.2007450e+00
   1.6515310e+02   4.5317380e+00
   1.6563530e+02   3.5979000e+00
   1.6611740e+02   3.1592410e+00
   1.6659950e+02   2.9015500e+00
   1.6708160e+02   2.7486570e+00
   1.6756370e+02   2.7890010e+00
   1.6804580e+02   3.0532840e+00
   1.6852800e+02   3.4801640e+00
   1.6901010e+02   3.9527590e+00
   1.6949220e+02   4.6845090e+00
   1.6997430e+02   5.2364500e+00
   1.7045640e+02   5.3416140e+00
   1.7093850e+02   4.2129520e+00
   1.7142070e+02   3.1516720e+00
   1.7190280e+02   3.3881230e+00
   1.7238490e+02   5.0225830e+00
   1.7286700e+02   6.4694820e+00
   1.7334910e+02   6.1174320e+00
   1.7383120e+02   4.7046510e+00
   1.7431340e+02   3.6001590e+00
   1.7479550e+02   3.4516600e+00
   1.7527760e+02   3.8439330e+00
   1.7575970e+02   4.7083740e+00
   1.7624180e+02   6.0682370e+00
   1.7672390e+02   7.2464600e+00
   1.7720610e+02   9.0661010e+00
   1.7768820e+02   1.1477840e+01
   1.7817030e+02   1.2987610e+01
   1.7865240e+02   1.2473510e+01
   1.7913450e+02   1.0803340e+01
   1.7961660e+02   8.7498170e+00
   1.8009880e+02   6.2726440e+00
   1.8058090e+02   4.3391720e+00
   1.8106300e+02   4.2564090e+00
   1.8154510e+02   5.6900020e+00
   1.8202720e+02   6.7960820e+00
   1.8250930e+02   6.0136720e+00
   1.8299150e+02   4.2156370e+00
   1.8347360e+02   3.6555180e+00
   1.8395570e+02   4.6433720e+00
   1.8443780e+02   6.2744140e+00
   1.8491990e+02   7.6712650e+00
   1.8540200e+02   8.7506100e+00
   1.8588420e+02   9.1697390e+00
   1.8636630e+02   8.4130860e+00
   1.8684840e+02   6.7663570e+00
   1.8733050e+02   5.2742310e+00
   1.8781260e+02   3.9797360e+00
   1.8829470e+02   2.9727780e+00
   1.8877690e+02   2.3980100e+00
   1.8925900e+02   2.2697140e+00
   1.8974110e+02   2.4465330e+00
   1.9022320e+02   3.0841670e+00
   1.9070530e+02   4.0341800e+00
   1.9118740e+02   4.2659910e+00
   1.9166960e+02   3.2443240e+00
   1.9215170e+02   1.8621830e+00
   1.9263380e+02   2.3623660e+00
   1.9311590e+02   4.7587280e+00
   1.9359800e+02   6.7886960e+00
   1.9408010e+02   6.8909910e+00
   1.9456230e+02   5.2338870e+00
   1.9504440e+02   3.6053470e+00
   1.9552650e+02   2.1017460e+00
   1.9600860e+02   8.6859100e-01
   1.9649070e+02   2.5073200e-01
   1.9697280e+02   3.4423800e-01
   1.9745500e+02   5.9039300e-01
   1.9793710e+02   6.3671900e-01
   1.9841920e+02   4.8028600e-01
   1.9890130e+02   4.4598400e-01
   1.9938340e+02   6.1041300e-01
   1.9986550e+02   8.7310800e-01
   2.0034770e+02   1.0122680e+00
   2.0082980e+02   1.0442500e+00
   2.0131190e+02   1.0292970e+00
   2.0179400e+02   9.6630900e-01
   2.0227610e+02   7.8118900e-01
   2.0275820e+02   9.1168200e-01
   2.0324040e+02   1.6555790e+00
   2.0372250e+02   2.5822750e+00
   2.0420460e+02   2.3912960e+00
   2.0468670e+02   5.9210200e-01
   2.0516880e+02   1.2068480e+00
   2.0565090e+02   2.0220340e+00
   2.0613310e+02   1.7906490e+00
   2.0661520e+02   7.6086400e-01
   2.0709730e+02   1.4140010e+00
   2.0757940e+02   3.9711910e+00
   2.0806150e+02   4.5230100e+00
   2.0854360e+02   2.3060910e+00
   2.0902580e+02   1.3861100e-01
   2.0950790e+02   1.1584500e-01
   2.0999000e+02   2.9357300e+00
   2.1047210e+02   4.6531980e+00
   2.1095420e+02   4.5563350e+00
   2.1143630e+02   3.2813110e+00
   2.1191850e+02   3.1561280e+00
   2.1240060e+02   4.7802120e+00
   2.1288270e+02   6.1680300e+00
   2.1336480e+02   5.6930540e+00
   2.1384690e+02   2.3721920e+00
   2.1432900e+02   8.8439900e-01
   2.1481120e+02   2.2656860e+00
   2.1529330e+02   5.5188600e+00
   2.1577540e+02   7.3588260e+00
   2.1625750e+02   7.2930910e+00
   2.1673960e+02   6.6588750e+00
   2.1722170e+02   6.1430660e+00
   2.1770380e+02   5.6393430e+00
   2.1818600e+02   5.6359250e+00
   2.1866810e+02   6.4429930e+00
   2.1915020e+02   7.7348630e+00
   2.1963230e+02   8.2702640e+00
   2.2011440e+02   7.7985230e+00
   2.2059650e+02   7.0046390e+00
   2.2107870e+02   6.2213750e+00
   2.2156080e+02   5.3563230e+00
   2.2204290e+02   4.7808840e+00
   2.2252500e+02   4.5612790e+00
   2.2300710e+02   4.6524050e+00
   2.2348920e+02   4.9727780e+00
   2.2397140e+02   5.8518070e+00
   2.2445350e+02   6.4614260e+00
   2.2493560e+02   6.2576290e+00
   2.2541770e+02   4.7484130e+00
   2.2589980e+02   3.6221920e+00
   2.2638190e+02   2.9663090e+00
   2.2686410e+02   2.7435910e+00
   2.2734620e+02   2.9001460e+00
   2.2782830e+02   3.6312260e+00
   2.2831040e+02   4.4309690e+00
   2.2879250e+02   5.0397340e+00
   2.2927460e+02   5.4180910e+00
   2.2975680e+02   5.6987920e+00
   2.3023890e+02   5.9967650e+00
   2.3072100e+02   6.1794430e+00
   2.3120310e+02   5.7773440e+00
   2.3168520e+02   4.3775020e+00
   2.3216730e+02   2.9912110e+00
   2.3264950e+02   2.1417850e+00
   2.3313160e+02   2.0637820e+00
   2.3361370e+02   2.0241090e+00
   2.3409580e+02   2.0950320e+00
   2.3457790e+02   2.1793820e+00
   2.3506000e+02   1.9364620e+00
   2.3554220e+02   9.3359400e-01
   2.3602430e+02   2.2674600e-01
   2.3650640e+02   4.0264900e-01
   2.3698850e+02   2.1989750e+00
   2.3747060e+02   3.2008060e+00
   2.3795270e+02   2.9956050e+00
   2.3843490e+02   2.0862430e+00
   2.3891700e+02   1.7875370e+00
   2.3939910e+02   2.4940190e+00
   2.3988120e+02   3.2339480e+00
   2.4036330e+02   3.6054080e+00
   2.4084540e+02   3.5178830e+00
   2.4132760e+02   3.2452390e+00
   2.4180970e+02   2.6405640e+00
   2.4229180e+02   1.9216920e+00
   2.4277390e+02   1.5971680e+00
   2.4325600e+02   1.9407350e+00
   2.4373810e+02   2.2537230e+00
   2.4422030e+02   2.2086790e+00
   2.4470240e+02   1.5217290e+00
   2.4518450e+02   1.3027340e+00
   2.4566660e+02   1.7579960e+00
   2.4614870e+02   2.5830080e+00
   2.4663080e+02   3.2246700e+00
   2.4711300e+02   3.7059940e+00
   2.4759510e+02   3.9750980e+00
   2.4807720e+02   3.9815670e+00
   2.4855930e+02   3.6448970e+00
   2.4904140e+02   3.3241580e+00
   2.4952350e+02   2.9891360e+00
   2.5000570e+02   2.6669920e+00
   2.5048780e+02   2.4390870e+00
   2.5096990e+02   2.3724980e+00
   2.5145200e+02   2.2820430e+00
   2.5193410e+02   2.0360720e+00
   2.5241620e+02   1.5114750e+00
   2.5289840e+02   1.4301760e+00
   2.5338050e+02   2.0156250e+00
   2.5386260e+02   2.8571170e+00
   2.5434470e+02   3.3784180e+00
   2.5482680e+02   3.6033940e+00
   2.5530890e+02   3.5272220e+00
   2.5579110e+02   3.0255740e+00
   2.5627320e+02   1.9942020e+00
   2.5675530e+02   1.3627930e+00
   2.5723740e+02   1.2030640e+00
   2.5771950e+02   1.3863530e+00
   2.5820170e+02   1.8040160e+00
   2.5868380e+02   2.6194460e+00
   2.5916590e+02   3.3040160e+00
   2.5964800e+02   3.7582400e+00
   2.6013010e+02   3.9797970e+00
   2.6061220e+02   3.8986820e+00
   2.6109440e+02   3.3533330e+00
   2.6157650e+02   2.7263790e+00
   2.6205860e+02   2.5546260e+00
   2.6254070e+02   3.2332150e+00
   2.6302280e+02   3.0615840e+00
   2.6350490e+02   1.3502810e+00
   2.6398710e+02   1.7391360e+00
   2.6446920e+02   3.3184810e+00
   2.6495130e+02   2.9450680e+00
   2.6543340e+02   1.7948000e+00
   2.6591550e+02   8.3136000e-01
   2.6639760e+02   9.1063999e-02
   2.6687980e+02   4.0307600e-01
   2.6736190e+02   6.8365500e-01
   2.6784400e+02   8.2836900e-01
   2.6832610e+02   7.9895000e-01
   2.6880820e+02   4.2639200e-01
   2.6929030e+02   1.8231200e-01
   2.6977250e+02   6.1865200e-01
   2.7025460e+02   2.0240480e+00
   2.7073670e+02   2.9769900e+00
   2.7121880e+02   2.9777220e+00
   2.7170090e+02   2.3013920e+00
   2.7218300e+02   2.0988770e+00
   2.7266520e+02   2.6480710e+00
   2.7314730e+02   3.2921750e+00
   2.7362940e+02   3.4893190e+00
   2.7411150e+02   3.1278690e+00
   2.7459360e+02   2.8418580e+00
   2.7507570e+02   2.6442870e+00
   2.7555790e+02   2.5851440e+00
   2.7604000e+02   2.9166260e+00
   2.7652210e+02   3.7575070e+00
   2.7700420e+02   4.5192260e+00
   2.7748630e+02   4.6124270e+00
   2.7796840e+02   4.0132450e+00
   2.7845060e+02   4.1741330e+00
   2.7893270e+02   5.4669190e+00
   2.7941480e+02   7.2675170e+00
   2.7989690e+02   7.9851070e+00
   2.8037900e+02   7.4295650e+00
   2.8086110e+02   7.0177610e+00
   2.8134330e+02   7.8854980e+00
   2.8182540e+02   1.0019230e+01
   2.8230750e+02   1.0829590e+01
   2.8278960e+02   9.9904170e+00
   2.8327170e+02   8.3059080e+00
   2.8375380e+02   6.8579710e+00
   2.8423600e+02   5.6800540e+00
   2.8471810e+02   5.0195310e+00
   2.8520020e+02   5.1469730e+00
   2.8568230e+02   5.9830930e+00
   2.8616440e+02   6.8095700e+00
   2.8664650e+02   7.6411130e+00
   2.8712870e+02   8.3680420e+00
   2.8761080e+02   8.7630620e+00
   2.8809290e+02   8.8427730e+00
   2.8857500e+02   8.9749150e+00
   2.8905710e+02   9.2390750e+00
   2.8953920e+02   9.6570430e+00
   2.9002140e+02   1.0410520e+01
   2.9050350e+02   1.1530940e+01
   2.9098560e+02   1.2683720e+01
   2.9146770e+02   1.3384700e+01
   2.9194980e+02   1.3737980e+01
   2.9243190e+02   1.4356870e+01
   2.9291410e+02   1.5510930e+01
   2.9339620e+02   1.6986570e+01
   2.9387830e+02   1.8365720e+01
   2.9436040e+02   1.9679990e+01
   2.9484250e+02   2.0994810e+01
   2.9532460e+02   2.2302980e+01
   2.9580680e+02   2.3601990e+01
   2.9628890e+02   2.4911320e+01
   2.9677100e+02   2.6365910e+01
   2.9725310e+02   2.7744140e+01
   2.9773520e+02   2.8254150e+01
   2.9821730e+02   2.8034790e+01
   2.9869950e+02   2.8365780e+01
   2.9918160e+02   3.0801030e+01
   2.9966370e+02   3.4400570e+01
   3.0014580e+02   3.7066470e+01
   3.0062790e+02   3.8239810e+01
   3.0111000e+02   3.8833560e+01
   3.0159220e+02   3.9773010e+01
   3.0207430e+02   4.1020870e+01
   3.0255640e+02   4.2453430e+01
   3.0303850e+02   4.4121700e+01
   3.0352060e+02   4.5913700e+01
   3.0400270e+02   4.7636660e+01
   3.0448490e+02   4.9182620e+01
   3.0496700e+02   5.0860840e+01
   3.0544910e+02   5.3079710e+01
   3.0593120e+02   5.5657230e+01
   3.0641330e+02   5.8159610e+01
   3.0689540e+02   6.0231020e+01
   3.0737760e+02   6.2212950e+01
   3.0785970e+02   6.4315000e+01
   3.0834180e+02   6.6553960e+01
   3.0882390e+02   6.9221800e+01
   3.0930600e+02   7.2738890e+01
   3.0978810e+02   7.6834780e+01
   3.1027030e+02   8.0960510e+01
   3.1075240e+02   8.5923460e+01
   3.1123450e+02   9.0183040e+01
   3.1171660e+02   9.2730590e+01
   3.1219870e+02   9.3536680e+01
   3.1268080e+02   9.2665340e+01
   3.1316300e+02   9.0078120e+01
   3.1364510e+02   8.5843440e+01
   3.1412720e+02   7.9995240e+01
   3.1460930e+02   7.1734310e+01
   3.1509140e+02   6.2683410e+01
   3.1557350e+02   5.2873410e+01
   3.1605570e+02   4.2662960e+01
   3.1653780e+02   3.3947750e+01
   3.1701990e+02   2.7838380e+01
   3.1750200e+02   2.3374690e+01
   3.1798410e+02   1.9844730e+01
   3.1846620e+02   1.7529480e+01
   3.1894840e+02   1.5608150e+01
   3.1943050e+02   1.3942140e+01
   3.1991260e+02   1.2486270e+01
   3.2039470e+02   1.1118530e+01
   3.2087680e+02   9.7565920e+00
   3.2135890e+02   8.5105590e+00
   3.2184110e+02   7.3358150e+00
   3.2232320e+02   6.4847410e+00
   3.2280530e+02   5.4547120e+00
   3.2328740e+02   3.7957150e+00
   3.2376950e+02   1.9903560e+00
   3.2425160e+02   8.0664100e-01
   3.2473380e+02   5.6909200e-01
   3.2521590e+02   7.2033700e-01
   3.2569800e+02   1.3400880e+00
   3.2618010e+02   2.7257690e+00
   3.2666220e+02   3.1834110e+00
   3.2714430e+02   1.5628660e+00
   3.2762650e+02   5.5871600e-01
   3.2810860e+02   1.6197510e+00
   3.2859070e+02   2.3028600e-01
   3.2907280e+02   6.8054200e-01
   3.2955490e+02   4.4732700e-01
   3.3003700e+02   9.4519000e-01
   3.3051920e+02   1.8551640e+00
   3.3100130e+02   2.0518800e+00
   3.3148340e+02   1.9672240e+00
   3.3196550e+02   1.8778690e+00
   3.3244760e+02   1.6779170e+00
   3.3292970e+02   1.6910400e+00
   3.3341190e+02   2.2370610e+00
   3.3389400e+02   3.0547490e+00
   3.3437610e+02   2.8121340e+00
   3.3485820e+02   7.1081500e-01
   3.3534030e+02   1.1682130e+00
   3.3582240e+02   1.6030880e+00
   3.3630460e+02   1.1944600e-01
   3.3678670e+02   1.1295780e+00
   3.3726880e+02   1.1044310e+00
   3.3775090e+02   5.5712900e-01
   3.3823300e+02   6.0394300e-01
   3.3871510e+02   1.4729610e+00
   3.3919730e+02   2.2181400e+00
   3.3967940e+02   2.5119630e+00
   3.4016150e+02   2.3448490e+00
   3.4064360e+02   1.6965330e+00
   3.4112570e+02   3.8256800e-01
   3.4160780e+02   1.0253300e+00
   3.4208990e+02   1.7179570e+00
   3.4257210e+02   1.6396480e+00
   3.4305420e+02   1.5768430e+00
   3.4353630e+02   1.7035520e+00
   3.4401840e+02   2.0409550e+00
   3.4450050e+02   2.8822630e+00
   3.4498260e+02   4.3266600e+00
   3.4546480e+02   5.5278320e+00
   3.4594690e+02   5.2951050e+00
   3.4642900e+02   3.8721920e+00
   3.4691110e+02   3.2837520e+00
   3.4739320e+02   4.0917970e+00
   3.4787530e+02   5.6593630e+00
   3.4835750e+02   6.6804810e+00
   3.4883960e+02   7.2080080e+00
   3.4932170e+02   8.0010380e+00
   3.4980380e+02   9.8383180e+00
   3.5028590e+02   1.2291020e+01
   3.5076800e+02   1.4299930e+01
   3.5125020e+02   1.5680790e+01
   3.5173230e+02   1.6813900e+01
   3.5221440e+02   1.8164790e+01
   3.5269650e+02   1.9642580e+01
   3.5317860e+02   2.0936520e+01
   3.5366070e+02   2.1840090e+01
   3.5414290e+02   2.2512020e+01
   3.5462500e+02   2.3011230e+01
   3.5510710e+02   2.3335570e+01
   3.5558920e+02   2.3948360e+01
   3.5607130e+02   2.5683470e+01
   3.5655340e+02   2.7848210e+01
   3.5703560e+02   2.9405150e+01
   3.5751770e+02   2.9315000e+01
   3.5799980e+02   2.9053650e+01
   3.5848190e+02   2.9797550e+01
   3.5896400e+02   3.1380070e+01
   3.5944610e+02   3.2860600e+01
   3.5992830e+02   3.3214600e+01
   3.6041040e+02   3.3534420e+01
   3.6089250e+02   3.4828000e+01
   3.6137460e+02   3.7970280e+01
   3.6185670e+02   4.0967220e+01
   3.6233880e+02   4.2356320e+01
   3.6282100e+02   4.2973510e+01
   3.6330310e+02   4.4748470e+01
   3.6378520e+02   5.0250850e+01
   3.6426730e+02   5.5461850e+01
   3.6474940e+02   5.8345400e+01
   3.6523150e+02   5.8135680e+01
   3.6571370e+02   5.7636050e+01
   3.6619580e+02   5.7034300e+01
   3.6667790e+02   5.6554690e+01
   3.6716000e+02   5.6454250e+01
   3.6764210e+02   5.6494930e+01
   3.6812420e+02   5.7195830e+01
   3.6860640e+02   5.8802800e+01
   3.6908850e+02   6.1365970e+01
   3.6957060e+02   6.4073970e+01
   3.7005270e+02   6.7543580e+01
   3.7053480e+02   7.0704900e+01
   3.7101690e+02   7.2821290e+01
   3.7149910e+02   7.2871950e+01
   3.7198120e+02   7.3596130e+01
   3.7246330e+02   7.5346470e+01
   3.7294540e+02   7.7903110e+01
   3.7342750e+02   8.0490510e+01
   3.7390960e+02   8.3252010e+01
   3.7439180e+02   8.5848750e+01
   3.7487390e+02   8.7940400e+01
   3.7535600e+02   8.9279110e+01
   3.7583810e+02   9.1360170e+01
   3.7632020e+02   9.4309600e+01
   3.7680230e+02   9.7801610e+01
   3.7728450e+02   1.0116850e+02
   3.7776660e+02   1.0418090e+02
   3.7824870e+02   1.0820970e+02
   3.7873080e+02   1.1389190e+02
   3.7921290e+02   1.2101580e+02
   3.7969500e+02   1.2764650e+02
   3.8017720e+02   1.3376070e+02
   3.8065930e+02   1.3976120e+02
   3.8114140e+02   1.4582640e+02
   3.8162350e+02   1.5199420e+02
   3.8210560e+02   1.5916480e+02
   3.8258770e+02   1.6753690e+02
   3.8306990e+02   1.7690550e+02
   3.8355200e+02   1.8645120e+02
   3.8403410e+02   1.9639070e+02
   3.8451620e+02   2.0802720e+02
   3.8499830e+02   2.2272910e+02
   3.8548040e+02   2.3973430e+02
   3.8596260e+02   2.5723500e+02
   3.8644470e+02   2.7489800e+02
   3.8692680e+02   2.9455820e+02
   3.8740890e+02   3.1837630e+02
   3.8789100e+02   3.4568660e+02
   3.8837310e+02   3.7457870e+02
   3.8885530e+02   4.0367570e+02
   3.8933740e+02   4.3442710e+02
   3.8981950e+02   4.6851640e+02
   3.9030160e+02   5.0537880e+02
   3.9078370e+02   5.4314570e+02
   3.9126580e+02   5.8113940e+02
   3.9174800e+02   6.1871370e+02
   3.9223010e+02   6.5526460e+02
   3.9271220e+02   6.9039010e+02
   3.9319430e+02   7.2487220e+02
   3.9367640e+02   7.5781180e+02
   3.9415850e+02   7.9014470e+02
   3.9464070e+02   8.2382820e+02
   3.9512280e+02   8.6022230e+02
   3.9560490e+02   8.9791580e+02
   3.9608700e+02   9.3634860e+02
   3.9656910e+02   9.7471810e+02
   3.9705120e+02   1.0154170e+03
   3.9753340e+02   1.0578230e+03
   3.9801550e+02   1.1033990e+03
   3.9849760e+02   1.1533530e+03
   3.9897970e+02   1.2088450e+03
   3.9946180e+02   1.2680190e+03
   3.9994390e+02   1.3299770e+03
   4.0042610e+02   1.3946700e+03
   4.0090820e+02   1.4652920e+03
   4.0139030e+02   1.5446120e+03
   4.0187240e+02   1.6271650e+03
   4.0235450e+02   1.7099560e+03
   4.0283660e+02   1.7920080e+03
   4.0331880e+02   1.8750390e+03
   4.0380090e+02   1.9617920e+03
   4.0428300e+02   2.0483860e+03
   4.0476510e+02   2.1272640e+03
   4.0524720e+02   2.2009930e+03
   4.0572930e+02   2.2579380e+03
   4.0621150e+02   2.2965150e+03
   4.0669360e+02   2.3169210e+03
   4.0717570e+02   2.3033270e+03
   4.0765780e+02   2.2546340e+03
   4.0813990e+02   2.1745290e+03
   4.0862200e+02   2.0602090e+03
   4.0910420e+02   1.9122420e+03
   4.0958630e+02   1.7540240e+03
   4.1006840e+02   1.5850810e+03
   4.1055050e+02   1.4152620e+03
   4.1103260e+02   1.2579450e+03
   4.1151470e+02   1.1125770e+03
   4.1199690e+02   9.8149210e+02
   4.1247900e+02   8.6498190e+02
   4.1296110e+02   7.6229460e+02
   4.1344320e+02   6.7448430e+02
   4.1392530e+02   6.0181510e+02
   4.1440740e+02   5.3975250e+02
   4.1488960e+02   4.8496860e+02
   4.1537170e+02   4.3672330e+02
   4.1585380e+02   3.9373660e+02
   4.1633590e+02   3.5686120e+02
   4.1681800e+02   3.2438610e+02
   4.1730010e+02   2.9582820e+02
   4.1778230e+02   2.7075040e+02
   4.1826440e+02   2.4842860e+02
   4.1874650e+02   2.2809540e+02
   4.1922860e+02   2.0981750e+02
   4.1971070e+02   1.9398080e+02
   4.2019280e+02   1.8160540e+02
   4.2067500e+02   1.7010200e+02
   4.2115710e+02   1.5848350e+02
   4.2163920e+02   1.4691230e+02
   4.2212130e+02   1.3612950e+02
   4.2260340e+02   1.2610420e+02
   4.2308550e+02   1.1712760e+02
   4.2356770e+02   1.0951130e+02
   4.2404980e+02   1.0386930e+02
   4.2453190e+02   9.7683290e+01
   4.2501400e+02   8.9722200e+01
   4.2549610e+02   8.1582460e+01
   4.2597820e+02   7.4847470e+01
   4.2646040e+02   7.0059420e+01
   4.2694250e+02   6.5919800e+01
   4.2742460e+02   6.2422000e+01
   4.2790670e+02   5.9465210e+01
   4.2838880e+02   5.6601810e+01
   4.2887090e+02   5.3953160e+01
   4.2935310e+02   5.1200290e+01
   4.2983520e+02   4.8103700e+01
   4.3031730e+02   4.4663540e+01
   4.3079940e+02   4.1000430e+01
   4.3128150e+02   3.6925110e+01
   4.3176360e+02   3.2927860e+01
   4.3224580e+02   3.0074620e+01
   4.3272790e+02   2.8445500e+01
   4.3321000e+02   2.6618440e+01
   4.3369210e+02   2.3741670e+01
   4.3417420e+02   2.0331090e+01
   4.3465630e+02   1.8651820e+01
   4.3513850e+02   1.8756840e+01
   4.3562060e+02   1.9047790e+01
   4.3610270e+02   1.7894710e+01
   4.3658480e+02   1.5791380e+01
   4.3706690e+02   1.4145420e+01
   4.3754900e+02   1.3343840e+01
   4.3803120e+02   1.2850560e+01
   4.3851330e+02   1.1805790e+01
   4.3899540e+02   1.0541840e+01
   4.3947750e+02   9.9818420e+00
   4.3995960e+02   1.1668950e+01
   4.4044170e+02   1.3478420e+01
   4.4092390e+02   1.2857360e+01
   4.4140600e+02   9.7234190e+00
   4.4188810e+02   4.7206730e+00
   4.4237020e+02   5.6405940e+00
   4.4285230e+02   6.1243900e+00
   4.4333440e+02   6.1817020e+00
   4.4381660e+02   4.8541560e+00
   4.4429870e+02   5.0877080e+00
   4.4478080e+02   4.5726930e+00
   4.4526290e+02   3.9599300e+00
   4.4574500e+02   4.2444460e+00
   4.4622710e+02   2.7699280e+00
   4.4670930e+02   2.8778990e+00
   4.4719140e+02   4.7841800e+00
   4.4767350e+02   2.9371340e+00
   4.4815560e+02   1.7355040e+00
   4.4863770e+02   1.4500730e+00
   4.4911980e+02   1.5678410e+00
   4.4960200e+02   1.5364990e+00
   4.5008410e+02   1.1553340e+00
   4.5056620e+02   1.3928530e+00
   4.5104830e+02   2.7861330e+00
   4.5153040e+02   4.8928830e+00
   4.5201250e+02   5.6703190e+00
   4.5249470e+02   4.7872010e+00
   4.5297680e+02   3.5718380e+00
   4.5345890e+02   2.6439820e+00
   4.5394100e+02   2.0048220e+00
   4.5442310e+02   1.8635860e+00
   4.5490520e+02   2.3467100e+00
   4.5538740e+02   2.8769530e+00
   4.5586950e+02   2.5878910e+00
   4.5635160e+02   1.5934140e+00
   4.5683370e+02   7.4285900e-01
   4.5731580e+02   3.0279500e-01
   4.5779790e+02   1.3580300e-01
   4.5828010e+02   9.5886000e-02
   4.5876220e+02   1.6861000e-01
   4.5924430e+02   1.8988000e-01
   4.5972640e+02   3.6285002e-02
   4.6020850e+02   3.3316000e-01
   4.6069060e+02   4.0942400e-01
   4.6117280e+02   1.5515100e-01
   4.6165490e+02   2.7130000e-02
   4.6213700e+02   3.2424900e-01
   4.6261910e+02   8.9053300e-01
   4.6310120e+02   1.1828000e+00
   4.6358330e+02   7.4221800e-01
   4.6406550e+02   2.5061000e-01
   4.6454760e+02   1.6647300e-01
   4.6502970e+02   4.0835600e-01
   4.6551180e+02   2.3471100e-01
   4.6599390e+02   1.3376160e+00
   4.6647600e+02   2.8014530e+00
   4.6695820e+02   3.2789000e+00
   4.6744030e+02   1.9775390e+00
   4.6792240e+02   9.7406000e-01
   4.6840450e+02   4.1775500e-01
   4.6888660e+02   1.4105200e-01
   4.6936870e+02   1.1349500e-01
   4.6985090e+02   4.2569000e-01
   4.7033300e+02   5.5703700e-01
   4.7081510e+02   4.2926000e-01
   4.7129720e+02   5.4016002e-02
   4.7177930e+02   5.1571700e-01
   4.7226140e+02   1.4444580e+00
   4.7274360e+02   2.1199650e+00
   4.7322570e+02   1.8160100e+00
   4.7370780e+02   5.0128200e-01
   4.7418990e+02   2.4832200e-01
   4.7467200e+02   1.4444890e+00
   4.7515410e+02   3.0835570e+00
   4.7563630e+02   3.7080690e+00
   4.7611840e+02   3.4211730e+00
   4.7660050e+02   2.8675840e+00
   4.7708260e+02   1.9892580e+00
   4.7756470e+02   1.1802980e+00
   4.7804680e+02   1.2348330e+00
   4.7852900e+02   2.0716550e+00
   4.7901110e+02   2.9648740e+00
   4.7949320e+02   3.6198120e+00
   4.7997530e+02   3.9519960e+00
   4.8045740e+02   3.7478940e+00
   4.8093950e+02   2.7823180e+00
   4.8142170e+02   1.9259950e+00
   4.8190380e+02   1.7583920e+00
   4.8238590e+02   2.0227050e+00
   4.8286800e+02   2.3770450e+00
   4.8335010e+02   2.6105040e+00
   4.8383220e+02   3.0374450e+00
   4.8431440e+02   4.0886540e+00
   4.8479650e+02   5.6190800e+00
   4.8527860e+02   6.2875370e+00
   4.8576070e+02   5.0014340e+00
   4.8624280e+02   3.5098270e+00
   4.8672490e+02   2.6824040e+00
   4.8720710e+02   2.8292850e+00
   4.8768920e+02   3.0578000e+00
   4.8817130e+02   3.6378170e+00
   4.8865340e+02   4.1048280e+00
   4.8913550e+02   3.5969850e+00
   4.8961760e+02   1.5463260e+00
   4.9009980e+02   2.9235800e-01
   4.9058190e+02   7.2305300e-01
   4.9106400e+02   2.3732910e+00
   4.9154610e+02   2.6722110e+00
   4.9202820e+02   1.4538270e+00
   4.9251030e+02   9.5000997e-02
   4.9299250e+02   4.3612700e-01
   4.9347460e+02   2.6821900e-01
   4.9395670e+02   4.9896002e-02
   4.9443880e+02   5.2310200e-01
   4.9492090e+02   8.0444300e-01
   4.9540300e+02   3.3169600e-01
   4.9588520e+02   6.4041100e-01
   4.9636730e+02   1.5270390e+00
   4.9684940e+02   2.4147030e+00
   4.9733150e+02   2.8479920e+00
   4.9781360e+02   1.9748540e+00
   4.9829570e+02   1.2658700e-01
   4.9877790e+02   1.3218990e+00
   4.9926000e+02   1.3934330e+00
   4.9974210e+02   9.8172000e-01
   5.0022420e+02   7.1252400e-01
   5.0070630e+02   7.2039800e-01
   5.0118840e+02   6.4169300e-01
   5.0167060e+02   4.2828400e-01
   5.0215270e+02   5.3925000e-02
   5.0263480e+02   4.9621600e-01
   5.0311690e+02   1.7383420e+00
   5.0359900e+02   2.5212100e+00
   5.0408110e+02   2.5020140e+00
   5.0456330e+02   1.8952940e+00
   5.0504540e+02   1.5654910e+00
   5.0552750e+02   1.8259280e+00
   5.0600960e+02   1.8470760e+00
   5.0649170e+02   1.1146550e+00
   5.0697380e+02   5.0378400e-01
   5.0745600e+02   1.2121890e+00
   5.0793810e+02   7.8765900e-01
   5.0842020e+02   7.0587002e-02
   5.0890230e+02   1.3018800e-01
   5.0938440e+02   1.5530400e-01
   5.0986650e+02   6.8197600e-01
   5.1034870e+02   1.4630430e+00
   5.1083080e+02   2.2603150e+00
   5.1131290e+02   2.5997620e+00
   5.1179500e+02   2.5859070e+00
   5.1227720e+02   2.5375670e+00
   5.1275930e+02   2.7632750e+00
   5.1324140e+02   3.0255130e+00
   5.1372350e+02   2.8723750e+00
   5.1420560e+02   2.3662720e+00
   5.1468770e+02   2.0791930e+00
   5.1516990e+02   2.5668030e+00
   5.1565200e+02   3.3902280e+00
   5.1613410e+02   4.1940610e+00
   5.1661620e+02   5.0177000e+00
   5.1709830e+02   5.5523380e+00
   5.1758040e+02   5.5077820e+00
   5.1806260e+02   5.1568910e+00
   5.1854470e+02   4.9385990e+00
   5.1902680e+02   4.7705380e+00
   5.1950890e+02   4.9403690e+00
   5.1999100e+02   5.7583920e+00
   5.2047310e+02   7.1495060e+00
   5.2095530e+02   7.7838440e+00
   5.2143740e+02   7.3013000e+00
   5.2191950e+02   6.6845090e+00
   5.2240160e+02   6.4534610e+00
   5.2288370e+02   6.7367860e+00
   5.2336580e+02   6.8555600e+00
   5.2384800e+02   6.7503360e+00
   5.2433010e+02   6.5489810e+00
   5.2481220e+02   6.4051210e+00
   5.2529430e+02   6.3091740e+00
   5.2577640e+02   6.1076350e+00
   5.2625850e+02   5.5901490e+00
   5.2674070e+02   5.1304320e+00
   5.2722280e+02   5.7441100e+00
   5.2770490e+02   7.1902470e+00
   5.2818700e+02   8.1178590e+00
   5.2866910e+02   6.9993590e+00
   5.2915120e+02   5.2595830e+00
   5.2963340e+02   4.5639650e+00
   5.3011550e+02   5.0399480e+00
   5.3059760e+02   5.7975770e+00
   5.3107970e+02   6.7509460e+00
   5.3156180e+02   7.5108950e+00
   5.3204390e+02   7.5914920e+00
   5.3252610e+02   6.3309630e+00
   5.3300820e+02   5.1699220e+00
   5.3349030e+02   4.4396670e+00
   5.3397240e+02   4.0981450e+00
   5.3445450e+02   4.0005800e+00
   5.3493660e+02   4.2117920e+00
   5.3541880e+02   4.5307310e+00
   5.3590090e+02   4.9984130e+00
   5.3638300e+02   5.6141050e+00
   5.3686510e+02   6.0968320e+00
   5.3734720e+02   6.5615540e+00
   5.3782930e+02   6.6928410e+00
   5.3831150e+02   6.0145260e+00
   5.3879360e+02   4.4153750e+00
   5.3927570e+02   3.8915100e+00
   5.3975780e+02   4.8350220e+00
   5.4023990e+02   6.0605470e+00
   5.4072200e+02   5.3979190e+00
   5.4120420e+02   3.3320920e+00
   5.4168630e+02   2.7060240e+00
   5.4216840e+02   5.2120670e+00
   5.4265050e+02   8.6074830e+00
   5.4313260e+02   9.7248230e+00
   5.4361470e+02   8.9317320e+00
   5.4409690e+02   7.6367800e+00
   5.4457900e+02   6.0688780e+00
   5.4506110e+02   4.7548830e+00
   5.4554320e+02   4.2757260e+00
   5.4602530e+02   4.7146300e+00
   5.4650740e+02   5.1538700e+00
   5.4698960e+02   5.2698060e+00
   5.4747170e+02   5.1906130e+00
   5.4795380e+02   4.9994510e+00
   5.4843590e+02   4.2818600e+00
   5.4891800e+02   4.0867310e+00
   5.4940010e+02   5.0398250e+00
   5.4988230e+02   6.3961490e+00
   5.5036440e+02   6.7579350e+00
   5.5084650e+02   5.3122860e+00
   5.5132860e+02   4.5068050e+00
   5.5181070e+02   5.3457340e+00
   5.5229280e+02   7.4360050e+00
   5.5277500e+02   7.7986150e+00
   5.5325710e+02   6.1172180e+00
   5.5373920e+02   4.1760860e+00
   5.5422130e+02   3.1450500e+00
   5.5470340e+02   2.9010010e+00
   5.5518550e+02   2.6700130e+00
   5.5566770e+02   2.4602970e+00
   5.5614980e+02   2.6105350e+00
   5.5663190e+02   3.8842470e+00
   5.5711400e+02   5.6246030e+00
   5.5759610e+02   6.4219970e+00
   5.5807820e+02   5.4250490e+00
   5.5856040e+02   4.1300660e+00
   5.5904250e+02   3.6389770e+00
   5.5952460e+02   3.7574460e+00
   5.6000670e+02   4.0693050e+00
   5.6048880e+02   4.9280400e+00
   5.6097090e+02   5.4012150e+00
   5.6145310e+02   4.8156130e+00
   5.6193520e+02   3.2134400e+00
   5.6241730e+02   2.2696840e+00
   5.6289940e+02   2.8840030e+00
   5.6338150e+02   3.5945430e+00
   5.6386360e+02   3.7121580e+00
   5.6434580e+02   3.0885310e+00
   5.6482790e+02   2.4654540e+00
   5.6531000e+02   1.6534730e+00
   5.6579210e+02   8.7414600e-01
   5.6627420e+02   4.6670500e-01
   5.6675630e+02   4.7930900e-01
   5.6723850e+02   7.8339003e-02
   5.6772060e+02   8.2586700e-01
   5.6820270e+02   1.2578130e+00
   5.6868480e+02   1.3828740e+00
   5.6916690e+02   2.2802700e-01
   5.6964900e+02   7.2753900e-01
   5.7013120e+02   5.6042500e-01
   5.7061330e+02   3.6700400e-01
   5.7109540e+02   1.1032410e+00
   5.7157750e+02   1.5203900e-01
   5.7205960e+02   8.5598800e-01
   5.7254170e+02   8.7857100e-01
   5.7302390e+02   1.2163390e+00
   5.7350600e+02   8.9437900e-01
   5.7398810e+02   7.8207400e-01
   5.7447020e+02   1.3399660e+00
   5.7495230e+02   1.5286250e+00
   5.7543440e+02   1.1342160e+00
   5.7591660e+02   1.5014650e+00
   5.7639870e+02   5.0039700e-01
   5.7688080e+02   6.9580100e-01
   5.7736290e+02   1.4077760e+00
   5.7784500e+02   1.0409550e+00
   5.7832710e+02   1.4168400e+00
   5.7880930e+02   1.5086060e+00
   5.7929140e+02   3.1301900e-01
   5.7977350e+02   1.3533020e+00
   5.8025560e+02   1.4249570e+00
   5.8073770e+02   5.0219700e-01
   5.8121980e+02   1.4624330e+00
   5.8170200e+02   6.7456100e-01
   5.8218410e+02   5.0949100e-01
   5.8266620e+02   8.1289700e-01
   5.8314830e+02   6.2561000e-01
   5.8363040e+02   1.2075200e+00
   5.8411250e+02   1.0429080e+00
   5.8459470e+02   8.0868500e-01
   5.8507680e+02   8.6572300e-01
   5.8555890e+02   1.0418700e-01
   5.8604100e+02   8.6496000e-01
   5.8652310e+02   5.8450300e-01
   5.8700520e+02   8.1424000e-01
   5.8748730e+02   1.1572270e+00
   5.8796940e+02   6.0327100e-01
   5.8845150e+02   1.0015560e+00
   5.8893370e+02   7.1135998e-02
   5.8941580e+02   8.8744998e-02
   5.8989790e+02   1.1489900e-01
   5.9038000e+02   9.2553700e-01
   5.9086210e+02   2.1908600e-01
   5.9134420e+02   7.5952100e-01
   5.9182640e+02   7.4881000e-01
   5.9230850e+02   1.5725700e-01
   5.9279060e+02   4.8419200e-01
   5.9327270e+02   1.2144170e+00
   5.9375480e+02   1.7608340e+00
   5.9423690e+02   1.5286870e+00
   5.9471910e+02   7.7822900e-01
   5.9520120e+02   6.3983200e-01
   5.9568330e+02   1.7115170e+00
   5.9616540e+02   2.8356630e+00
   5.9664750e+02   2.4260250e+00
   5.9712960e+02   1.0789790e+00
   5.9761180e+02   1.7242400e-01
   5.9809390e+02   7.6638800e-01
   5.9857600e+02   1.5719910e+00
   5.9905810e+02   1.9148250e+00
   5.9954020e+02   1.8194890e+00
   6.0002230e+02   1.6852720e+00
   6.0050450e+02   1.3309020e+00
   6.0098660e+02   1.1561280e+00
   6.0146870e+02   1.3989560e+00
   6.0195080e+02   2.1990660e+00
   6.0243290e+02   2.8377080e+00
   6.0291500e+02   3.3915410e+00
   6.0339720e+02   3.6722110e+00
   6.0387930e+02   3.4332890e+00
   6.0436140e+02   2.6167300e+00
   6.0484350e+02   1.7916260e+00
   6.0532560e+02   9.3679800e-01
   6.0580770e+02   2.9428100e-01
   6.0628990e+02   5.1028400e-01
   6.0677200e+02   1.3753050e+00
   6.0725410e+02   1.8920590e+00
   6.0773620e+02   1.4824830e+00
   6.0821830e+02   7.4176000e-01
   6.0870040e+02   1.0354600e-01
   6.0918260e+02   3.3038300e-01
   6.0966470e+02   1.7401100e-01
   6.1014680e+02   1.8146670e+00
   6.1062890e+02   3.6040650e+00
   6.1111100e+02   3.6986080e+00
   6.1159310e+02   1.9681400e+00
   6.1207530e+02   5.0427200e-01
   6.1255740e+02   4.9554400e-01
   6.1303950e+02   9.1302500e-01
   6.1352160e+02   6.0537700e-01
   6.1400370e+02   9.6252400e-01
   6.1448580e+02   1.8657530e+00
   6.1496800e+02   1.8249510e+00
   6.1545010e+02   1.4741820e+00
   6.1593220e+02   1.6633000e+00
   6.1641430e+02   2.4350890e+00
   6.1689640e+02   2.8005680e+00
   6.1737850e+02   2.4904480e+00
   6.1786070e+02   1.8515010e+00
   6.1834280e+02   1.4535520e+00
   6.1882490e+02   1.2473450e+00
   6.1930700e+02   1.0289310e+00
   6.1978910e+02   4.3035900e-01
   6.2027120e+02   3.5461001e-02
   6.2075340e+02   4.6386700e-01
   6.2123550e+02   1.6869200e+00
   6.2171760e+02   2.4871520e+00
   6.2219970e+02   1.8630370e+00
   6.2268180e+02   1.0277710e+00
   6.2316390e+02   6.6885400e-01
   6.2364610e+02   9.0860000e-01
   6.2412820e+02   1.1775210e+00
   6.2461030e+02   1.6173100e+00
   6.2509240e+02   1.9035030e+00
   6.2557450e+02   1.8161320e+00
   6.2605660e+02   1.0554500e+00
   6.2653880e+02   7.5909400e-01
   6.2702090e+02   1.1271060e+00
   6.2750300e+02   1.6201480e+00
   6.2798510e+02   1.1526490e+00
   6.2846720e+02   1.9824200e-01
   6.2894930e+02   6.6992200e-01
   6.2943150e+02   4.1894500e-01
   6.2991360e+02   2.0020140e+00
   6.3039570e+02   2.1768800e+00
   6.3087780e+02   1.3686220e+00
   6.3135990e+02   8.2418800e-01
   6.3184200e+02   1.4875790e+00
   6.3232420e+02   2.3987730e+00
   6.3280630e+02   2.6607670e+00
   6.3328840e+02   2.4342650e+00
   6.3377050e+02   2.6846310e+00
   6.3425260e+02   4.5535280e+00
   6.3473470e+02   6.2912900e+00
   6.3521690e+02   6.8178710e+00
   6.3569900e+02   5.7846980e+00
   6.3618110e+02   5.5019230e+00
   6.3666320e+02   6.2883610e+00
   6.3714530e+02   7.3957210e+00
   6.3762740e+02   8.3371890e+00
   6.3810960e+02   9.0510560e+00
   6.3859170e+02   9.9386900e+00
   6.3907380e+02   1.1172820e+01
   6.3955590e+02   1.2363530e+01
   6.4003800e+02   1.2863770e+01
   6.4052010e+02   1.2809660e+01
   6.4100230e+02   1.2957150e+01
   6.4148440e+02   1.3448700e+01
   6.4196650e+02   1.4408450e+01
   6.4244860e+02   1.6267030e+01
   6.4293070e+02   1.8702970e+01
   6.4341280e+02   2.0964260e+01
   6.4389500e+02   2.2428190e+01
   6.4437710e+02   2.4019380e+01
   6.4485920e+02   2.6408840e+01
   6.4534130e+02   2.9410060e+01
   6.4582340e+02   3.1937440e+01
   6.4630550e+02   3.2884770e+01
   6.4678770e+02   3.4262480e+01
   6.4726980e+02   3.6890500e+01
   6.4775190e+02   4.0827790e+01
   6.4823400e+02   4.4506770e+01
   6.4871610e+02   4.7582490e+01
   6.4919820e+02   5.0913300e+01
   6.4968040e+02   5.5321350e+01
   6.5016250e+02   6.0702480e+01
   6.5064460e+02   6.5636380e+01
   6.5112670e+02   6.9947880e+01
   6.5160880e+02   7.4311430e+01
   6.5209090e+02   7.9462190e+01
   6.5257310e+02   8.5061190e+01
   6.5305520e+02   9.0552980e+01
   6.5353730e+02   9.5652190e+01
   6.5401940e+02   1.0093290e+02
   6.5450150e+02   1.0685610e+02
   6.5498360e+02   1.1325300e+02
   6.5546580e+02   1.1990940e+02
   6.5594790e+02   1.2712050e+02
   6.5643000e+02   1.3419320e+02
   6.5691210e+02   1.4093330e+02
   6.5739420e+02   1.4751040e+02
   6.5787630e+02   1.5429130e+02
   6.5835850e+02   1.6119390e+02
   6.5884060e+02   1.6859690e+02
   6.5932270e+02   1.7674220e+02
   6.5980480e+02   1.8550140e+02
   6.6028690e+02   1.9408740e+02
   6.6076900e+02   2.0251300e+02
   6.6125120e+02   2.1005340e+02
   6.6173330e+02   2.1592770e+02
   6.6221540e+02   2.2060390e+02
   6.6269750e+02   2.2500790e+02
   6.6317960e+02   2.2914630e+02
   6.6366170e+02   2.3243740e+02
   6.6414390e+02   2.3509970e+02
   6.6462600e+02   2.3637400e+02
   6.6510810e+02   2.3545780e+02
   6.6559020e+02   2.3192050e+02
   6.6607230e+02   2.2730990e+02
   6.6655440e+02   2.2205650e+02
   6.6703660e+02   2.1584120e+02
   6.6751870e+02   2.0838800e+02
   6.6800080e+02   1.9894740e+02
   6.6848290e+02   1.8990750e+02
   6.6896500e+02   1.8174760e+02
   6.6944710e+02   1.7377080e+02
   6.6992930e+02   1.6449830e+02
   6.7041140e+02   1.5388850e+02
   6.7089350e+02   1.4383730e+02
   6.7137560e+02   1.3487620e+02
   6.7185770e+02   1.2678530e+02
   6.7233980e+02   1.1913560e+02
   6.7282200e+02   1.1184520e+02
   6.7330410e+02   1.0478410e+02
   6.7378620e+02   9.7551850e+01
   6.7426830e+02   9.0793430e+01
   6.7475040e+02   8.5192410e+01
   6.7523250e+02   8.0544860e+01
   6.7571470e+02   7.5978120e+01
   6.7619680e+02   7.0847440e+01
   6.7667890e+02   6.5999510e+01
   6.7716100e+02   6.1987670e+01
   6.7764310e+02   5.8806820e+01
   6.7812520e+02   5.5558110e+01
   6.7860740e+02   5.2368800e+01
   6.7908950e+02   4.8939090e+01
   6.7957160e+02   4.4960940e+01
   6.8005370e+02   4.0403530e+01
   6.8053580e+02   3.6324400e+01
   6.8101790e+02   3.2749360e+01
   6.8150010e+02   2.9703640e+01
   6.8198220e+02   2.7354310e+01
   6.8246430e+02   2.5561890e+01
   6.8294640e+02   2.4216740e+01
   6.8342850e+02   2.3420040e+01
   6.8391060e+02   2.2488770e+01
   6.8439280e+02   2.1019810e+01
   6.8487490e+02   1.9093140e+01
   6.8535700e+02   1.6791500e+01
   6.8583910e+02   1.3234310e+01
   6.8632120e+02   1.0386080e+01
   6.8680330e+02   8.9016110e+00
   6.8728550e+02   8.2002260e+00
   6.8776760e+02   7.2574770e+00
   6.8824970e+02   5.7798770e+00
   6.8873180e+02   4.8580320e+00
   6.8921390e+02   4.9658510e+00
   6.8969600e+02   5.5538330e+00
   6.9017820e+02   4.9744570e+00
   6.9066030e+02   3.2936400e+00
   6.9114240e+02   1.7244570e+00
   6.9162450e+02   2.4563600e-01
   6.9210660e+02   4.2691000e-01
   6.9258870e+02   2.0340580e+00
   6.9307090e+02   6.6984560e+00
   6.9355300e+02   9.5120540e+00
   6.9403510e+02   6.3583680e+00
   6.9451720e+02   2.1522220e+00
   6.9499930e+02   4.4739000e-02
   6.9548140e+02   1.6602000e-02
   6.9596360e+02   5.0292999e-02
   6.9644570e+02   1.0305790e+00
   6.9692780e+02   1.7927860e+00
   6.9740990e+02   1.6979680e+00
   6.9789200e+02   5.4284700e-01
   6.9837410e+02   5.1971000e-02
   6.9885630e+02   1.5807999e-02
   6.9933840e+02   3.3136000e-01
   6.9982050e+02   5.8203100e-01
   7.0030260e+02   7.7072100e-01
   7.0078470e+02   1.0014040e+00
   7.0126680e+02   1.3242490e+00
   7.0174900e+02   1.3771060e+00
   7.0223110e+02   3.4936500e-01
   7.0271320e+02   1.0040890e+00
   7.0319530e+02   1.5930790e+00
   7.0367740e+02   8.5775800e-01
   7.0415950e+02   6.4300999e-02
   7.0464170e+02   1.2016300e+00
   7.0512380e+02   2.1158750e+00
   7.0560590e+02   2.1354060e+00
   7.0608800e+02   6.1080900e-01
   7.0657010e+02   7.5396700e-01
   7.0705220e+02   1.8313290e+00
   7.0753440e+02   2.6471250e+00
   7.0801650e+02   3.1579280e+00
   7.0849860e+02   3.3338320e+00
   7.0898070e+02   3.6061400e+00
   7.0946280e+02   4.0193180e+00
   7.0994490e+02   4.7036130e+00
   7.1042710e+02   6.3809510e+00
   7.1090920e+02   8.6546630e+00
   7.1139130e+02   1.0110840e+01
   7.1187340e+02   9.7426760e+00
   7.1235550e+02   8.5071410e+00
   7.1283760e+02   6.3225400e+00
   7.1331980e+02   3.6037600e+00
   7.1380190e+02   2.3239140e+00
   7.1428400e+02   4.5479740e+00
   7.1476610e+02   6.7742000e+00
   7.1524820e+02   7.6512760e+00
   7.1573030e+02   7.2269900e+00
   7.1621250e+02   6.9782710e+00
   7.1669460e+02   6.9743960e+00
   7.1717670e+02   6.9514160e+00
   7.1765880e+02   6.7348330e+00
   7.1814090e+02   6.3515320e+00
   7.1862300e+02   5.9866940e+00
   7.1910520e+02   5.6330260e+00
   7.1958730e+02   5.4181820e+00
   7.2006940e+02   5.5650630e+00
   7.2055150e+02   5.8445130e+00
   7.2103360e+02   5.9045410e+00
   7.2151570e+02   5.6647030e+00
   7.2199790e+02   5.5757750e+00
   7.2248000e+02   6.0471190e+00
   7.2296210e+02   6.6268010e+00
   7.2344420e+02   6.9507140e+00
   7.2392630e+02   6.8870850e+00
   7.2440840e+02   6.7706600e+00
   7.2489060e+02   6.6283870e+00
   7.2537270e+02   6.3957520e+00
   7.2585480e+02   5.9262700e+00
   7.2633690e+02   5.1803590e+00
   7.2681900e+02   4.7812500e+00
   7.2730110e+02   4.8918150e+00
   7.2778330e+02   5.0451660e+00
   7.2826540e+02   4.3587040e+00
   7.2874750e+02   3.2623900e+00
   7.2922960e+02   2.8972470e+00
   7.2971170e+02   4.0615230e+00
   7.3019380e+02   5.0266110e+00
   7.3067600e+02   4.1182560e+00
   7.3115810e+02   2.3798830e+00
   7.3164020e+02   1.4031980e+00
   7.3212230e+02   2.2908020e+00
   7.3260440e+02   3.0887150e+00
   7.3308650e+02   3.6342160e+00
   7.3356870e+02   3.8758240e+00
   7.3405080e+02   3.5543820e+00
   7.3453290e+02   2.4204410e+00
   7.3501500e+02   1.8173830e+00
   7.3549710e+02   2.2444150e+00
   7.3597920e+02   3.2440490e+00
   7.3646140e+02   3.6760860e+00
   7.3694350e+02   3.6904910e+00
   7.3742560e+02   4.0559690e+00
   7.3790770e+02   5.6472170e+00
   7.3838980e+02   7.3814700e+00
   7.3887190e+02   7.9088130e+00
   7.3935410e+02   7.6536250e+00
   7.3983620e+02   8.1098330e+00
   7.4031830e+02   1.0958860e+01
   7.4080040e+02   1.3466400e+01
   7.4128250e+02   1.4250820e+01
   7.4176460e+02   1.3568210e+01
   7.4224680e+02   1.3440310e+01
   7.4272890e+02   1.3766140e+01
   7.4321100e+02   1.4901490e+01
   7.4369310e+02   1.7288570e+01
   7.4417520e+02   2.0661320e+01
   7.4465730e+02   2.3600650e+01
   7.4513950e+02   2.6084840e+01
   7.4562160e+02   2.8154360e+01
   7.4610370e+02   2.9306180e+01
   7.4658580e+02   3.0329710e+01
   7.4706790e+02   3.2277620e+01
   7.4755000e+02   3.5175570e+01
   7.4803220e+02   3.8123690e+01
   7.4851430e+02   4.0267970e+01
   7.4899640e+02   4.2688170e+01
   7.4947850e+02   4.6157680e+01
   7.4996060e+02   5.0948300e+01
   7.5044270e+02   5.5672730e+01
   7.5092490e+02   6.0272030e+01
   7.5140700e+02   6.4973660e+01
   7.5188910e+02   6.9833440e+01
   7.5237120e+02   7.4892760e+01
   7.5285330e+02   8.0294950e+01
   7.5333540e+02   8.6101200e+01
   7.5381760e+02   9.2202060e+01
   7.5429970e+02   9.8513980e+01
   7.5478180e+02   1.0499750e+02
   7.5526390e+02   1.1174300e+02
   7.5574600e+02   1.1876210e+02
   7.5622810e+02   1.2596090e+02
   7.5671030e+02   1.3264860e+02
   7.5719240e+02   1.3979050e+02
   7.5767450e+02   1.4827840e+02
   7.5815660e+02   1.5955000e+02
   7.5863870e+02   1.6946190e+02
   7.5912080e+02   1.7752000e+02
   7.5960300e+02   1.8494640e+02
   7.6008510e+02   1.9296900e+02
   7.6056720e+02   2.0162740e+02
   7.6104930e+02   2.1053020e+02
   7.6153140e+02   2.1965290e+02
   7.6201350e+02   2.2891790e+02
   7.6249570e+02   2.3849260e+02
   7.6297780e+02   2.4800230e+02
   7.6345990e+02   2.5698180e+02
   7.6394200e+02   2.6542620e+02
   7.6442410e+02   2.7300400e+02
   7.6490630e+02   2.8011880e+02
   7.6538840e+02   2.8602240e+02
   7.6587050e+02   2.8978000e+02
   7.6635260e+02   2.9112160e+02
   7.6683470e+02   2.9047070e+02
   7.6731680e+02   2.8781990e+02
   7.6779900e+02   2.8319600e+02
   7.6828110e+02   2.7643320e+02
   7.6876320e+02   2.6748420e+02
   7.6924530e+02   2.5738920e+02
   7.6972740e+02   2.4643460e+02
   7.7020950e+02   2.3453030e+02
   7.7069170e+02   2.2124920e+02
   7.7117380e+02   2.0697500e+02
   7.7165590e+02   1.9223790e+02
   7.7213800e+02   1.7648680e+02
   7.7262010e+02   1.6154080e+02
   7.7310220e+02   1.4848500e+02
   7.7358440e+02   1.3695820e+02
   7.7406650e+02   1.2644100e+02
   7.7454860e+02   1.1735660e+02
   7.7503070e+02   1.0840870e+02
   7.7551280e+02   9.9179110e+01
   7.7599490e+02   9.0186460e+01
   7.7647710e+02   8.2822850e+01
   7.7695920e+02   7.7063630e+01
   7.7744130e+02   7.1771610e+01
   7.7792340e+02   6.6516240e+01
   7.7840550e+02   6.1604000e+01
   7.7888760e+02   5.7637390e+01
   7.7936980e+02   5.4411830e+01
   7.7985190e+02   5.1319790e+01
   7.8033400e+02   4.7773930e+01
   7.8081610e+02   4.4608220e+01
   7.8129820e+02   4.2532350e+01
   7.8178030e+02   4.1157070e+01
   7.8226250e+02   3.9197480e+01
   7.8274460e+02   3.5598180e+01
   7.8322670e+02   3.3127200e+01
   7.8370880e+02   3.2883850e+01
   7.8419090e+02   3.3821410e+01
   7.8467300e+02   3.2592070e+01
   7.8515520e+02   2.9215180e+01
   7.8563730e+02   2.6383640e+01
   7.8611940e+02   2.5419620e+01
   7.8660150e+02   2.5311920e+01
   7.8708360e+02   2.4778020e+01
   7.8756570e+02   2.3908170e+01
   7.8804790e+02   2.2978090e+01
   7.8853000e+02   2.2025820e+01
   7.8901210e+02   2.1163850e+01
   7.8949420e+02   2.0491360e+01
   7.8997630e+02   1.9946990e+01
   7.9045840e+02   1.9275880e+01
   7.9094060e+02   1.8333040e+01
   7.9142270e+02   1.7563480e+01
   7.9190480e+02   1.7128390e+01
   7.9238690e+02   1.6937160e+01
   7.9286900e+02   1.6735290e+01
   7.9335110e+02   1.6516330e+01
   7.9383330e+02   1.6226810e+01
   7.9431540e+02   1.6032780e+01
   7.9479750e+02   1.5592620e+01
   7.9527960e+02   1.4285610e+01
   7.9576170e+02   1.2366150e+01
   7.9624380e+02   1.0711460e+01
   7.9672600e+02   9.7231750e+00
   7.9720810e+02   8.9861760e+00
   7.9769020e+02   8.2933350e+00
   7.9817230e+02   7.7225340e+00
   7.9865440e+02   7.7255550e+00
   7.9913650e+02   8.6246030e+00
   7.9961870e+02   9.1735840e+00
   8.0010080e+02   8.8270260e+00
   8.0058290e+02   7.9303890e+00
   8.0106500e+02   7.4918210e+00
   8.0154710e+02   7.4579160e+00
   8.0202920e+02   7.5044250e+00
   8.0251140e+02   7.5522770e+00
   8.0299350e+02   7.5253910e+00
   8.0347560e+02   7.3172300e+00
   8.0395770e+02   6.9690250e+00
   8.0443980e+02   6.6481930e+00
   8.0492190e+02   6.2252500e+00
   8.0540410e+02   6.0550840e+00
   8.0588620e+02   6.4802550e+00
   8.0636830e+02   7.2443540e+00
   8.0685040e+02   7.0453190e+00
   8.0733250e+02   5.5924990e+00
   8.0781460e+02   4.6863710e+00
   8.0829680e+02   5.2962340e+00
   8.0877890e+02   6.6206050e+00
   8.0926100e+02   6.8057560e+00
   8.0974310e+02   6.0629880e+00
   8.1022520e+02   5.2533870e+00
   8.1070730e+02   4.8098750e+00
   8.1118950e+02   4.4675900e+00
   8.1167160e+02   3.6538090e+00
   8.1215370e+02   4.2198490e+00
   8.1263580e+02   4.4491270e+00
   8.1311790e+02   4.3561400e+00
   8.1360000e+02   2.9765010e+00
   8.1408220e+02   3.2496950e+00
   8.1456430e+02   2.8590090e+00
   8.1504640e+02   2.4454650e+00
   8.1552850e+02   2.9614260e+00
   8.1601060e+02   1.7771300e+00
   8.1649270e+02   2.2795720e+00
   8.1697490e+02   2.1074520e+00
   8.1745700e+02   2.2427370e+00
   8.1793910e+02   1.7079160e+00
   8.1842120e+02   1.3749080e+00
   8.1890330e+02   1.7081300e+00
   8.1938540e+02   1.6730040e+00
   8.1986760e+02   1.0596620e+00
   8.2034970e+02   1.2131350e+00
   8.2083180e+02   1.2421000e-02
   8.2131390e+02   5.6417800e-01
   8.2179600e+02   1.2514950e+00
   8.2227810e+02   1.9755250e+00
   8.2276030e+02   2.5881040e+00
   8.2324240e+02   2.7272340e+00
   8.2372450e+02   2.4226990e+00
   8.2420660e+02   1.8745730e+00
   8.2468870e+02   8.6938500e-01
   8.2517080e+02   2.5420999e-02
   8.2565300e+02   2.1920800e-01
   8.2613510e+02   9.8312400e-01
   8.2661720e+02   1.2725520e+00
   8.2709930e+02   2.7401700e-01
   8.2758140e+02   5.9326200e-01
   8.2806350e+02   1.1864930e+00
   8.2854570e+02   1.4207460e+00
   8.2902780e+02   9.1949500e-01
   8.2950990e+02   5.2362100e-01
   8.2999200e+02   1.2839660e+00
   8.3047410e+02   7.9357900e-01
   8.3095620e+02   2.0895400e-01
   8.3143840e+02   4.7570800e-01
   8.3192050e+02   2.1987900e-01
   8.3240260e+02   4.5959000e-02
   8.3288470e+02   2.5308200e-01
   8.3336680e+02   4.7201500e-01
   8.3384890e+02   5.5383300e-01
   8.3433110e+02   5.2108800e-01
   8.3481320e+02   3.6764500e-01
   8.3529530e+02   1.1987300e-01
   8.3577740e+02   2.6089500e-01
   8.3625950e+02   1.4291400e-01
   8.3674160e+02   7.5213600e-01
   8.3722380e+02   1.1184080e+00
   8.3770590e+02   1.2237240e+00
   8.3818800e+02   7.0715300e-01
   8.3867010e+02   7.4874900e-01
   8.3915220e+02   2.0913090e+00
   8.3963430e+02   2.0979610e+00
   8.4011650e+02   1.3682860e+00
   8.4059860e+02   7.3693800e-01
   8.4108070e+02   4.6063200e-01
   8.4156280e+02   2.6992800e-01
   8.4204490e+02   2.1414200e-01
   8.4252700e+02   1.5860000e-01
   8.4300920e+02   1.1233500e-01
   8.4349130e+02   7.0437600e-01
   8.4397340e+02   8.1213400e-01
   8.4445550e+02   2.6959200e-01
   8.4493760e+02   3.6224400e-01
   8.4541970e+02   2.7505500e-01
   8.4590190e+02   2.0071400e-01
   8.4638400e+02   3.4243800e-01
   8.4686610e+02   1.2360000e-02
   8.4734820e+02   5.5853300e-01
   8.4783030e+02   1.4958800e+00
   8.4831240e+02   2.3259280e+00
   8.4879460e+02   2.5350650e+00
   8.4927670e+02   1.7346500e+00
   8.4975880e+02   1.3004760e+00
   8.5024090e+02   1.3800350e+00
   8.5072300e+02   1.5472410e+00
   8.5120510e+02   1.3551030e+00
   8.5168730e+02   4.6051000e-01
   8.5216940e+02   1.3980410e+00
   8.5265150e+02   1.9316100e+00
   8.5313360e+02   2.0823970e+00
   8.5361570e+02   7.0993000e-01
   8.5409780e+02   1.3015440e+00
   8.5458000e+02   1.1039730e+00
   8.5506210e+02   8.7353500e-01
   8.5554420e+02   1.7391050e+00
   8.5602630e+02   5.8386200e-01
   8.5650840e+02   1.4344790e+00
   8.5699050e+02   1.4837650e+00
   8.5747270e+02   1.9000240e+00
   8.5795480e+02   1.5252690e+00
   8.5843690e+02   1.3919680e+00
   8.5891900e+02   2.0561220e+00
   8.5940110e+02   2.2779850e+00
   8.5988320e+02   1.8099980e+00
   8.6036540e+02   2.2469180e+00
   8.6084750e+02   1.0650630e+00
   8.6132960e+02   1.3052670e+00
   8.6181170e+02   2.1557920e+00
   8.6229380e+02   1.7229310e+00
   8.6277590e+02   2.1731260e+00
   8.6325810e+02   2.2850040e+00
   8.6374020e+02   8.7554900e-01
   8.6422230e+02   2.1311340e+00
   8.6470440e+02   2.2389530e+00
   8.6518650e+02   1.1619870e+00
   8.6566860e+02   2.3141780e+00
   8.6615080e+02   1.3888850e+00
   8.6663290e+02   1.7850950e+00
   8.6711500e+02   2.2528380e+00
   8.6759710e+02   2.2160030e+00
   8.6807920e+02   2.0121460e+00
   8.6856130e+02   1.7640990e+00
   8.6904350e+02   1.5004270e+00
   8.6952560e+02   1.3055110e+00
   8.7000770e+02   1.0240780e+00
   8.7048980e+02   1.1452640e+00
   8.7097190e+02   2.0132140e+00
   8.7145400e+02   3.0867310e+00
   8.7193620e+02   2.9889530e+00
   8.7241830e+02   1.8817140e+00
   8.7290040e+02   1.0260010e+00
   8.7338250e+02   8.5412600e-01
   8.7386460e+02   9.7934000e-01
   8.7434670e+02   1.0460210e+00
   8.7482890e+02   1.1625670e+00
   8.7531100e+02   1.4933780e+00
   8.7579310e+02   2.6705320e+00
   8.7627520e+02   3.2359310e+00
   8.7675730e+02   2.7870180e+00
   8.7723940e+02   1.9708250e+00
   8.7772160e+02   1.5016480e+00
   8.7820370e+02   1.3994750e+00
   8.7868580e+02   1.4657290e+00
   8.7916790e+02   1.7051390e+00
   8.7965000e+02   1.9862670e+00
   8.8013210e+02   1.9426880e+00
   8.8061430e+02   1.9219360e+00
   8.8109640e+02   2.6963200e+00
   8.8157850e+02   4.7781680e+00
   8.8206060e+02   5.9015200e+00
   8.8254270e+02   4.1156920e+00
   8.8302480e+02   2.0303340e+00
   8.8350700e+02   1.4763790e+00
   8.8398910e+02   2.7139590e+00
   8.8447120e+02   3.8057560e+00
   8.8495330e+02   4.7857970e+00
   8.8543540e+02   5.3090820e+00
   8.8591750e+02   5.0235290e+00
   8.8639970e+02   4.1424260e+00
   8.8688180e+02   2.7996830e+00
   8.8736390e+02   1.1156920e+00
   8.8784600e+02   3.0579001e-02
   8.8832810e+02   4.4979900e-01
   8.8881020e+02   1.3253480e+00
   8.8929240e+02   1.1949770e+00
   8.8977450e+02   2.2308040e+00
   8.9025660e+02   2.8615420e+00
   8.9073870e+02   3.0596620e+00
   8.9122080e+02   1.6930850e+00
   8.9170290e+02   2.2807620e+00
   8.9218510e+02   2.0762940e+00
   8.9266720e+02   1.8367610e+00
   8.9314930e+02   2.7170100e+00
   8.9363140e+02   1.5776980e+00
   8.9411350e+02   2.4219360e+00
   8.9459560e+02   2.4280400e+00
   8.9507780e+02   2.7768550e+00
   8.9555990e+02   2.3259280e+00
   8.9604200e+02   2.1496890e+00
   8.9652410e+02   2.8211980e+00
   8.9700620e+02   3.0506590e+00
   8.9748830e+02   2.5870060e+00
   8.9797050e+02   3.0294490e+00
   8.9845260e+02   1.8492130e+00
   8.9893470e+02   2.0883480e+00
   8.9941680e+02   2.9367370e+00
   8.9989890e+02   2.5079650e+00
   9.0038100e+02   2.9620060e+00
   9.0086320e+02   3.0636600e+00
   9.0134530e+02   1.6007080e+00
   9.0182740e+02   2.7831120e+00
   9.0230950e+02   2.8511350e+00
   9.0279160e+02   1.7701420e+00
   9.0327370e+02   2.9185180e+00
   9.0375590e+02   1.9679570e+00
   9.0423800e+02   1.7498470e+00
   9.0472010e+02   2.1123960e+00
   9.0520220e+02   1.9129030e+00
   9.0568430e+02   2.6304630e+00
   9.0616640e+02   2.4650880e+00
   9.0664860e+02   2.2177430e+00
   9.0713070e+02   2.3120730e+00
   9.0761280e+02   1.4304200e+00
   9.0809490e+02   2.3552550e+00
   9.0857700e+02   2.0437930e+00
   9.0905910e+02   2.3415530e+00
   9.0954130e+02   2.3905030e+00
   9.1002340e+02   2.6224670e+00
   9.1050550e+02   2.9829710e+00
   9.1098760e+02   3.2395320e+00
   9.1146970e+02   3.3775940e+00
   9.1195180e+02   3.7325740e+00
   9.1243400e+02   4.3615110e+00
   9.1291610e+02   4.6042480e+00
   9.1339820e+02   4.4887700e+00
   9.1388030e+02   2.8628230e+00
   9.1436240e+02   3.2274780e+00
   9.1484450e+02   2.8240360e+00
   9.1532670e+02   2.4090580e+00
   9.1580880e+02   3.1080020e+00
   9.1629090e+02   1.8062440e+00
   9.1677300e+02   2.5281370e+00
   9.1725510e+02   2.4704590e+00
   9.1773720e+02   2.7958070e+00
   9.1821940e+02   2.3497010e+00
   9.1870150e+02   2.1624150e+00
   9.1918360e+02   2.7878420e+00
   9.1966570e+02   2.9970090e+00
   9.2014780e+02   2.5337520e+00
   9.2062990e+02   2.9983220e+00
   9.2111210e+02   1.8657840e+00
   9.2159420e+02   3.5650600e-01
   9.2207630e+02   3.4179700e-01
   9.2255840e+02   7.3516800e-01
   9.2304050e+02   1.5422360e+00
   9.2352260e+02   2.6563720e+00
   9.2400480e+02   4.1036380e+00
   9.2448690e+02   5.1499330e+00
   9.2496900e+02   4.8335880e+00
   9.2545110e+02   4.0224610e+00
   9.2593320e+02   3.6969300e+00
   9.2641530e+02   3.8952030e+00
   9.2689750e+02   4.0682980e+00
   9.2737960e+02   3.9730830e+00
   9.2786170e+02   3.9445190e+00
   9.2834380e+02   4.2093810e+00
   9.2882590e+02   4.6320800e+00
   9.2930800e+02   4.4072880e+00
   9.2979020e+02   3.5429990e+00
   9.3027230e+02   2.7315060e+00
   9.3075440e+02   2.3713070e+00
   9.3123650e+02   2.1218870e+00
   9.3171860e+02   1.5164490e+00
   9.3220070e+02   7.4472000e-01
   9.3268290e+02   1.9824200e-01
   9.3316500e+02   2.7743500e-01
   9.3364710e+02   7.3761001e-02
   9.3412920e+02   1.3463440e+00
   9.3461130e+02   3.0127560e+00
   9.3509340e+02   3.4738160e+00
   9.3557560e+02   2.7473140e+00
   9.3605770e+02   1.8692630e+00
   9.3653980e+02   9.2910800e-01
   9.3702190e+02   2.7197300e-01
   9.3750400e+02   5.1828000e-01
   9.3798610e+02   1.1091000e+00
   9.3846830e+02   1.4220280e+00
   9.3895040e+02   1.3418270e+00
   9.3943250e+02   1.0386050e+00
   9.3991460e+02   3.2464600e-01
   9.4039670e+02   3.1643700e-01
   9.4087880e+02   6.7376700e-01
   9.4136100e+02   7.4395800e-01
   9.4184310e+02   3.8815300e-01
   9.4232520e+02   3.7396200e-01
   9.4280730e+02   9.3954500e-01
   9.4328940e+02   6.7749000e-01
   9.4377150e+02   2.5491300e-01
   9.4425370e+02   4.1284200e-01
   9.4473580e+02   9.4165000e-01
   9.4521790e+02   1.0621340e+00
   9.4570000e+02   2.3190300e-01
   9.4618210e+02   5.0650000e-01
   9.4666420e+02   1.0678710e+00
   9.4714640e+02   1.3951110e+00
   9.4762850e+02   1.2150570e+00
   9.4811060e+02   6.1224400e-01
   9.4859270e+02   1.7419400e-01
   9.4907480e+02   1.0919200e-01
   9.4955690e+02   2.7892999e-02
   9.5003910e+02   5.5267300e-01
   9.5052120e+02   1.2660220e+00
   9.5100330e+02   1.6859130e+00
   9.5148540e+02   1.6017760e+00
   9.5196750e+02   1.5462340e+00
   9.5244960e+02   1.3304140e+00
   9.5293180e+02   1.2308960e+00
   9.5341390e+02   1.5449520e+00
   9.5389600e+02   2.2220150e+00
   9.5437810e+02   3.0808110e+00
   9.5486020e+02   4.0768130e+00
   9.5534230e+02   4.7815550e+00
   9.5582450e+02   5.0344240e+00
   9.5630660e+02   4.7824710e+00
   9.5678870e+02   3.6501460e+00
   9.5727080e+02   1.8277890e+00
   9.5775290e+02   7.7334600e-01
   9.5823500e+02   8.0407700e-01
   9.5871720e+02   9.4934100e-01
   9.5919930e+02   9.4299300e-01
   9.5968140e+02   9.0557900e-01
   9.6016350e+02   1.2048030e+00
   9.6064560e+02   1.6800840e+00
   9.6112770e+02   1.7920230e+00
   9.6160990e+02   1.1318660e+00
   9.6209200e+02   5.2056900e-01
   9.6257410e+02   4.0078700e-01
   9.6305620e+02   5.9234600e-01
   9.6353830e+02   9.2309600e-01
   9.6402040e+02   1.5102230e+00
   9.6450260e+02   1.8050540e+00
   9.6498470e+02   1.7174070e+00
   9.6546680e+02   1.6338500e+00
   9.6594890e+02   2.0802310e+00
   9.6643100e+02   2.7500920e+00
   9.6691310e+02   2.9965210e+00
   9.6739530e+02   2.7090150e+00
   9.6787740e+02   2.4165040e+00
   9.6835950e+02   2.1824040e+00
   9.6884160e+02   2.2022710e+00
   9.6932370e+02   2.5075070e+00
   9.6980580e+02   3.1344600e+00
   9.7028800e+02   4.5155940e+00
   9.7077010e+02   6.7962040e+00
   9.7125220e+02   8.5460510e+00
   9.7173430e+02   9.3889160e+00
   9.7221640e+02   9.3058780e+00
   9.7269850e+02   7.5014650e+00
   9.7318070e+02   4.8936460e+00
   9.7366280e+02   3.2835690e+00
   9.7414490e+02   3.6189580e+00
   9.7462700e+02   4.2737120e+00
   9.7510910e+02   4.8780820e+00
   9.7559120e+02   5.7248840e+00
   9.7607340e+02   7.6231690e+00
   9.7655550e+02   1.0639830e+01
   9.7703760e+02   1.0619260e+01
   9.7751970e+02   7.2174070e+00
   9.7800180e+02   3.7199400e+00
   9.7848390e+02   2.6572570e+00
   9.7896610e+02   2.9138490e+00
   9.7944820e+02   3.7291560e+00
   9.7993030e+02   4.9884030e+00
   9.8041240e+02   5.7570800e+00
   9.8089450e+02   5.8751220e+00
   9.8137660e+02   5.5284730e+00
   9.8185880e+02   4.6155090e+00
   9.8234090e+02   3.3840330e+00
   9.8282300e+02   2.3625180e+00
   9.8330510e+02   1.6043090e+00
   9.8378720e+02   1.5207820e+00
   9.8426930e+02   2.5798340e+00
   9.8475150e+02   3.7251590e+00
   9.8523360e+02   4.3145140e+00
   9.8571570e+02   4.5085750e+00
   9.8619780e+02   4.4707950e+00
   9.8667990e+02   4.0294800e+00
   9.8716200e+02   3.8128970e+00
   9.8764420e+02   3.8328550e+00
   9.8812630e+02   4.0372920e+00
   9.8860840e+02   4.5294190e+00
   9.8909050e+02   5.1300050e+00
   9.8957260e+02   5.3579710e+00
   9.9005470e+02   5.2192380e+00
   9.9053690e+02   5.0128170e+00
   9.9101900e+02   4.8517460e+00
   9.9150110e+02   4.7150270e+00
   9.9198320e+02   4.5495610e+00
   9.9246530e+02   4.3780820e+00
   9.9294740e+02   4.4742430e+00
   9.9342960e+02   4.9233090e+00
   9.9391170e+02   4.6959530e+00
   9.9439380e+02   3.2172550e+00
   9.9487590e+02   1.5330810e+00
   9.9535800e+02   7.7011100e-01
   9.9584010e+02   8.7942500e-01
   9.9632230e+02   1.8944700e+00
   9.9680440e+02   4.7324830e+00
   9.9728650e+02   6.4266360e+00
   9.9776860e+02   6.2072750e+00
   9.9825070e+02   5.1898800e+00
   9.9873280e+02   3.9482730e+00
   9.9921500e+02   2.5415950e+00
   9.9969710e+02   2.0891720e+00
   1.0001790e+03   2.5777280e+00
   1.0006610e+03   2.8804320e+00
   1.0011430e+03   1.4791260e+00
   1.0016260e+03   2.4127200e-01
   1.0021080e+03   1.1203920e+00
   1.0025900e+03   3.5992430e+00
   1.0030720e+03   4.8776250e+00
   1.0035540e+03   4.4622500e+00
   1.0040360e+03   3.4728390e+00
   1.0045180e+03   1.8175050e+00
   1.0050000e+03   3.2116700e-01
   1.0054820e+03   9.9353000e-01
   1.0059650e+03   2.9753720e+00
   1.0064470e+03   3.7726440e+00
   1.0069290e+03   2.4953310e+00
   1.0074110e+03   1.1629640e+00
   1.0078930e+03   8.6792000e-01
   1.0083750e+03   7.9309100e-01
   1.0088570e+03   1.1581400e-01
   1.0093390e+03   1.3158870e+00
   1.0098220e+03   9.5578000e-01
   1.0103040e+03   1.3639830e+00
   1.0107860e+03   3.5480650e+00
   1.0112680e+03   4.1361080e+00
   1.0117500e+03   3.9006350e+00
   1.0122320e+03   3.6345520e+00
   1.0127140e+03   3.3541260e+00
   1.0131960e+03   3.0892940e+00
   1.0136780e+03   2.6647640e+00
   1.0141610e+03   2.5614010e+00
   1.0146430e+03   3.0517880e+00
   1.0151250e+03   3.6241460e+00
   1.0156070e+03   3.3782650e+00
   1.0160890e+03   2.4929200e+00
   1.0165710e+03   2.1327510e+00
   1.0170530e+03   2.5195310e+00
   1.0175350e+03   2.9009400e+00
   1.0180180e+03   2.6078800e+00
   1.0185000e+03   2.1566770e+00
   1.0189820e+03   1.8995970e+00
   1.0194640e+03   1.8654480e+00
   1.0199460e+03   2.1546330e+00
   1.0204280e+03   2.8684080e+00
   1.0209100e+03   3.5792240e+00
   1.0213920e+03   4.2018430e+00
   1.0218740e+03   4.6059570e+00
   1.0223570e+03   4.5900270e+00
   1.0228390e+03   4.1303410e+00
   1.0233210e+03   3.1339110e+00
   1.0238030e+03   3.4100300e-01
   1.0242850e+03   1.1931760e+00
   1.0247670e+03   2.8454600e-01
   1.0252490e+03   2.4606630e+00
   1.0257310e+03   3.1447450e+00
   1.0262140e+03   2.3310550e+00
   1.0266960e+03   1.3363950e+00
   1.0271780e+03   2.0193500e-01
   1.0276600e+03   3.6502100e-01
   1.0281420e+03   7.0282000e-01
   1.0286240e+03   2.1626890e+00
   1.0291060e+03   2.9200440e+00
   1.0295880e+03   3.0071410e+00
   1.0300700e+03   3.2359310e+00
   1.0305530e+03   3.9297790e+00
   1.0310350e+03   4.1235350e+00
   1.0315170e+03   3.4463200e+00
   1.0319990e+03   2.3879700e+00
   1.0324810e+03   1.6063540e+00
   1.0329630e+03   1.1604920e+00
   1.0334450e+03   1.3162230e+00
   1.0339270e+03   2.3819270e+00
   1.0344100e+03   3.1285400e+00
   1.0348920e+03   2.5631710e+00
   1.0353740e+03   1.8521420e+00
   1.0358560e+03   1.8546750e+00
   1.0363380e+03   2.5859070e+00
   1.0368200e+03   2.8578190e+00
   1.0373020e+03   2.6525270e+00
   1.0377840e+03   2.6785890e+00
   1.0382660e+03   4.0748900e+00
   1.0387490e+03   5.3184510e+00
   1.0392310e+03   4.2541500e+00
   1.0397130e+03   1.8753360e+00
   1.0401950e+03   6.2362700e-01
   1.0406770e+03   1.7584530e+00
   1.0411590e+03   2.5909730e+00
   1.0416410e+03   2.9056400e+00
   1.0421230e+03   2.8663330e+00
   1.0426050e+03   2.3867800e+00
   1.0430880e+03   1.7398070e+00
   1.0435700e+03   1.9818420e+00
   1.0440520e+03   3.2187810e+00
   1.0445340e+03   3.9495540e+00
   1.0450160e+03   2.6791690e+00
   1.0454980e+03   1.3941650e+00
   1.0459800e+03   1.2183840e+00
   1.0464620e+03   1.8901060e+00
   1.0469450e+03   2.2525630e+00
   1.0474270e+03   2.3072510e+00
   1.0479090e+03   2.0634460e+00
   1.0483910e+03   1.3134160e+00
   1.0488730e+03   7.8952000e-01
   1.0493550e+03   1.6737370e+00
   1.0498370e+03   3.0619510e+00
   1.0503190e+03   3.9263310e+00
   1.0508020e+03   3.8544620e+00
   1.0512840e+03   3.8786620e+00
   1.0517660e+03   4.1476750e+00
   1.0522480e+03   4.2112430e+00
   1.0527300e+03   3.3632200e+00
   1.0532120e+03   2.1061100e+00
   1.0536940e+03   2.4711000e+00
   1.0541760e+03   4.0481870e+00
   1.0546580e+03   4.8814390e+00
   1.0551410e+03   2.7357480e+00
   1.0556230e+03   1.0271300e+00
   1.0561050e+03   1.4119870e+00
   1.0565870e+03   2.7716060e+00
   1.0570690e+03   3.5950010e+00
   1.0575510e+03   3.8778690e+00
   1.0580330e+03   3.6288150e+00
   1.0585150e+03   2.8057860e+00
   1.0589970e+03   2.1621400e+00
   1.0594800e+03   2.5356450e+00
   1.0599620e+03   3.3164060e+00
   1.0604440e+03   4.0303040e+00
   1.0609260e+03   4.6057740e+00
   1.0614080e+03   4.9183350e+00
   1.0618900e+03   4.9648440e+00
   1.0623720e+03   4.7290650e+00
   1.0628540e+03   4.0878600e+00
   1.0633370e+03   3.3626400e+00
   1.0638190e+03   3.2267460e+00
   1.0643010e+03   3.4567570e+00
   1.0647830e+03   3.6060490e+00
   1.0652650e+03   3.6217960e+00
   1.0657470e+03   3.3191830e+00
   1.0662290e+03   2.1939090e+00
   1.0667110e+03   1.1900020e+00
   1.0671930e+03   9.9371300e-01
   1.0676760e+03   1.4847720e+00
   1.0681580e+03   1.7086180e+00
   1.0686400e+03   1.6826170e+00
   1.0691220e+03   1.5823060e+00
   1.0696040e+03   1.1734920e+00
   1.0700860e+03   1.0766910e+00
   1.0705680e+03   2.1365360e+00
   1.0710500e+03   3.7102660e+00
   1.0715320e+03   4.3334350e+00
   1.0720150e+03   3.6429750e+00
   1.0724970e+03   3.3121950e+00
   1.0729790e+03   3.6231080e+00
   1.0734610e+03   3.7755130e+00
   1.0739430e+03   2.2936710e+00
   1.0744250e+03   4.5809900e-01
   1.0749070e+03   3.4182700e-01
   1.0753890e+03   2.0291440e+00
   1.0758720e+03   3.2718200e+00
   1.0763540e+03   2.9136960e+00
   1.0768360e+03   2.9576110e+00
   1.0773180e+03   4.2968750e+00
   1.0778000e+03   5.9835820e+00
   1.0782820e+03   5.5120540e+00
   1.0787640e+03   3.4960020e+00
   1.0792460e+03   2.2727660e+00
   1.0797290e+03   2.6245120e+00
   1.0802110e+03   3.1574100e+00
   1.0806930e+03   2.9536740e+00
   1.0811750e+03   2.7848210e+00
   1.0816570e+03   3.4207150e+00
   1.0821390e+03   4.8222660e+00
   1.0826210e+03   4.7467650e+00
   1.0831030e+03   3.1219180e+00
   1.0835850e+03   1.9415590e+00
   1.0840680e+03   2.8150630e+00
   1.0845500e+03   4.0493160e+00
   1.0850320e+03   3.7513120e+00
   1.0855140e+03   2.7182010e+00
   1.0859960e+03   2.4647830e+00
   1.0864780e+03   3.8244020e+00
   1.0869600e+03   4.4254150e+00
   1.0874420e+03   4.0420840e+00
   1.0879240e+03   3.3639530e+00
   1.0884060e+03   3.0291750e+00
   1.0888890e+03   2.8606870e+00
   1.0893710e+03   2.4144900e+00
   1.0898530e+03   1.7429810e+00
   1.0903350e+03   1.3654480e+00
   1.0908170e+03   1.7478640e+00
   1.0912990e+03   2.1467290e+00
   1.0917810e+03   2.4772340e+00
   1.0922630e+03   2.6108090e+00
   1.0927460e+03   2.1271060e+00
   1.0932280e+03   1.2063290e+00
   1.0937100e+03   7.8018200e-01
   1.0941920e+03   1.0409550e+00
   1.0946740e+03   1.4242550e+00
   1.0951560e+03   1.5556640e+00
   1.0956380e+03   1.7063900e+00
   1.0961200e+03   2.1404720e+00
   1.0966030e+03   2.7610170e+00
   1.0970850e+03   2.9212040e+00
   1.0975670e+03   2.6060180e+00
   1.0980490e+03   2.1171260e+00
   1.0985310e+03   1.4086910e+00
   1.0990130e+03   1.0267030e+00
   1.0994950e+03   1.5739140e+00
   1.0999770e+03   2.5781250e+00
   1.1004590e+03   3.6147160e+00
   1.1009420e+03   4.9461980e+00
   1.1014240e+03   5.2565610e+00
   1.1019060e+03   4.3226620e+00
   1.1023880e+03   3.1171260e+00
   1.1028700e+03   2.1138000e+00
   1.1033520e+03   1.3433230e+00
   1.1038340e+03   8.9514200e-01
   1.1043160e+03   7.3129300e-01
   1.1047980e+03   7.4389600e-01
   1.1052810e+03   1.4310000e+00
   1.1057630e+03   1.4255070e+00
   1.1062450e+03   2.3314999e-02
   1.1067270e+03   1.3223570e+00
   1.1072090e+03   4.5929000e-01
   1.1076910e+03   1.9127500e+00
   1.1081730e+03   2.6112980e+00
   1.1086550e+03   1.5652470e+00
   1.1091380e+03   4.1772500e-01
   1.1096200e+03   2.1149000e-02
   1.1101020e+03   2.1398900e-01
   1.1105840e+03   3.0212400e-01
   1.1110660e+03   3.4158300e-01
   1.1115480e+03   5.4254200e-01
   1.1120300e+03   8.9334100e-01
   1.1125120e+03   5.2722200e-01
   1.1129950e+03   8.6074800e-01
   1.1134770e+03   1.9488530e+00
   1.1139590e+03   1.1002200e+00
   1.1144410e+03   1.3147000e-01
   1.1149230e+03   4.6136500e-01
   1.1154050e+03   1.7016600e-01
   1.1158870e+03   8.3663900e-01
   1.1163690e+03   1.6117860e+00
   1.1168510e+03   2.0090030e+00
   1.1173330e+03   1.7477420e+00
   1.1178160e+03   1.2763670e+00
   1.1182980e+03   1.0309140e+00
   1.1187800e+03   1.0380550e+00
   1.1192620e+03   1.4085690e+00
   1.1197440e+03   2.4619750e+00
   1.1202260e+03   2.9290770e+00
   1.1207080e+03   2.6439820e+00
   1.1211900e+03   2.0933530e+00
   1.1216730e+03   1.3271480e+00
   1.1221550e+03   6.4047200e-01
   1.1226370e+03   1.1818540e+00
   1.1231190e+03   2.3859250e+00
   1.1236010e+03   2.6937870e+00
   1.1240830e+03   4.6021000e-02
   1.1245650e+03   1.5093990e+00
   1.1250470e+03   5.6189000e-01
   1.1255300e+03   1.1478880e+00
   1.1260120e+03   2.2678220e+00
   1.1264940e+03   2.8358760e+00
   1.1269760e+03   2.8351140e+00
   1.1274580e+03   2.3633420e+00
   1.1279400e+03   2.2250060e+00
   1.1284220e+03   3.4389950e+00
   1.1289040e+03   4.4545590e+00
   1.1293860e+03   4.0214540e+00
   1.1298690e+03   3.2967530e+00
   1.1303510e+03   4.4651790e+00
   1.1308330e+03   7.4709470e+00
   1.1313150e+03   8.9922790e+00
   1.1317970e+03   8.5805970e+00
   1.1322790e+03   7.7916870e+00
   1.1327610e+03   8.0354610e+00
   1.1332430e+03   8.2511900e+00
   1.1337250e+03   7.4526060e+00
   1.1342080e+03   5.8706970e+00
   1.1346900e+03   4.7098690e+00
   1.1351720e+03   3.9674070e+00
   1.1356540e+03   3.7660220e+00
   1.1361360e+03   4.2627560e+00
   1.1366180e+03   4.8317870e+00
   1.1371000e+03   4.7552190e+00
   1.1375820e+03   4.3946230e+00
   1.1380650e+03   4.0220030e+00
   1.1385470e+03   3.6347960e+00
   1.1390290e+03   4.0100100e+00
   1.1395110e+03   5.6058350e+00
   1.1399930e+03   6.3400270e+00
   1.1404750e+03   4.8672790e+00
   1.1409570e+03   2.9286800e+00
   1.1414390e+03   3.7840580e+00
   1.1419220e+03   5.9818120e+00
   1.1424040e+03   6.9683530e+00
   1.1428860e+03   5.5482180e+00
   1.1433680e+03   4.3633730e+00
   1.1438500e+03   3.5641480e+00
   1.1443320e+03   3.1740420e+00
   1.1448140e+03   3.4848330e+00
   1.1452960e+03   4.0694270e+00
   1.1457780e+03   3.4671940e+00
   1.1462600e+03   2.1830750e+00
   1.1467430e+03   1.6835630e+00
   1.1472250e+03   4.0159300e+00
   1.1477070e+03   5.0036320e+00
   1.1481890e+03   3.0492250e+00
   1.1486710e+03   1.0093080e+00
   1.1491530e+03   2.0463560e+00
   1.1496350e+03   5.2648620e+00
   1.1501170e+03   6.0230710e+00
   1.1506000e+03   4.5499270e+00
   1.1510820e+03   3.2519230e+00
   1.1515640e+03   4.0744020e+00
   1.1520460e+03   4.4320070e+00
   1.1525280e+03   2.7907410e+00
   1.1530100e+03   6.8618800e-01
   1.1534920e+03   4.3100000e-01
   1.1539740e+03   1.8153080e+00
   1.1544570e+03   2.4396670e+00
   1.1549390e+03   2.0877080e+00
   1.1554210e+03   1.3415220e+00
   1.1559030e+03   5.4687999e-02
   1.1563850e+03   1.0980830e+00
   1.1568670e+03   1.0995480e+00
   1.1573490e+03   3.1585700e-01
   1.1578310e+03   1.0469360e+00
   1.1583130e+03   3.0103760e+00
   1.1587960e+03   3.9820250e+00
   1.1592780e+03   3.6303100e+00
   1.1597600e+03   2.8612670e+00
   1.1602420e+03   2.0556030e+00
   1.1607240e+03   1.4597780e+00
   1.1612060e+03   1.3498230e+00
   1.1616880e+03   1.6794430e+00
   1.1621700e+03   2.1077880e+00
   1.1626520e+03   2.6577150e+00
   1.1631350e+03   3.0829470e+00
   1.1636170e+03   3.2961430e+00
   1.1640990e+03   3.4199220e+00
   1.1645810e+03   3.6960450e+00
   1.1650630e+03   3.9012150e+00
   1.1655450e+03   3.5065610e+00
   1.1660270e+03   2.3490910e+00
   1.1665090e+03   1.5541080e+00
   1.1669920e+03   1.0950320e+00
   1.1674740e+03   1.1703490e+00
   1.1679560e+03   2.1177370e+00
   1.1684380e+03   3.1690060e+00
   1.1689200e+03   3.2793580e+00
   1.1694020e+03   2.8620910e+00
   1.1698840e+03   2.5622250e+00
   1.1703660e+03   2.7420350e+00
   1.1708490e+03   2.2710570e+00
   1.1713310e+03   7.7420000e-01
   1.1718130e+03   2.4026500e-01
   1.1722950e+03   3.6346400e-01
   1.1727770e+03   1.6743470e+00
   1.1732590e+03   2.3638920e+00
   1.1737410e+03   2.6448360e+00
   1.1742230e+03   2.9732670e+00
   1.1747050e+03   3.9433590e+00
   1.1751880e+03   3.9786070e+00
   1.1756700e+03   2.7468570e+00
   1.1761520e+03   1.4194340e+00
   1.1766340e+03   8.5272200e-01
   1.1771160e+03   8.0789200e-01
   1.1775980e+03   9.3557700e-01
   1.1780800e+03   1.1565250e+00
   1.1785620e+03   1.2785950e+00
   1.1790440e+03   9.8559600e-01
   1.1795270e+03   1.0539250e+00
   1.1800090e+03   1.7937930e+00
   1.1804910e+03   2.3888850e+00
   1.1809730e+03   1.6444090e+00
   1.1814550e+03   3.0990600e-01
   1.1819370e+03   3.4503200e-01
   1.1824190e+03   1.4532170e+00
   1.1829010e+03   2.3232120e+00
   1.1833840e+03   2.2076720e+00
   1.1838660e+03   1.9218750e+00
   1.1843480e+03   1.4503170e+00
   1.1848300e+03   1.1738590e+00
   1.1853120e+03   1.9745790e+00
   1.1857940e+03   3.2677920e+00
   1.1862760e+03   3.2299800e+00
   1.1867580e+03   1.8159180e+00
   1.1872400e+03   8.0484000e-01
   1.1877230e+03   1.2398680e+00
   1.1882050e+03   1.7846680e+00
   1.1886870e+03   2.0394590e+00
   1.1891690e+03   2.3110960e+00
   1.1896510e+03   3.4405820e+00
   1.1901330e+03   4.9741820e+00
   1.1906150e+03   5.2186580e+00
   1.1910970e+03   3.9481810e+00
   1.1915790e+03   3.1377260e+00
   1.1920620e+03   4.1918030e+00
   1.1925440e+03   5.2181090e+00
   1.1930260e+03   5.6098330e+00
   1.1935080e+03   5.5851440e+00
   1.1939900e+03   5.5364380e+00
   1.1944720e+03   5.4857480e+00
   1.1949540e+03   5.6234440e+00
   1.1954360e+03   6.0639950e+00
   1.1959190e+03   6.0262150e+00
   1.1964010e+03   4.6224370e+00
   1.1968830e+03   3.2843930e+00
   1.1973650e+03   2.5882260e+00
   1.1978470e+03   2.3875120e+00
   1.1983290e+03   2.1474300e+00
   1.1988110e+03   2.0086060e+00
   1.1992930e+03   2.7325130e+00
   1.1997760e+03   4.8222350e+00
   1.2002580e+03   6.2777400e+00
   1.2007400e+03   5.6304020e+00
   1.2012220e+03   4.6013180e+00
   1.2017040e+03   3.9706730e+00
   1.2021860e+03   3.6657410e+00
   1.2026680e+03   3.5338130e+00
   1.2031500e+03   3.5191960e+00
   1.2036320e+03   3.3676450e+00
   1.2041150e+03   2.9183960e+00
   1.2045970e+03   2.5605770e+00
   1.2050790e+03   2.3792110e+00
   1.2055610e+03   2.4868160e+00
   1.2060430e+03   3.0668950e+00
   1.2065250e+03   3.9696660e+00
   1.2070070e+03   4.4264220e+00
   1.2074890e+03   4.4996030e+00
   1.2079710e+03   4.4545290e+00
   1.2084540e+03   4.2766110e+00
   1.2089360e+03   4.2254030e+00
   1.2094180e+03   4.7334900e+00
   1.2099000e+03   5.0845640e+00
   1.2103820e+03   4.6833500e+00
   1.2108640e+03   3.6743160e+00
   1.2113460e+03   3.1149900e+00
   1.2118280e+03   2.9475400e+00
   1.2123110e+03   2.8425900e+00
   1.2127930e+03   2.4012150e+00
   1.2132750e+03   2.3898620e+00
   1.2137570e+03   3.5184330e+00
   1.2142390e+03   4.6937870e+00
   1.2147210e+03   5.2138370e+00
   1.2152030e+03   5.2181090e+00
   1.2156850e+03   5.4260560e+00
   1.2161670e+03   5.7095340e+00
   1.2166500e+03   5.5706480e+00
   1.2171320e+03   4.0724180e+00
   1.2176140e+03   3.0305180e+00
   1.2180960e+03   3.5221250e+00
   1.2185780e+03   4.1840210e+00
   1.2190600e+03   3.5321040e+00
   1.2195420e+03   1.8644710e+00
   1.2200240e+03   1.3453670e+00
   1.2205060e+03   1.8040160e+00
   1.2209890e+03   2.0488280e+00
   1.2214710e+03   1.0762330e+00
   1.2219530e+03   3.7085000e-01
   1.2224350e+03   4.0084800e-01
   1.2229170e+03   8.0206300e-01
   1.2233990e+03   1.3401180e+00
   1.2238810e+03   1.9218440e+00
   1.2243630e+03   2.3801880e+00
   1.2248460e+03   2.6952510e+00
   1.2253280e+03   2.8519590e+00
   1.2258100e+03   2.7184450e+00
   1.2262920e+03   2.5614010e+00
   1.2267740e+03   2.5263370e+00
   1.2272560e+03   2.4436650e+00
   1.2277380e+03   1.6884460e+00
   1.2282200e+03   7.4020400e-01
   1.2287030e+03   1.8993840e+00
   1.2291850e+03   4.8615420e+00
   1.2296670e+03   6.6828310e+00
   1.2301490e+03   4.9114070e+00
   1.2306310e+03   3.1828000e+00
   1.2311130e+03   2.1139220e+00
   1.2315950e+03   1.7187500e+00
   1.2320770e+03   2.4606930e+00
   1.2325590e+03   3.8729860e+00
   1.2330420e+03   4.7821040e+00
   1.2335240e+03   5.0671080e+00
   1.2340060e+03   4.6586610e+00
   1.2344880e+03   2.4821780e+00
   1.2349700e+03   1.1238400e+00
   1.2354520e+03   1.3015750e+00
   1.2359340e+03   2.0542910e+00
   1.2364160e+03   2.1270140e+00
   1.2368980e+03   1.7753300e+00
   1.2373810e+03   1.4987180e+00
   1.2378630e+03   1.3804020e+00
   1.2383450e+03   1.5588680e+00
   1.2388270e+03   2.7378850e+00
   1.2393090e+03   3.1181640e+00
   1.2397910e+03   2.1427920e+00
   1.2402730e+03   8.4655800e-01
   1.2407550e+03   8.5354600e-01
   1.2412380e+03   1.4599910e+00
   1.2417200e+03   1.1987610e+00
   1.2422020e+03   3.2349002e-02
   1.2426840e+03   8.2766700e-01
   1.2431660e+03   1.3648380e+00
   1.2436480e+03   1.0636600e+00
   1.2441300e+03   3.9038100e-01
   1.2446120e+03   2.1122440e+00
   1.2450940e+03   3.1957700e+00
   1.2455770e+03   3.6992490e+00
   1.2460590e+03   3.3941040e+00
   1.2465410e+03   2.3752750e+00
   1.2470230e+03   2.3224490e+00
   1.2475050e+03   3.9060970e+00
   1.2479870e+03   4.7099610e+00
   1.2484690e+03   4.0577090e+00
   1.2489510e+03   3.1777040e+00
   1.2494330e+03   4.1971440e+00
   1.2499160e+03   5.5899660e+00
   1.2503980e+03   5.1730040e+00
   1.2508800e+03   2.9132080e+00
   1.2513620e+03   1.6889650e+00
   1.2518440e+03   1.6977540e+00
   1.2523260e+03   2.3640750e+00
   1.2528080e+03   3.7986150e+00
   1.2532900e+03   5.1242980e+00
   1.2537730e+03   5.4199220e+00
   1.2542550e+03   5.1762390e+00
   1.2547370e+03   4.6016240e+00
   1.2552190e+03   3.8180240e+00
   1.2557010e+03   3.7596440e+00
   1.2561830e+03   4.6563110e+00
   1.2566650e+03   4.5681760e+00
   1.2571470e+03   2.8439940e+00
   1.2576300e+03   1.3627930e+00
   1.2581120e+03   2.2221680e+00
   1.2585940e+03   3.6357730e+00
   1.2590760e+03   3.9919740e+00
   1.2595580e+03   2.9539180e+00
   1.2600400e+03   2.1451110e+00
   1.2605220e+03   1.6935120e+00
   1.2610040e+03   2.1382450e+00
   1.2614860e+03   3.8444820e+00
   1.2619690e+03   5.1458440e+00
   1.2624510e+03   4.1172790e+00
   1.2629330e+03   2.8391110e+00
   1.2634150e+03   2.8314510e+00
   1.2638970e+03   3.5816350e+00
   1.2643790e+03   3.4116820e+00
   1.2648610e+03   2.4813230e+00
   1.2653430e+03   2.3012080e+00
   1.2658250e+03   3.3082580e+00
   1.2663080e+03   4.1325070e+00
   1.2667900e+03   3.7912600e+00
   1.2672720e+03   3.2064820e+00
   1.2677540e+03   2.7518620e+00
   1.2682360e+03   2.4284970e+00
   1.2687180e+03   2.3556210e+00
   1.2692000e+03   2.4046630e+00
   1.2696820e+03   2.0567020e+00
   1.2701650e+03   1.1627200e+00
   1.2706470e+03   4.5123300e-01
   1.2711290e+03   1.9155900e-01
   1.2716110e+03   1.2274200e-01
   1.2720930e+03   2.1837460e+00
   1.2725750e+03   4.6763610e+00
   1.2730570e+03   4.6945500e+00
   1.2735390e+03   2.4375000e+00
   1.2740210e+03   1.0023500e+00
   1.2745040e+03   5.4538000e-01
   1.2749860e+03   2.0880100e-01
   1.2754680e+03   0.0000000e+00
   1.5000000e+03   0.0000000e+00
