   1.0000000e+02   0.0000000e+00
   1.2014670e+02   0.0000000e+00
   1.2062890e+02   1.0290590e+01
   1.2111100e+02   1.5660100e+00
   1.2159310e+02   5.4905090e+00
   1.2207520e+02   1.5628970e+00
   1.2255730e+02   1.7411440e+01
   1.2303940e+02   3.1200010e+01
   1.2352160e+02   3.4492370e+01
   1.2400370e+02   3.2292970e+01
   1.2448580e+02   3.1656680e+01
   1.2496790e+02   3.2119510e+01
   1.2545000e+02   3.6414370e+01
   1.2593210e+02   4.8418820e+01
   1.2641430e+02   6.7880920e+01
   1.2689640e+02   9.2061650e+01
   1.2737850e+02   1.2273880e+02
   1.2786060e+02   1.5743300e+02
   1.2834270e+02   1.8661940e+02
   1.2882480e+02   2.0663600e+02
   1.2930700e+02   2.2061380e+02
   1.2978910e+02   2.3840410e+02
   1.3027120e+02   2.6136180e+02
   1.3075330e+02   2.7952340e+02
   1.3123540e+02   2.7356810e+02
   1.3171750e+02   2.4425570e+02
   1.3219960e+02   2.3538780e+02
   1.3268180e+02   2.7624180e+02
   1.3316390e+02   3.6125990e+02
   1.3364600e+02   4.0667440e+02
   1.3412810e+02   4.0270640e+02
   1.3461020e+02   3.7574710e+02
   1.3509230e+02   3.6857990e+02
   1.3557450e+02   3.8342890e+02
   1.3605660e+02   4.0821260e+02
   1.3653870e+02   4.4216560e+02
   1.3702080e+02   4.9002390e+02
   1.3750290e+02   5.2198500e+02
   1.3798500e+02   5.3362870e+02
   1.3846720e+02   5.2898820e+02
   1.3894930e+02   5.2172700e+02
   1.3943140e+02   5.0696040e+02
   1.3991350e+02   4.9784180e+02
   1.4039560e+02   5.0703700e+02
   1.4087770e+02   5.4750120e+02
   1.4135990e+02   5.7577190e+02
   1.4184200e+02   5.8078450e+02
   1.4232410e+02   5.6163500e+02
   1.4280620e+02   5.5310070e+02
   1.4328830e+02   5.5241270e+02
   1.4377040e+02   5.5495600e+02
   1.4425260e+02   5.5644050e+02
   1.4473470e+02   5.5521260e+02
   1.4521680e+02   5.5509060e+02
   1.4569890e+02   5.5718370e+02
   1.4618100e+02   5.6273000e+02
   1.4666310e+02   5.6718800e+02
   1.4714530e+02   5.7021590e+02
   1.4762740e+02   5.7229410e+02
   1.4810950e+02   5.7410700e+02
   1.4859160e+02   5.7416800e+02
   1.4907370e+02   5.7523080e+02
   1.4955580e+02   5.7807720e+02
   1.5003790e+02   5.8216620e+02
   1.5052010e+02   5.8875960e+02
   1.5100220e+02   6.0719280e+02
   1.5148430e+02   6.3136830e+02
   1.5196640e+02   6.3464630e+02
   1.5244850e+02   5.8810180e+02
   1.5293060e+02   5.3607280e+02
   1.5341280e+02   5.0506290e+02
   1.5389490e+02   5.3077110e+02
   1.5437700e+02   5.4482410e+02
   1.5485910e+02   5.2316100e+02
   1.5534120e+02   4.6536220e+02
   1.5582330e+02   4.2190030e+02
   1.5630550e+02   4.1044190e+02
   1.5678760e+02   4.1643260e+02
   1.5726970e+02   4.2558470e+02
   1.5775180e+02   4.4811610e+02
   1.5823390e+02   4.6141610e+02
   1.5871600e+02   4.5106430e+02
   1.5919820e+02   4.0929500e+02
   1.5968030e+02   3.7458450e+02
   1.6016240e+02   3.6538810e+02
   1.6064450e+02   3.7219420e+02
   1.6112660e+02   3.7883780e+02
   1.6160870e+02   3.8323460e+02
   1.6209090e+02   3.8274220e+02
   1.6257300e+02   3.7410110e+02
   1.6305510e+02   3.5153600e+02
   1.6353720e+02   3.3136840e+02
   1.6401930e+02   3.2539890e+02
   1.6450140e+02   3.2965230e+02
   1.6498360e+02   3.3141580e+02
   1.6546570e+02   3.1951250e+02
   1.6594780e+02   3.0377470e+02
   1.6642990e+02   2.9428390e+02
   1.6691200e+02   3.0109510e+02
   1.6739410e+02   3.0799760e+02
   1.6787630e+02   2.9882600e+02
   1.6835840e+02   2.7537220e+02
   1.6884050e+02   2.5708790e+02
   1.6932260e+02   2.7007700e+02
   1.6980470e+02   2.9439180e+02
   1.7028680e+02   3.0019350e+02
   1.7076900e+02   2.5147920e+02
   1.7125110e+02   1.9162590e+02
   1.7173320e+02   1.6580620e+02
   1.7221530e+02   1.7638650e+02
   1.7269740e+02   1.9943820e+02
   1.7317950e+02   2.2438170e+02
   1.7366170e+02   2.4672620e+02
   1.7414380e+02   2.5521970e+02
   1.7462590e+02   2.3051050e+02
   1.7510800e+02   1.9219690e+02
   1.7559010e+02   1.7124900e+02
   1.7607220e+02   1.7255680e+02
   1.7655440e+02   1.8269290e+02
   1.7703650e+02   1.8776880e+02
   1.7751860e+02   1.8872410e+02
   1.7800070e+02   1.8736710e+02
   1.7848280e+02   1.9169030e+02
   1.7896490e+02   1.9825150e+02
   1.7944710e+02   1.9789210e+02
   1.7992920e+02   1.8607480e+02
   1.8041130e+02   1.7163490e+02
   1.8089340e+02   1.6996770e+02
   1.8137550e+02   1.8040190e+02
   1.8185760e+02   1.9195870e+02
   1.8233970e+02   1.9292920e+02
   1.8282190e+02   1.8684610e+02
   1.8330400e+02   1.8762630e+02
   1.8378610e+02   2.0197580e+02
   1.8426820e+02   2.2425050e+02
   1.8475030e+02   2.4341880e+02
   1.8523240e+02   2.5998620e+02
   1.8571460e+02   2.7161190e+02
   1.8619670e+02   2.7226280e+02
   1.8667880e+02   2.6339750e+02
   1.8716090e+02   2.5785000e+02
   1.8764300e+02   2.6131320e+02
   1.8812510e+02   2.7172720e+02
   1.8860730e+02   2.8128940e+02
   1.8908940e+02   2.8995320e+02
   1.8957150e+02   2.9775330e+02
   1.9005360e+02   3.0561720e+02
   1.9053570e+02   3.1357520e+02
   1.9101780e+02   3.1921120e+02
   1.9150000e+02   3.1934300e+02
   1.9198210e+02   3.1473240e+02
   1.9246420e+02   3.1657730e+02
   1.9294630e+02   3.2734910e+02
   1.9342840e+02   3.4103990e+02
   1.9391050e+02   3.4609020e+02
   1.9439270e+02   3.4199220e+02
   1.9487480e+02   3.3450440e+02
   1.9535690e+02   3.2407630e+02
   1.9583900e+02   3.1035600e+02
   1.9632110e+02   3.0484010e+02
   1.9680320e+02   3.0982890e+02
   1.9728540e+02   3.2222910e+02
   1.9776750e+02   3.3375350e+02
   1.9824960e+02   3.4365990e+02
   1.9873170e+02   3.5539150e+02
   1.9921380e+02   3.7465470e+02
   1.9969590e+02   4.0384550e+02
   2.0017800e+02   4.2162410e+02
   2.0066020e+02   4.2162830e+02
   2.0114230e+02   4.0840910e+02
   2.0162440e+02   4.0348190e+02
   2.0210650e+02   4.0793130e+02
   2.0258860e+02   4.1802800e+02
   2.0307070e+02   4.3248400e+02
   2.0355290e+02   4.5335750e+02
   2.0403500e+02   4.6848230e+02
   2.0451710e+02   4.7338210e+02
   2.0499920e+02   4.6887440e+02
   2.0548130e+02   4.6755540e+02
   2.0596340e+02   4.6876510e+02
   2.0644560e+02   4.7426680e+02
   2.0692770e+02   4.8780490e+02
   2.0740980e+02   5.1242580e+02
   2.0789190e+02   5.3509860e+02
   2.0837400e+02   5.5341660e+02
   2.0885610e+02   5.6801430e+02
   2.0933830e+02   5.6908250e+02
   2.0982040e+02   5.4749220e+02
   2.1030250e+02   5.2277340e+02
   2.1078460e+02   5.2962270e+02
   2.1126670e+02   5.8365480e+02
   2.1174880e+02   6.3063590e+02
   2.1223100e+02   6.4907320e+02
   2.1271310e+02   6.3258700e+02
   2.1319520e+02   6.1596790e+02
   2.1367730e+02   5.9648610e+02
   2.1415940e+02   5.7877650e+02
   2.1464150e+02   5.7566820e+02
   2.1512360e+02   5.9616850e+02
   2.1560580e+02   6.1317940e+02
   2.1608790e+02   6.1334220e+02
   2.1657000e+02   5.9122170e+02
   2.1705210e+02   5.6790010e+02
   2.1753420e+02   5.4008190e+02
   2.1801630e+02   5.1238880e+02
   2.1849850e+02   5.0204660e+02
   2.1898060e+02   5.2125870e+02
   2.1946270e+02   5.3636690e+02
   2.1994480e+02   5.2487540e+02
   2.2042690e+02   4.7122220e+02
   2.2090900e+02   4.3360730e+02
   2.2139120e+02   4.2350070e+02
   2.2187330e+02   4.3498660e+02
   2.2235540e+02   4.3606190e+02
   2.2283750e+02   4.2197630e+02
   2.2331960e+02   4.0246070e+02
   2.2380170e+02   3.8426760e+02
   2.2428390e+02   3.7089450e+02
   2.2476600e+02   3.5312570e+02
   2.2524810e+02   3.2868550e+02
   2.2573020e+02   2.9784360e+02
   2.2621230e+02   2.6665700e+02
   2.2669440e+02   2.3056920e+02
   2.2717660e+02   2.0037830e+02
   2.2765870e+02   1.8927830e+02
   2.2814080e+02   2.1140280e+02
   2.2862290e+02   2.2485510e+02
   2.2910500e+02   2.1888220e+02
   2.2958710e+02   1.9155210e+02
   2.3006930e+02   1.6915170e+02
   2.3055140e+02   1.5421530e+02
   2.3103350e+02   1.4382620e+02
   2.3151560e+02   1.3497920e+02
   2.3199770e+02   1.2944370e+02
   2.3247980e+02   1.2106340e+02
   2.3296190e+02   1.0586230e+02
   2.3344410e+02   8.1151250e+01
   2.3392620e+02   6.9329100e+01
   2.3440830e+02   7.8882450e+01
   2.3489040e+02   9.5495850e+01
   2.3537250e+02   9.9087400e+01
   2.3585460e+02   7.9675780e+01
   2.3633680e+02   6.4103880e+01
   2.3681890e+02   6.2744380e+01
   2.3730100e+02   8.1961790e+01
   2.3778310e+02   8.7829590e+01
   2.3826520e+02   7.4422240e+01
   2.3874730e+02   5.1052980e+01
   2.3922950e+02   3.3428470e+01
   2.3971160e+02   2.5756230e+01
   2.4019370e+02   1.6956670e+01
   2.4067580e+02   9.6972700e-01
   2.4115790e+02   3.2530150e+01
   2.4164000e+02   4.3471310e+01
   2.4212220e+02   1.9337040e+01
   2.4260430e+02   2.2474980e+01
   2.4308640e+02   4.4467410e+01
   2.4356850e+02   3.7291990e+01
   2.4405060e+02   2.4612430e+01
   2.4453270e+02   1.5482420e+01
   2.4501490e+02   1.1557620e+01
   2.4549700e+02   7.0469970e+00
   2.4597910e+02   5.8898900e-01
   2.4646120e+02   8.2155760e+00
   2.4694330e+02   5.9824220e+00
   2.4742540e+02   1.3960210e+01
   2.4790750e+02   3.2151610e+01
   2.4838970e+02   3.9285400e+01
   2.4887180e+02   3.1352780e+01
   2.4935390e+02   2.1198970e+01
   2.4983600e+02   6.3903810e+00
   2.5031810e+02   1.0177730e+01
   2.5080020e+02   1.7390990e+01
   2.5128240e+02   1.1745480e+01
   2.5176450e+02   2.2130130e+00
   2.5224660e+02   7.3620610e+00
   2.5272870e+02   1.9558840e+01
   2.5321080e+02   2.4978150e+01
   2.5369290e+02   2.0660030e+01
   2.5417510e+02   9.0999760e+00
   2.5465720e+02   6.0791000e-01
   2.5513930e+02   5.3381350e+00
   2.5562140e+02   7.4018550e+00
   2.5610350e+02   2.9743650e+00
   2.5658560e+02   1.3895750e+01
   2.5706770e+02   2.1125980e+01
   2.5754990e+02   1.1945560e+01
   2.5803200e+02   9.4561770e+00
   2.5851410e+02   1.7606200e+01
   2.5899620e+02   9.8283690e+00
   2.5947830e+02   6.6801760e+00
   2.5996040e+02   3.0941280e+01
   2.6044260e+02   7.1648680e+01
   2.6092470e+02   9.3163940e+01
   2.6140680e+02   8.4999150e+01
   2.6188890e+02   5.1838260e+01
   2.6237100e+02   2.8668090e+01
   2.6285310e+02   1.5457280e+01
   2.6333530e+02   1.1868900e+01
   2.6381740e+02   2.0925900e+01
   2.6429950e+02   4.8897950e+01
   2.6478160e+02   6.7704100e+01
   2.6526370e+02   6.9686160e+01
   2.6574580e+02   5.7416870e+01
   2.6622800e+02   5.1560300e+01
   2.6671010e+02   5.4382450e+01
   2.6719220e+02   5.9378780e+01
   2.6767430e+02   5.9404420e+01
   2.6815640e+02   5.2019170e+01
   2.6863850e+02   5.0821040e+01
   2.6912070e+02   6.2793820e+01
   2.6960280e+02   8.5008420e+01
   2.7008490e+02   8.8563720e+01
   2.7056700e+02   6.6848510e+01
   2.7104910e+02   4.0833010e+01
   2.7153130e+02   3.3842160e+01
   2.7201340e+02   5.0478390e+01
   2.7249550e+02   5.9716920e+01
   2.7297760e+02   5.1786250e+01
   2.7345970e+02   2.9548830e+01
   2.7394180e+02   1.5329710e+01
   2.7442400e+02   1.0489010e+01
   2.7490610e+02   8.9836430e+00
   2.7538820e+02   2.9511720e+00
   2.7587030e+02   9.3582760e+00
   2.7635240e+02   1.4501220e+01
   2.7683450e+02   4.1403810e+00
   2.7731670e+02   1.8026610e+01
   2.7779880e+02   2.3122800e+01
   2.7828090e+02   7.7304690e+00
   2.7876300e+02   1.3548220e+01
   2.7924510e+02   2.7040410e+01
   2.7972720e+02   3.3074100e+01
   2.8020940e+02   3.3046880e+01
   2.8069150e+02   2.4447880e+01
   2.8117360e+02   8.4332280e+00
   2.8165570e+02   1.4196780e+00
   2.8213780e+02   2.8295900e+00
   2.8261990e+02   1.6341550e+00
   2.8310210e+02   8.3554690e+00
   2.8358420e+02   2.2941280e+01
   2.8406630e+02   2.9047850e+01
   2.8454840e+02   1.8091670e+01
   2.8503050e+02   5.8739010e+00
   2.8551260e+02   2.6236570e+01
   2.8599480e+02   4.4056270e+01
   2.8647690e+02   5.3881350e+01
   2.8695900e+02   4.4164550e+01
   2.8744110e+02   1.6987670e+01
   2.8792320e+02   4.5563960e+00
   2.8840530e+02   9.5399170e+00
   2.8888740e+02   3.0866700e+00
   2.8936950e+02   9.6191400e-01
   2.8985170e+02   3.1824950e+00
   2.9033380e+02   9.1470950e+00
   2.9081590e+02   2.1796020e+01
   2.9129800e+02   3.9070190e+01
   2.9178010e+02   5.1060670e+01
   2.9226220e+02   5.1309200e+01
   2.9274440e+02   4.4388550e+01
   2.9322650e+02   4.0590090e+01
   2.9370860e+02   4.0045170e+01
   2.9419070e+02   4.1529300e+01
   2.9467280e+02   4.3909180e+01
   2.9515490e+02   4.7358520e+01
   2.9563710e+02   5.2439450e+01
   2.9611920e+02   6.5370000e+01
   2.9660130e+02   7.8165650e+01
   2.9708340e+02   6.9999880e+01
   2.9756550e+02   3.9883180e+01
   2.9804760e+02   1.4843750e+01
   2.9852980e+02   2.7070920e+01
   2.9901190e+02   6.3085570e+01
   2.9949400e+02   9.2254030e+01
   2.9997610e+02   1.0140730e+02
   3.0045820e+02   9.8979610e+01
   3.0094030e+02   9.3466920e+01
   3.0142250e+02   8.4900020e+01
   3.0190460e+02   7.8863040e+01
   3.0238670e+02   7.9910890e+01
   3.0286880e+02   8.6758540e+01
   3.0335090e+02   9.7108760e+01
   3.0383300e+02   1.1612500e+02
   3.0431520e+02   1.3454110e+02
   3.0479730e+02   1.4496970e+02
   3.0527940e+02   1.4739360e+02
   3.0576150e+02   1.4030000e+02
   3.0624360e+02   1.0897290e+02
   3.0672570e+02   7.0423460e+01
   3.0720790e+02   4.8933230e+01
   3.0769000e+02   7.2009520e+01
   3.0817210e+02   1.0192980e+02
   3.0865420e+02   1.1065520e+02
   3.0913630e+02   9.8907230e+01
   3.0961840e+02   8.4319950e+01
   3.1010060e+02   7.2426150e+01
   3.1058270e+02   6.4595460e+01
   3.1106480e+02   6.2422120e+01
   3.1154690e+02   7.1732300e+01
   3.1202900e+02   8.2382570e+01
   3.1251110e+02   8.8296390e+01
   3.1299330e+02   8.9667720e+01
   3.1347540e+02   9.2295410e+01
   3.1395750e+02   1.0449390e+02
   3.1443960e+02   1.1687510e+02
   3.1492170e+02   1.2070260e+02
   3.1540380e+02   1.0216140e+02
   3.1588600e+02   8.4978150e+01
   3.1636810e+02   7.9918330e+01
   3.1685020e+02   8.6642820e+01
   3.1733230e+02   9.1595340e+01
   3.1781440e+02   8.8176150e+01
   3.1829650e+02   8.2140140e+01
   3.1877870e+02   7.7989380e+01
   3.1926080e+02   7.6766720e+01
   3.1974290e+02   7.7455320e+01
   3.2022500e+02   8.2768070e+01
   3.2070710e+02   9.1662960e+01
   3.2118920e+02   9.4093260e+01
   3.2167130e+02   8.1474490e+01
   3.2215340e+02   6.5889160e+01
   3.2263560e+02   5.5056030e+01
   3.2311770e+02   5.0799930e+01
   3.2359980e+02   5.0273070e+01
   3.2408190e+02   5.5700560e+01
   3.2456400e+02   6.6047120e+01
   3.2504610e+02   7.2768070e+01
   3.2552830e+02   7.3607060e+01
   3.2601040e+02   7.2000490e+01
   3.2649250e+02   6.9732060e+01
   3.2697460e+02   6.7697020e+01
   3.2745670e+02   6.3702150e+01
   3.2793880e+02   5.5032590e+01
   3.2842100e+02   4.3527100e+01
   3.2890310e+02   3.9174800e+01
   3.2938520e+02   5.1542720e+01
   3.2986730e+02   6.0913820e+01
   3.3034940e+02   5.5961300e+01
   3.3083150e+02   2.5501220e+01
   3.3131370e+02   2.5361330e+00
   3.3179580e+02   1.0554930e+01
   3.3227790e+02   1.5233760e+01
   3.3276000e+02   1.5381710e+01
   3.3324210e+02   8.8319090e+00
   3.3372420e+02   2.5368650e+00
   3.3420640e+02   4.9292000e-01
   3.3468850e+02   4.8425300e-01
   3.3517060e+02   1.1108000e-02
   3.3565270e+02   3.2613530e+00
   3.3613480e+02   6.3471680e+00
   3.3661690e+02   3.5498000e-01
   3.3709910e+02   2.2349610e+01
   3.3758120e+02   3.7689820e+01
   3.3806330e+02   3.0626220e+01
   3.3854540e+02   1.0913090e+00
   3.3902750e+02   1.7654910e+01
   3.3950960e+02   1.4968510e+01
   3.3999180e+02   2.1376950e+00
   3.4047390e+02   5.8514400e+00
   3.4095600e+02   9.2331540e+00
   3.4143810e+02   1.0606080e+01
   3.4192020e+02   9.5622560e+00
   3.4240230e+02   6.4665530e+00
   3.4288450e+02   3.6417240e+00
   3.4336660e+02   3.6352500e-01
   3.4384870e+02   5.8801300e-01
   3.4433080e+02   9.0217290e+00
   3.4481290e+02   2.8843380e+01
   3.4529500e+02   4.4859860e+01
   3.4577720e+02   4.5217040e+01
   3.4625930e+02   3.5221070e+01
   3.4674140e+02   3.3198610e+01
   3.4722350e+02   4.0700680e+01
   3.4770560e+02   4.9402220e+01
   3.4818770e+02   4.8095340e+01
   3.4866990e+02   4.0172850e+01
   3.4915200e+02   3.5599240e+01
   3.4963410e+02   4.0317500e+01
   3.5011620e+02   5.0092770e+01
   3.5059830e+02   5.8404910e+01
   3.5108040e+02   6.5057980e+01
   3.5156260e+02   7.4494380e+01
   3.5204470e+02   9.9859860e+01
   3.5252680e+02   1.2947140e+02
   3.5300890e+02   1.4321860e+02
   3.5349100e+02   1.1791890e+02
   3.5397310e+02   8.4099850e+01
   3.5445520e+02   6.5327270e+01
   3.5493730e+02   6.1219360e+01
   3.5541950e+02   6.6385250e+01
   3.5590160e+02   8.5999630e+01
   3.5638370e+02   1.1014760e+02
   3.5686580e+02   1.2694630e+02
   3.5734790e+02   1.3162370e+02
   3.5783000e+02   1.2852880e+02
   3.5831220e+02   1.1186410e+02
   3.5879430e+02   8.5454710e+01
   3.5927640e+02   7.1570560e+01
   3.5975850e+02   8.9749760e+01
   3.6024060e+02   1.1795320e+02
   3.6072270e+02   1.4065750e+02
   3.6120490e+02   1.5857130e+02
   3.6168700e+02   1.6567970e+02
   3.6216910e+02   1.5020960e+02
   3.6265120e+02   1.2027360e+02
   3.6313330e+02   1.0517350e+02
   3.6361540e+02   1.2485340e+02
   3.6409760e+02   1.5028440e+02
   3.6457970e+02   1.6738260e+02
   3.6506180e+02   1.7110780e+02
   3.6554390e+02   1.7208060e+02
   3.6602600e+02   1.6874650e+02
   3.6650810e+02   1.6312670e+02
   3.6699030e+02   1.6021240e+02
   3.6747240e+02   1.6400000e+02
   3.6795450e+02   1.6642720e+02
   3.6843660e+02   1.6482630e+02
   3.6891870e+02   1.5851720e+02
   3.6940080e+02   1.4932520e+02
   3.6988300e+02   1.3334810e+02
   3.7036510e+02   1.1678250e+02
   3.7084720e+02   1.1071960e+02
   3.7132930e+02   1.2010080e+02
   3.7181140e+02   1.3072080e+02
   3.7229350e+02   1.4066830e+02
   3.7277570e+02   1.5137450e+02
   3.7325780e+02   1.4594020e+02
   3.7373990e+02   1.1769950e+02
   3.7422200e+02   8.3813230e+01
   3.7470410e+02   6.6973880e+01
   3.7518620e+02   6.9512700e+01
   3.7566840e+02   7.5218140e+01
   3.7615050e+02   8.1200810e+01
   3.7663260e+02   8.6822630e+01
   3.7711470e+02   8.7879520e+01
   3.7759680e+02   8.3992800e+01
   3.7807890e+02   7.7157470e+01
   3.7856110e+02   6.8405400e+01
   3.7904320e+02   5.7979000e+01
   3.7952530e+02   4.7209840e+01
   3.8000740e+02   3.4462520e+01
   3.8048950e+02   2.3207760e+01
   3.8097160e+02   2.4093020e+01
   3.8145380e+02   3.6836790e+01
   3.8193590e+02   4.8431640e+01
   3.8241800e+02   4.6182500e+01
   3.8290010e+02   3.5148320e+01
   3.8338220e+02   2.8164550e+01
   3.8386430e+02   3.0012700e+01
   3.8434650e+02   3.2992070e+01
   3.8482860e+02   2.5453000e+01
   3.8531070e+02   1.0151000e+01
   3.8579280e+02   2.4582520e+00
   3.8627490e+02   5.1923830e+00
   3.8675700e+02   2.1685790e+00
   3.8723910e+02   3.4897460e+00
   3.8772130e+02   1.2825070e+01
   3.8820340e+02   1.9388180e+01
   3.8868550e+02   1.6359990e+01
   3.8916760e+02   6.4830320e+00
   3.8964970e+02   3.4815670e+00
   3.9013180e+02   1.2901120e+01
   3.9061400e+02   1.8736690e+01
   3.9109610e+02   1.7565060e+01
   3.9157820e+02   7.7468260e+00
   3.9206030e+02   1.2315670e+00
   3.9254240e+02   6.8568120e+00
   3.9302450e+02   9.2103270e+00
   3.9350670e+02   8.2158200e+00
   3.9398880e+02   2.5738530e+00
   3.9447090e+02   9.7177730e+00
   3.9495300e+02   6.8446040e+00
   3.9543510e+02   6.4809570e+00
   3.9591720e+02   1.5215210e+01
   3.9639940e+02   9.9943850e+00
   3.9688150e+02   2.7667240e+00
   3.9736360e+02   4.6035160e+00
   3.9784570e+02   2.8964230e+01
   3.9832780e+02   4.5473270e+01
   3.9880990e+02   4.7046020e+01
   3.9929210e+02   3.6111080e+01
   3.9977420e+02   3.2272220e+01
   4.0025630e+02   4.0593870e+01
   4.0073840e+02   4.9045170e+01
   4.0122050e+02   4.9037600e+01
   4.0170260e+02   3.5419310e+01
   4.0218480e+02   3.0495730e+01
   4.0266690e+02   3.6500730e+01
   4.0314900e+02   5.0743650e+01
   4.0363110e+02   6.8209590e+01
   4.0411320e+02   9.0351320e+01
   4.0459530e+02   1.1015500e+02
   4.0507750e+02   1.2219140e+02
   4.0555960e+02   1.2648930e+02
   4.0604170e+02   1.3749720e+02
   4.0652380e+02   1.5716030e+02
   4.0700590e+02   1.7942180e+02
   4.0748800e+02   1.9693270e+02
   4.0797020e+02   2.0977830e+02
   4.0845230e+02   2.1901200e+02
   4.0893440e+02   2.2174540e+02
   4.0941650e+02   2.2153310e+02
   4.0989860e+02   2.2952430e+02
   4.1038070e+02   2.4612960e+02
   4.1086290e+02   2.6147570e+02
   4.1134500e+02   2.6265640e+02
   4.1182710e+02   2.5578410e+02
   4.1230920e+02   2.5400620e+02
   4.1279130e+02   2.6203640e+02
   4.1327340e+02   2.7681360e+02
   4.1375560e+02   2.9840090e+02
   4.1423770e+02   3.2552450e+02
   4.1471980e+02   3.5136440e+02
   4.1520190e+02   3.7040840e+02
   4.1568400e+02   3.8647060e+02
   4.1616610e+02   4.0312210e+02
   4.1664830e+02   4.2132080e+02
   4.1713040e+02   4.3978280e+02
   4.1761250e+02   4.5600130e+02
   4.1809460e+02   4.7169320e+02
   4.1857670e+02   4.9058720e+02
   4.1905880e+02   5.2123470e+02
   4.1954100e+02   5.4961430e+02
   4.2002300e+02   5.6847840e+02
   4.2050520e+02   5.7533830e+02
   4.2098730e+02   5.7804800e+02
   4.2146940e+02   5.7459230e+02
   4.2195150e+02   5.6848450e+02
   4.2243360e+02   5.6485120e+02
   4.2291570e+02   5.7068160e+02
   4.2339790e+02   5.7130900e+02
   4.2388000e+02   5.6020070e+02
   4.2436210e+02   5.3506040e+02
   4.2484420e+02   5.2433800e+02
   4.2532630e+02   5.3713540e+02
   4.2580840e+02   5.5459230e+02
   4.2629060e+02   5.5777870e+02
   4.2677270e+02   5.3818010e+02
   4.2725480e+02   5.3022960e+02
   4.2773690e+02   5.4265580e+02
   4.2821900e+02   5.7005210e+02
   4.2870110e+02   5.8843750e+02
   4.2918330e+02   5.9602400e+02
   4.2966540e+02   6.0173030e+02
   4.3014750e+02   6.1251490e+02
   4.3062960e+02   6.2800710e+02
   4.3111170e+02   6.3773460e+02
   4.3159380e+02   6.3824790e+02
   4.3207600e+02   6.3783060e+02
   4.3255810e+02   6.5253860e+02
   4.3304020e+02   6.8068360e+02
   4.3352230e+02   7.0772840e+02
   4.3400440e+02   7.2489610e+02
   4.3448650e+02   7.3644360e+02
   4.3496870e+02   7.5257250e+02
   4.3545080e+02   7.7449990e+02
   4.3593290e+02   7.9146970e+02
   4.3641500e+02   7.9031370e+02
   4.3689710e+02   7.7795650e+02
   4.3737920e+02   7.6674740e+02
   4.3786140e+02   7.6314280e+02
   4.3834350e+02   7.6103580e+02
   4.3882560e+02   7.5260580e+02
   4.3930770e+02   7.3957420e+02
   4.3978980e+02   7.3536180e+02
   4.4027190e+02   7.5675320e+02
   4.4075410e+02   7.8412870e+02
   4.4123620e+02   8.0142470e+02
   4.4171830e+02   7.9969750e+02
   4.4220040e+02   7.9579390e+02
   4.4268250e+02   7.9122860e+02
   4.4316460e+02   7.8748460e+02
   4.4364680e+02   7.8857200e+02
   4.4412890e+02   8.0366430e+02
   4.4461100e+02   8.1629260e+02
   4.4509310e+02   8.1803020e+02
   4.4557520e+02   8.0142900e+02
   4.4605730e+02   7.9668990e+02
   4.4653950e+02   8.1144260e+02
   4.4702160e+02   8.3334470e+02
   4.4750370e+02   8.4549110e+02
   4.4798580e+02   8.3847680e+02
   4.4846790e+02   8.4193820e+02
   4.4895000e+02   8.6804710e+02
   4.4943220e+02   9.1400660e+02
   4.4991430e+02   9.4076280e+02
   4.5039640e+02   9.4313720e+02
   4.5087850e+02   9.4153640e+02
   4.5136060e+02   9.5791480e+02
   4.5184270e+02   9.9500200e+02
   4.5232490e+02   1.0135900e+03
   4.5280700e+02   9.9936240e+02
   4.5328910e+02   9.7198070e+02
   4.5377120e+02   9.7398120e+02
   4.5425330e+02   1.0032280e+03
   4.5473540e+02   1.0341120e+03
   4.5521750e+02   1.0533440e+03
   4.5569960e+02   1.0634380e+03
   4.5618180e+02   1.0703750e+03
   4.5666390e+02   1.0760740e+03
   4.5714600e+02   1.0766460e+03
   4.5762810e+02   1.0602300e+03
   4.5811020e+02   1.0356860e+03
   4.5859230e+02   1.0189240e+03
   4.5907450e+02   1.0195040e+03
   4.5955660e+02   1.0294140e+03
   4.6003870e+02   1.0504600e+03
   4.6052080e+02   1.0807360e+03
   4.6100290e+02   1.0958410e+03
   4.6148500e+02   1.0714940e+03
   4.6196720e+02   1.0354380e+03
   4.6244930e+02   1.0094430e+03
   4.6293140e+02   1.0109850e+03
   4.6341350e+02   1.0061950e+03
   4.6389560e+02   9.8510740e+02
   4.6437770e+02   9.5200290e+02
   4.6485990e+02   9.2038450e+02
   4.6534200e+02   8.9557250e+02
   4.6582410e+02   8.6921020e+02
   4.6630620e+02   8.3812170e+02
   4.6678830e+02   8.0097280e+02
   4.6727040e+02   7.6479520e+02
   4.6775260e+02   7.3008080e+02
   4.6823470e+02   6.9521840e+02
   4.6871680e+02   6.5581950e+02
   4.6919890e+02   6.0870800e+02
   4.6968100e+02   5.7304240e+02
   4.7016310e+02   5.5806230e+02
   4.7064530e+02   5.5799520e+02
   4.7112740e+02   5.4041420e+02
   4.7160950e+02   5.0280810e+02
   4.7209160e+02   4.6581800e+02
   4.7257370e+02   4.5145420e+02
   4.7305580e+02   4.5444980e+02
   4.7353800e+02   4.4469750e+02
   4.7402010e+02   4.1532670e+02
   4.7450220e+02   3.7802050e+02
   4.7498430e+02   3.4455880e+02
   4.7546640e+02   3.1586710e+02
   4.7594850e+02   2.9556810e+02
   4.7643070e+02   2.8723340e+02
   4.7691280e+02   2.8817860e+02
   4.7739490e+02   2.9710010e+02
   4.7787700e+02   3.1496840e+02
   4.7835910e+02   3.3040050e+02
   4.7884120e+02   3.4248660e+02
   4.7932340e+02   3.4604850e+02
   4.7980550e+02   3.3503280e+02
   4.8028760e+02   2.8420350e+02
   4.8076970e+02   2.4260030e+02
   4.8125180e+02   2.3106620e+02
   4.8173390e+02   2.4487980e+02
   4.8221610e+02   2.5992740e+02
   4.8269820e+02   2.7601820e+02
   4.8318030e+02   2.9018460e+02
   4.8366240e+02   3.0083910e+02
   4.8414450e+02   3.0797750e+02
   4.8462660e+02   3.0466960e+02
   4.8510880e+02   2.8713160e+02
   4.8559090e+02   2.6565870e+02
   4.8607300e+02   2.5686500e+02
   4.8655510e+02   2.6695350e+02
   4.8703720e+02   2.7517400e+02
   4.8751930e+02   2.7527140e+02
   4.8800140e+02   2.6780680e+02
   4.8848360e+02   2.6177210e+02
   4.8896570e+02   2.5752230e+02
   4.8944780e+02   2.5326930e+02
   4.8992990e+02   2.4616100e+02
   4.9041200e+02   2.3685130e+02
   4.9089410e+02   2.3184030e+02
   4.9137630e+02   2.3375500e+02
   4.9185840e+02   2.3774320e+02
   4.9234050e+02   2.3698580e+02
   4.9282260e+02   2.3175780e+02
   4.9330470e+02   2.2313930e+02
   4.9378680e+02   2.1036120e+02
   4.9426900e+02   1.9527110e+02
   4.9475110e+02   1.7855940e+02
   4.9523320e+02   1.5965390e+02
   4.9571530e+02   1.4580570e+02
   4.9619740e+02   1.4613640e+02
   4.9667950e+02   1.5267030e+02
   4.9716170e+02   1.5572790e+02
   4.9764380e+02   1.5104790e+02
   4.9812590e+02   1.4347270e+02
   4.9860800e+02   1.3245100e+02
   4.9909010e+02   1.1905350e+02
   4.9957220e+02   1.0885560e+02
   5.0005440e+02   1.0527540e+02
   5.0053650e+02   1.0309480e+02
   5.0101860e+02   9.9736080e+01
   5.0150070e+02   9.4199950e+01
   5.0198280e+02   8.9501710e+01
   5.0246490e+02   8.6054080e+01
   5.0294710e+02   8.3177860e+01
   5.0342920e+02   7.9326170e+01
   5.0391130e+02   7.3072510e+01
   5.0439340e+02   7.0576290e+01
   5.0487550e+02   7.7151370e+01
   5.0535760e+02   8.9539790e+01
   5.0583980e+02   8.1820190e+01
   5.0632190e+02   5.0000000e+01
   5.0680400e+02   2.0691770e+01
   5.0728610e+02   2.5677000e+01
   5.0776820e+02   5.5414920e+01
   5.0825030e+02   5.6488530e+01
   5.0873250e+02   1.2781740e+01
   5.0921460e+02   3.8636230e+01
   5.0969670e+02   4.6293090e+01
   5.1017880e+02   2.0151250e+01
   5.1066090e+02   8.2706300e+00
   5.1114300e+02   2.7181880e+01
   5.1162520e+02   3.8331420e+01
   5.1210720e+02   4.3116090e+01
   5.1258940e+02   4.1531130e+01
   5.1307150e+02   3.3755250e+01
   5.1355360e+02   1.1710450e+01
   5.1403570e+02   1.2462160e+01
   5.1451780e+02   2.7908450e+01
   5.1499990e+02   2.9495360e+01
   5.1548210e+02   2.5092900e+01
   5.1596420e+02   1.0585570e+01
   5.1644630e+02   9.4104000e+00
   5.1692840e+02   2.0543460e+01
   5.1741050e+02   1.7180180e+01
   5.1789260e+02   1.0916630e+01
   5.1837480e+02   5.0107420e+00
   5.1885690e+02   5.4480000e-01
   5.1933900e+02   5.6875000e+00
   5.1982110e+02   1.0409180e+01
   5.2030320e+02   1.4784550e+01
   5.2078530e+02   2.0742680e+01
   5.2126750e+02   2.9432130e+01
   5.2174960e+02   2.8864380e+01
   5.2223170e+02   1.3077030e+01
   5.2271380e+02   9.8886720e+00
   5.2319590e+02   2.0454830e+01
   5.2367800e+02   1.9009520e+01
   5.2416020e+02   1.1380620e+01
   5.2464230e+02   6.7381590e+00
   5.2512440e+02   2.6580080e+01
   5.2560650e+02   2.8634770e+01
   5.2608860e+02   9.4531250e+00
   5.2657070e+02   1.1411620e+01
   5.2705290e+02   1.7702640e+01
   5.2753500e+02   1.5265140e+01
   5.2801710e+02   1.2915770e+01
   5.2849920e+02   1.2368900e+01
   5.2898130e+02   1.4034060e+01
   5.2946340e+02   2.0458620e+01
   5.2994560e+02   3.0125730e+01
   5.3042770e+02   3.5916750e+01
   5.3090980e+02   3.1341310e+01
   5.3139190e+02   2.5944090e+01
   5.3187400e+02   2.5416260e+01
   5.3235610e+02   3.5936770e+01
   5.3283830e+02   3.6847410e+01
   5.3332040e+02   2.0414430e+01
   5.3380250e+02   4.5715300e-01
   5.3428460e+02   8.1982420e+00
   5.3476670e+02   3.1213380e+00
   5.3524880e+02   1.0526610e+01
   5.3573100e+02   7.2235110e+00
   5.3621310e+02   3.4620360e+00
   5.3669520e+02   5.7866210e+00
   5.3717730e+02   1.2077640e+00
   5.3765940e+02   8.4545900e+00
   5.3814150e+02   8.9791260e+00
   5.3862370e+02   4.4572750e+00
   5.3910580e+02   2.0926510e+00
   5.3958790e+02   3.3461910e+00
   5.4007000e+02   2.8864750e+00
   5.4055210e+02   1.4761840e+01
   5.4103420e+02   3.8049440e+01
   5.4151640e+02   4.2711060e+01
   5.4199850e+02   5.4840090e+00
   5.4248060e+02   5.6092040e+01
   5.4296270e+02   6.8528440e+01
   5.4344480e+02   4.8438350e+01
   5.4392690e+02   3.1342650e+01
   5.4440910e+02   3.3349490e+01
   5.4489120e+02   4.1188720e+01
   5.4537330e+02   4.8160640e+01
   5.4585540e+02   5.6832030e+01
   5.4633750e+02   5.6971680e+01
   5.4681960e+02   3.6830320e+01
   5.4730180e+02   1.2472290e+01
   5.4778390e+02   5.8417970e+00
   5.4826600e+02   2.9752930e+01
   5.4874810e+02   4.5214720e+01
   5.4923020e+02   4.0658940e+01
   5.4971230e+02   2.0558840e+01
   5.5019450e+02   1.2767700e+01
   5.5067660e+02   1.9358150e+01
   5.5115870e+02   2.8747070e+01
   5.5164080e+02   3.2738160e+01
   5.5212290e+02   3.2410770e+01
   5.5260500e+02   3.4797360e+01
   5.5308720e+02   4.0610720e+01
   5.5356930e+02   4.8292110e+01
   5.5405140e+02   5.8313350e+01
   5.5453350e+02   6.8930540e+01
   5.5501560e+02   7.5559690e+01
   5.5549770e+02   7.2892580e+01
   5.5597990e+02   6.8684450e+01
   5.5646200e+02   6.9561280e+01
   5.5694410e+02   7.4598270e+01
   5.5742620e+02   7.9284060e+01
   5.5790830e+02   8.3930180e+01
   5.5839040e+02   8.5822020e+01
   5.5887260e+02   8.1321290e+01
   5.5935470e+02   6.3663450e+01
   5.5983680e+02   5.6615840e+01
   5.6031890e+02   7.3403200e+01
   5.6080100e+02   9.7326540e+01
   5.6128310e+02   1.1013590e+02
   5.6176530e+02   1.0606350e+02
   5.6224740e+02   1.0082920e+02
   5.6272950e+02   9.4035280e+01
   5.6321160e+02   8.8235840e+01
   5.6369370e+02   9.8689210e+01
   5.6417580e+02   1.3007060e+02
   5.6465800e+02   1.5601640e+02
   5.6514010e+02   1.5833630e+02
   5.6562220e+02   1.4079600e+02
   5.6610430e+02   1.2393300e+02
   5.6658640e+02   1.0768840e+02
   5.6706850e+02   9.6098750e+01
   5.6755070e+02   1.0527370e+02
   5.6803270e+02   1.2820920e+02
   5.6851480e+02   1.4519750e+02
   5.6899690e+02   1.4359080e+02
   5.6947910e+02   1.3833630e+02
   5.6996120e+02   1.4237540e+02
   5.7044330e+02   1.5262170e+02
   5.7092540e+02   1.5940390e+02
   5.7140750e+02   1.5434830e+02
   5.7188960e+02   1.4726250e+02
   5.7237180e+02   1.4343730e+02
   5.7285390e+02   1.4466280e+02
   5.7333600e+02   1.4801010e+02
   5.7381810e+02   1.5439990e+02
   5.7430020e+02   1.6304000e+02
   5.7478230e+02   1.7321790e+02
   5.7526450e+02   1.8872050e+02
   5.7574660e+02   1.9575310e+02
   5.7622870e+02   1.8971060e+02
   5.7671080e+02   1.7636950e+02
   5.7719290e+02   1.6797880e+02
   5.7767500e+02   1.6422860e+02
   5.7815720e+02   1.6929610e+02
   5.7863930e+02   1.8709610e+02
   5.7912140e+02   2.1512400e+02
   5.7960350e+02   2.5021790e+02
   5.8008560e+02   2.9367320e+02
   5.8056770e+02   3.2642570e+02
   5.8104990e+02   3.1378310e+02
   5.8153200e+02   2.8419960e+02
   5.8201410e+02   2.8458920e+02
   5.8249620e+02   3.3936110e+02
   5.8297830e+02   3.8928880e+02
   5.8346040e+02   3.9316470e+02
   5.8394260e+02   3.7175620e+02
   5.8442470e+02   3.5869630e+02
   5.8490680e+02   3.6652860e+02
   5.8538890e+02   3.7968350e+02
   5.8587100e+02   3.9411050e+02
   5.8635310e+02   4.0971240e+02
   5.8683530e+02   4.2753650e+02
   5.8731740e+02   4.5122860e+02
   5.8779950e+02   4.7231970e+02
   5.8828160e+02   4.8468250e+02
   5.8876370e+02   4.8498000e+02
   5.8924580e+02   4.9084110e+02
   5.8972800e+02   5.0283090e+02
   5.9021010e+02   5.1975460e+02
   5.9069220e+02   5.4344950e+02
   5.9117430e+02   5.7266490e+02
   5.9165640e+02   5.9489150e+02
   5.9213850e+02   6.0586080e+02
   5.9262070e+02   6.0962850e+02
   5.9310280e+02   6.0424180e+02
   5.9358490e+02   5.9268050e+02
   5.9406700e+02   5.8990800e+02
   5.9454910e+02   6.1631960e+02
   5.9503130e+02   6.4980400e+02
   5.9551340e+02   6.7115550e+02
   5.9599550e+02   6.7723510e+02
   5.9647760e+02   6.7739430e+02
   5.9695970e+02   6.7067720e+02
   5.9744180e+02   6.6217530e+02
   5.9792400e+02   6.5631670e+02
   5.9840610e+02   6.6021850e+02
   5.9888820e+02   6.5517980e+02
   5.9937030e+02   6.3603600e+02
   5.9985240e+02   6.1321680e+02
   6.0033450e+02   6.0146850e+02
   6.0081670e+02   6.0390390e+02
   6.0129880e+02   6.0884410e+02
   6.0178090e+02   6.1558640e+02
   6.0226300e+02   6.2212410e+02
   6.0274510e+02   6.0896520e+02
   6.0322720e+02   5.7435160e+02
   6.0370940e+02   5.4309480e+02
   6.0419150e+02   5.4347340e+02
   6.0467360e+02   5.6200510e+02
   6.0515570e+02   5.6428170e+02
   6.0563780e+02   5.4144100e+02
   6.0611990e+02   5.1639370e+02
   6.0660210e+02   5.0842610e+02
   6.0708420e+02   5.1203100e+02
   6.0756630e+02   5.1880600e+02
   6.0804840e+02   5.2706300e+02
   6.0853050e+02   5.3659500e+02
   6.0901260e+02   5.5205630e+02
   6.0949480e+02   5.7082310e+02
   6.0997690e+02   5.7688780e+02
   6.1045900e+02   5.4858340e+02
   6.1094110e+02   5.2710730e+02
   6.1142320e+02   5.3023510e+02
   6.1190530e+02   5.6524720e+02
   6.1238750e+02   5.8376040e+02
   6.1286960e+02   5.8124400e+02
   6.1335170e+02   5.7096580e+02
   6.1383380e+02   5.6722770e+02
   6.1431590e+02   5.6974040e+02
   6.1479800e+02   5.6509020e+02
   6.1528020e+02   5.4848190e+02
   6.1576230e+02   5.2911890e+02
   6.1624440e+02   5.2627980e+02
   6.1672650e+02   5.3391590e+02
   6.1720860e+02   5.3138730e+02
   6.1769070e+02   4.9275120e+02
   6.1817290e+02   4.5143760e+02
   6.1865500e+02   4.4208630e+02
   6.1913710e+02   4.6152990e+02
   6.1961920e+02   4.7117690e+02
   6.2010130e+02   4.4575720e+02
   6.2058340e+02   4.1221140e+02
   6.2106560e+02   3.8786380e+02
   6.2154770e+02   3.7906640e+02
   6.2202980e+02   3.6681070e+02
   6.2251190e+02   3.4994460e+02
   6.2299400e+02   3.3071500e+02
   6.2347610e+02   3.1026440e+02
   6.2395830e+02   2.8602510e+02
   6.2444040e+02   2.7054020e+02
   6.2492250e+02   2.6968900e+02
   6.2540460e+02   2.7539560e+02
   6.2588670e+02   2.6573410e+02
   6.2636880e+02   2.4129600e+02
   6.2685100e+02   2.1637490e+02
   6.2733310e+02   1.9546500e+02
   6.2781520e+02   1.7832470e+02
   6.2829730e+02   1.6925350e+02
   6.2877940e+02   1.6839050e+02
   6.2926150e+02   1.7440600e+02
   6.2974370e+02   1.9941630e+02
   6.3022580e+02   2.2351510e+02
   6.3070790e+02   2.2618320e+02
   6.3119000e+02   1.9310060e+02
   6.3167210e+02   1.6370690e+02
   6.3215420e+02   1.5199550e+02
   6.3263640e+02   1.4909640e+02
   6.3311850e+02   1.4267690e+02
   6.3360060e+02   1.2598120e+02
   6.3408260e+02   1.1656480e+02
   6.3456480e+02   1.2092710e+02
   6.3504690e+02   1.3364820e+02
   6.3552900e+02   1.3285050e+02
   6.3601110e+02   1.1569270e+02
   6.3649320e+02   1.0127090e+02
   6.3697530e+02   1.0223800e+02
   6.3745750e+02   1.1445350e+02
   6.3793960e+02   1.1942540e+02
   6.3842170e+02   1.1704100e+02
   6.3890380e+02   1.1467100e+02
   6.3938590e+02   1.2011230e+02
   6.3986800e+02   1.2877320e+02
   6.4035020e+02   1.3432540e+02
   6.4083230e+02   1.3538210e+02
   6.4131440e+02   1.3417350e+02
   6.4179650e+02   1.2590720e+02
   6.4227860e+02   1.1562430e+02
   6.4276070e+02   1.1469360e+02
   6.4324290e+02   1.4268820e+02
   6.4372500e+02   1.5966220e+02
   6.4420710e+02   1.5294560e+02
   6.4468920e+02   1.2923050e+02
   6.4517130e+02   1.1812840e+02
   6.4565340e+02   1.2404270e+02
   6.4613560e+02   1.3172020e+02
   6.4661770e+02   1.3374800e+02
   6.4709980e+02   1.3090910e+02
   6.4758190e+02   1.3449930e+02
   6.4806400e+02   1.4549070e+02
   6.4854610e+02   1.5365550e+02
   6.4902830e+02   1.4344150e+02
   6.4951040e+02   1.2478770e+02
   6.4999250e+02   1.1972910e+02
   6.5047460e+02   1.3501970e+02
   6.5095670e+02   1.5279660e+02
   6.5143880e+02   1.6262730e+02
   6.5192100e+02   1.6555240e+02
   6.5240310e+02   1.6326890e+02
   6.5288520e+02   1.4398740e+02
   6.5336730e+02   1.3242720e+02
   6.5384940e+02   1.4116960e+02
   6.5433150e+02   1.6493820e+02
   6.5481370e+02   1.8193020e+02
   6.5529580e+02   1.9139470e+02
   6.5577790e+02   1.9683800e+02
   6.5626000e+02   1.9654170e+02
   6.5674210e+02   1.8931790e+02
   6.5722420e+02   1.8600240e+02
   6.5770640e+02   1.8817800e+02
   6.5818850e+02   1.8880150e+02
   6.5867060e+02   1.7788930e+02
   6.5915270e+02   1.5942440e+02
   6.5963480e+02   1.4753120e+02
   6.6011690e+02   1.4460000e+02
   6.6059910e+02   1.4576040e+02
   6.6108120e+02   1.4701210e+02
   6.6156330e+02   1.4930910e+02
   6.6204540e+02   1.5398890e+02
   6.6252750e+02   1.7342790e+02
   6.6300960e+02   1.8244750e+02
   6.6349180e+02   1.6390160e+02
   6.6397390e+02   1.2824400e+02
   6.6445600e+02   1.0654210e+02
   6.6493810e+02   1.0709020e+02
   6.6542020e+02   1.0901430e+02
   6.6590230e+02   1.1146530e+02
   6.6638450e+02   1.1342400e+02
   6.6686660e+02   9.3551880e+01
   6.6734870e+02   4.5681640e+01
   6.6783080e+02   2.3692630e+00
   6.6831290e+02   1.1486210e+01
   6.6879500e+02   1.1823730e+00
   6.6927720e+02   1.5253170e+01
   6.6975930e+02   3.7577270e+01
   6.7024140e+02   5.7411010e+01
   6.7072350e+02   6.6338380e+01
   6.7120560e+02   6.8108890e+01
   6.7168770e+02   6.7571780e+01
   6.7216990e+02   6.4021120e+01
   6.7265200e+02   6.1751100e+01
   6.7313410e+02   6.9361570e+01
   6.7361620e+02   7.8161740e+01
   6.7409830e+02   7.1137210e+01
   6.7458040e+02   2.1150270e+01
   6.7506260e+02   1.3388310e+01
   6.7554470e+02   1.6530150e+01
   6.7602680e+02   5.2033690e+00
   6.7650890e+02   1.6458370e+01
   6.7699100e+02   1.6209720e+01
   6.7747310e+02   1.0828610e+01
   6.7795530e+02   8.8085900e-01
   6.7843740e+02   1.5842290e+01
   6.7891950e+02   1.6065800e+01
   6.7940160e+02   1.0885010e+00
   6.7988370e+02   1.4881710e+01
   6.8036580e+02   2.1003910e+01
   6.8084800e+02   2.0539670e+01
   6.8133010e+02   1.6375610e+01
   6.8181220e+02   6.8663330e+00
   6.8229430e+02   8.2897900e-01
   6.8277640e+02   9.2174070e+00
   6.8325850e+02   2.0813720e+01
   6.8374070e+02   2.1870970e+01
   6.8422280e+02   1.2333250e+01
   6.8470490e+02   2.6866940e+01
   6.8518700e+02   5.5078130e+00
   6.8566910e+02   3.4368530e+01
   6.8615120e+02   4.6069580e+01
   6.8663340e+02   2.2848630e+01
   6.8711550e+02   2.6987300e+00
   6.8759760e+02   4.2932100e-01
   6.8807970e+02   1.1165410e+01
   6.8856180e+02   2.3461550e+01
   6.8904390e+02   3.6642700e+01
   6.8952610e+02   4.2779170e+01
   6.9000820e+02   2.8733280e+01
   6.9049030e+02   8.7706300e+00
   6.9097240e+02   1.0924070e+00
   6.9145450e+02   1.1579590e+00
   6.9193660e+02   7.0421140e+00
   6.9241880e+02   1.8827880e+01
   6.9290090e+02   2.8866330e+01
   6.9338300e+02   3.0674070e+01
   6.9386510e+02   1.3397830e+01
   6.9434720e+02   4.7332760e+00
   6.9482930e+02   9.0336910e+00
   6.9531150e+02   1.8209470e+01
   6.9579360e+02   2.0385860e+01
   6.9627570e+02   1.4281250e+01
   6.9675780e+02   1.1736690e+01
   6.9723990e+02   1.7850100e+01
   6.9772200e+02   2.5533330e+01
   6.9820420e+02   1.4325070e+01
   6.9868630e+02   1.0227290e+01
   6.9916840e+02   2.2443600e+01
   6.9965050e+02   5.2175290e+00
   7.0013260e+02   4.0641110e+01
   7.0061470e+02   5.6674800e+01
   7.0109680e+02   5.4234500e+01
   7.0157890e+02   4.5827880e+01
   7.0206100e+02   2.2959350e+01
   7.0254320e+02   6.0428470e+00
   7.0302530e+02   1.0452270e+01
   7.0350740e+02   4.3383790e+01
   7.0398950e+02   5.8615360e+01
   7.0447160e+02   4.8854740e+01
   7.0495370e+02   3.2490720e+01
   7.0543590e+02   2.4413700e+01
   7.0591800e+02   2.4868770e+01
   7.0640010e+02   2.0805540e+01
   7.0688220e+02   8.9281010e+00
   7.0736430e+02   6.7505002e-02
   7.0784640e+02   1.6096440e+01
   7.0832860e+02   4.4779170e+01
   7.0881070e+02   5.6114870e+01
   7.0929280e+02   2.8874020e+01
   7.0977490e+02   5.2502400e-01
   7.1025700e+02   6.7926030e+00
   7.1073910e+02   2.3850100e+00
   7.1122130e+02   1.0147580e+01
   7.1170340e+02   1.5828490e+01
   7.1218550e+02   1.5239750e+01
   7.1266760e+02   2.3614500e+00
   7.1314970e+02   1.8837520e+01
   7.1363180e+02   2.3514160e+01
   7.1411400e+02   4.8576660e+00
   7.1459610e+02   1.1361080e+01
   7.1507820e+02   9.6197510e+00
   7.1556030e+02   6.1215820e+00
   7.1604240e+02   1.2597410e+01
   7.1652450e+02   9.6633300e+00
   7.1700670e+02   3.4044190e+00
   7.1748880e+02   2.3911130e+00
   7.1797090e+02   8.0659180e+00
   7.1845300e+02   1.4695680e+01
   7.1893510e+02   2.3072390e+01
   7.1941720e+02   2.8646730e+01
   7.1989940e+02   3.0475830e+01
   7.2038150e+02   2.7872070e+01
   7.2086360e+02   1.9921140e+01
   7.2134570e+02   6.0460210e+00
   7.2182780e+02   1.8592770e+01
   7.2230990e+02   1.1445680e+01
   7.2279210e+02   4.7840580e+00
   7.2327420e+02   1.1401000e+01
   7.2375630e+02   6.6826170e+00
   7.2423840e+02   1.2025510e+01
   7.2472050e+02   3.8153810e+01
   7.2520260e+02   6.9908690e+01
   7.2568480e+02   7.9430910e+01
   7.2616690e+02   6.9592530e+01
   7.2664900e+02   5.3200680e+01
   7.2713110e+02   2.7969120e+01
   7.2761320e+02   5.2032470e+00
   7.2809530e+02   8.8670650e+00
   7.2857750e+02   1.3823000e+01
   7.2905960e+02   7.3151860e+00
   7.2954170e+02   3.2429690e+01
   7.3002380e+02   6.3742920e+01
   7.3050590e+02   6.3911870e+01
   7.3098800e+02   2.8231810e+01
   7.3147020e+02   1.7072880e+01
   7.3195230e+02   3.9010380e+01
   7.3243440e+02   6.3466310e+01
   7.3291650e+02   6.3946040e+01
   7.3339860e+02   4.4229860e+01
   7.3388070e+02   2.9554570e+01
   7.3436290e+02   2.1171880e+01
   7.3484500e+02   1.7935670e+01
   7.3532710e+02   1.9730100e+01
   7.3580920e+02   2.5665890e+01
   7.3629130e+02   3.4932620e+01
   7.3677340e+02   5.2585690e+01
   7.3725560e+02   6.5481930e+01
   7.3773770e+02   6.2344120e+01
   7.3821980e+02   5.2178220e+01
   7.3870190e+02   4.8768070e+01
   7.3918400e+02   5.9893430e+01
   7.3966610e+02   6.5212040e+01
   7.4014830e+02   5.9972290e+01
   7.4063040e+02   4.8870970e+01
   7.4111250e+02   4.3030150e+01
   7.4159460e+02   4.2596310e+01
   7.4207670e+02   4.3892460e+01
   7.4255880e+02   4.5855220e+01
   7.4304100e+02   4.9990230e+01
   7.4352310e+02   5.6731690e+01
   7.4400520e+02   6.4727780e+01
   7.4448730e+02   6.6456540e+01
   7.4496940e+02   5.2782100e+01
   7.4545150e+02   3.7293090e+01
   7.4593370e+02   2.6413330e+01
   7.4641580e+02   2.0455570e+01
   7.4689790e+02   2.4407100e+01
   7.4738000e+02   5.5013430e+01
   7.4786210e+02   7.8040650e+01
   7.4834420e+02   7.3275150e+01
   7.4882640e+02   3.6034420e+01
   7.4930850e+02   1.7182980e+01
   7.4979060e+02   1.8773560e+01
   7.5027270e+02   2.8508060e+01
   7.5075480e+02   4.0756350e+01
   7.5123690e+02   5.2925290e+01
   7.5171910e+02   5.5041500e+01
   7.5220120e+02   4.3841550e+01
   7.5268330e+02   3.3600100e+01
   7.5316540e+02   3.8809810e+01
   7.5364750e+02   5.0447140e+01
   7.5412960e+02   5.7877810e+01
   7.5461180e+02   5.2968380e+01
   7.5509390e+02   5.1793460e+01
   7.5557600e+02   6.1464720e+01
   7.5605810e+02   7.4192630e+01
   7.5654020e+02   7.8801390e+01
   7.5702230e+02   7.3987430e+01
   7.5750450e+02   6.5485720e+01
   7.5798660e+02   5.0114870e+01
   7.5846870e+02   3.3240230e+01
   7.5895080e+02   2.5386230e+01
   7.5943290e+02   2.6258180e+01
   7.5991500e+02   3.4491090e+01
   7.6039720e+02   5.8123780e+01
   7.6087930e+02   8.1423580e+01
   7.6136140e+02   8.9203740e+01
   7.6184350e+02   8.4072510e+01
   7.6232560e+02   7.6235350e+01
   7.6280770e+02   6.6803100e+01
   7.6328990e+02   5.7630620e+01
   7.6377200e+02   4.9671260e+01
   7.6425410e+02   4.2882810e+01
   7.6473620e+02   3.5557370e+01
   7.6521830e+02   2.4726440e+01
   7.6570040e+02   2.0797970e+01
   7.6618250e+02   3.5230220e+01
   7.6666460e+02   6.3872680e+01
   7.6714670e+02   7.2540770e+01
   7.6762880e+02   6.0824950e+01
   7.6811100e+02   4.5943480e+01
   7.6859310e+02   4.1672850e+01
   7.6907520e+02   4.3307980e+01
   7.6955730e+02   4.7197510e+01
   7.7003940e+02   5.3638060e+01
   7.7052150e+02   5.7122070e+01
   7.7100370e+02   4.8727910e+01
   7.7148580e+02   4.0615230e+01
   7.7196790e+02   4.3803100e+01
   7.7245000e+02   5.8126950e+01
   7.7293210e+02   7.3406620e+01
   7.7341420e+02   9.3521240e+01
   7.7389640e+02   1.0750060e+02
   7.7437850e+02   9.7575810e+01
   7.7486060e+02   6.6483150e+01
   7.7534270e+02   4.1189090e+01
   7.7582480e+02   2.5900760e+01
   7.7630690e+02   1.9058470e+01
   7.7678910e+02   2.3533450e+01
   7.7727120e+02   3.3935670e+01
   7.7775330e+02   4.1088990e+01
   7.7823540e+02   3.6299560e+01
   7.7871750e+02   3.3764770e+01
   7.7919960e+02   4.2473750e+01
   7.7968180e+02   5.5122310e+01
   7.8016390e+02   5.6066160e+01
   7.8064600e+02   3.7383180e+01
   7.8112810e+02   2.4748410e+01
   7.8161020e+02   2.4500980e+01
   7.8209230e+02   3.3367310e+01
   7.8257450e+02   4.5113280e+01
   7.8305660e+02   5.9050540e+01
   7.8353870e+02   6.5709470e+01
   7.8402080e+02   5.2426390e+01
   7.8450290e+02   3.4797970e+01
   7.8498500e+02   3.3682010e+01
   7.8546720e+02   4.5133300e+01
   7.8594930e+02   5.2005980e+01
   7.8643140e+02   4.4864010e+01
   7.8691350e+02   3.5300050e+01
   7.8739560e+02   2.7220700e+01
   7.8787770e+02   2.0127560e+01
   7.8835990e+02   1.7632080e+01
   7.8884200e+02   2.2130860e+01
   7.8932410e+02   2.5952150e+01
   7.8980620e+02   2.3492310e+01
   7.9028830e+02   1.6077150e+01
   7.9077040e+02   1.5294310e+01
   7.9125260e+02   2.1217290e+01
   7.9173470e+02   2.8206670e+01
   7.9221680e+02   3.1697750e+01
   7.9269890e+02   3.4136720e+01
   7.9318100e+02   3.9918950e+01
   7.9366310e+02   5.0414060e+01
   7.9414530e+02   5.3766360e+01
   7.9462740e+02   3.4708980e+01
   7.9510950e+02   1.4902470e+01
   7.9559160e+02   1.1013670e+01
   7.9607370e+02   3.0850830e+01
   7.9655580e+02   4.0172730e+01
   7.9703800e+02   3.5936890e+01
   7.9752010e+02   2.7759770e+01
   7.9800220e+02   2.4999760e+01
   7.9848430e+02   2.6792720e+01
   7.9896640e+02   3.0025150e+01
   7.9944850e+02   3.5340580e+01
   7.9993070e+02   3.6436400e+01
   8.0041280e+02   1.9623900e+01
   8.0089490e+02   1.7752690e+00
   8.0137700e+02   9.9995120e+00
   8.0185910e+02   8.4030760e+00
   8.0234120e+02   2.5186400e+01
   8.0282340e+02   3.4601070e+01
   8.0330550e+02   3.9221560e+01
   8.0378760e+02   4.2328370e+01
   8.0426970e+02   4.5240110e+01
   8.0475180e+02   3.9157100e+01
   8.0523390e+02   1.9785280e+01
   8.0571610e+02   3.0906980e+00
   8.0619820e+02   1.4992190e+01
   8.0668030e+02   1.6695310e+01
   8.0716240e+02   1.0650390e+01
   8.0764450e+02   7.3186040e+00
   8.0812660e+02   2.5508060e+01
   8.0860880e+02   3.2286010e+01
   8.0909090e+02   3.3016720e+01
   8.0957300e+02   3.8408690e+01
   8.1005510e+02   6.5742550e+01
   8.1053720e+02   7.9815190e+01
   8.1101930e+02   6.8639160e+01
   8.1150150e+02   4.1954220e+01
   8.1198360e+02   2.5288820e+01
   8.1246570e+02   1.9456910e+01
   8.1294780e+02   1.7598880e+01
   8.1342990e+02   1.7043950e+01
   8.1391200e+02   1.9364380e+01
   8.1439420e+02   3.2012330e+01
   8.1487630e+02   5.1123410e+01
   8.1535840e+02   6.2745610e+01
   8.1584050e+02   5.3202150e+01
   8.1632260e+02   4.0155030e+01
   8.1680470e+02   3.1755000e+01
   8.1728690e+02   2.8175780e+01
   8.1776900e+02   2.8944950e+01
   8.1825110e+02   3.9971560e+01
   8.1873320e+02   4.5273440e+01
   8.1921530e+02   3.5462040e+01
   8.1969740e+02   1.5396000e+01
   8.2017960e+02   1.5693120e+01
   8.2066170e+02   3.6751220e+01
   8.2114380e+02   5.6759640e+01
   8.2162590e+02   6.3954350e+01
   8.2210800e+02   6.1723630e+01
   8.2259010e+02   4.9044190e+01
   8.2307230e+02   2.8215330e+01
   8.2355440e+02   1.7875490e+01
   8.2403650e+02   3.6940800e+01
   8.2451860e+02   5.9477780e+01
   8.2500070e+02   7.2782590e+01
   8.2548280e+02   7.6499760e+01
   8.2596500e+02   7.5223510e+01
   8.2644710e+02   6.7524540e+01
   8.2692920e+02   5.8708620e+01
   8.2741130e+02   5.4605470e+01
   8.2789340e+02   5.2719360e+01
   8.2837550e+02   3.1291380e+01
   8.2885770e+02   8.8718260e+00
   8.2933980e+02   3.4197750e+01
   8.2982190e+02   2.2454830e+00
   8.3030400e+02   5.1958620e+01
   8.3078610e+02   6.4835210e+01
   8.3126820e+02   3.0378050e+01
   8.3175030e+02   1.1020630e+01
   8.3223240e+02   3.7557500e+01
   8.3271450e+02   6.8340580e+01
   8.3319670e+02   8.3143800e+01
   8.3367880e+02   8.0679080e+01
   8.3416090e+02   6.8433840e+01
   8.3464300e+02   4.3686770e+01
   8.3512510e+02   2.3930180e+01
   8.3560720e+02   2.9926030e+01
   8.3608940e+02   5.0713620e+01
   8.3657150e+02   6.2750000e+01
   8.3705360e+02   6.3403690e+01
   8.3753570e+02   6.2726200e+01
   8.3801780e+02   6.6268680e+01
   8.3849990e+02   6.9669190e+01
   8.3898210e+02   6.9965700e+01
   8.3946420e+02   6.5966060e+01
   8.3994630e+02   6.2651370e+01
   8.4042840e+02   6.1342160e+01
   8.4091050e+02   5.8806640e+01
   8.4139260e+02   5.0331670e+01
   8.4187480e+02   3.6756470e+01
   8.4235690e+02   2.9168460e+01
   8.4283900e+02   2.8748290e+01
   8.4332110e+02   3.1967290e+01
   8.4380320e+02   3.7251950e+01
   8.4428530e+02   4.3562870e+01
   8.4476750e+02   4.9726810e+01
   8.4524960e+02   5.6196780e+01
   8.4573170e+02   6.0424190e+01
   8.4621380e+02   6.0577270e+01
   8.4669590e+02   5.9262570e+01
   8.4717800e+02   5.8446290e+01
   8.4766020e+02   5.8449830e+01
   8.4814230e+02   6.0207760e+01
   8.4862440e+02   6.4754640e+01
   8.4910650e+02   6.5718750e+01
   8.4958860e+02   4.8024540e+01
   8.5007070e+02   2.2304570e+01
   8.5055290e+02   1.9132570e+01
   8.5103500e+02   4.9413210e+01
   8.5151710e+02   7.6997800e+01
   8.5199920e+02   7.3333980e+01
   8.5248130e+02   5.7786010e+01
   8.5296340e+02   5.0156250e+01
   8.5344560e+02   6.2000490e+01
   8.5392770e+02   6.6111210e+01
   8.5440980e+02   5.9169190e+01
   8.5489190e+02   4.8828610e+01
   8.5537400e+02   4.4533690e+01
   8.5585610e+02   4.5546630e+01
   8.5633830e+02   4.3962280e+01
   8.5682040e+02   3.9267210e+01
   8.5730250e+02   3.6386110e+01
   8.5778460e+02   4.0767090e+01
   8.5826670e+02   4.9508300e+01
   8.5874880e+02   6.0875490e+01
   8.5923100e+02   8.1347410e+01
   8.5971310e+02   8.7710690e+01
   8.6019520e+02   5.9589230e+01
   8.6067730e+02   2.6109010e+01
   8.6115940e+02   1.5129150e+01
   8.6164150e+02   3.2474850e+01
   8.6212370e+02   4.2845340e+01
   8.6260580e+02   4.2289920e+01
   8.6308790e+02   3.7847050e+01
   8.6357000e+02   3.6314820e+01
   8.6405210e+02   3.7104250e+01
   8.6453420e+02   4.1807370e+01
   8.6501640e+02   5.3576050e+01
   8.6549850e+02   6.2379030e+01
   8.6598060e+02   6.2301030e+01
   8.6646270e+02   5.4624270e+01
   8.6694480e+02   4.2264040e+01
   8.6742690e+02   1.7896610e+01
   8.6790910e+02   6.8886720e+00
   8.6839120e+02   1.3833010e+01
   8.6887330e+02   2.6817990e+01
   8.6935540e+02   3.2731810e+01
   8.6983750e+02   3.2694820e+01
   8.7031960e+02   3.2081050e+01
   8.7080180e+02   3.1098140e+01
   8.7128390e+02   3.0636230e+01
   8.7176600e+02   3.1937380e+01
   8.7224810e+02   3.4529790e+01
   8.7273020e+02   3.7828490e+01
   8.7321230e+02   4.2210940e+01
   8.7369450e+02   4.6994020e+01
   8.7417660e+02   5.5311770e+01
   8.7465870e+02   6.1403810e+01
   8.7514080e+02   5.5963500e+01
   8.7562290e+02   3.7377930e+01
   8.7610500e+02   2.9700930e+01
   8.7658720e+02   3.7750610e+01
   8.7706930e+02   4.8385620e+01
   8.7755140e+02   4.5969600e+01
   8.7803350e+02   3.7213870e+01
   8.7851560e+02   3.1999020e+01
   8.7899770e+02   3.2640870e+01
   8.7947990e+02   3.6082520e+01
   8.7996200e+02   4.6578610e+01
   8.8044410e+02   5.5912960e+01
   8.8092620e+02   5.5655270e+01
   8.8140830e+02   4.0622680e+01
   8.8189040e+02   3.7257200e+01
   8.8237260e+02   5.0065670e+01
   8.8285470e+02   6.3574100e+01
   8.8333680e+02   5.4581050e+01
   8.8381890e+02   3.2057250e+01
   8.8430100e+02   2.3447510e+01
   8.8478310e+02   3.5025390e+01
   8.8526530e+02   4.7429690e+01
   8.8574740e+02   4.8811650e+01
   8.8622950e+02   4.4271120e+01
   8.8671160e+02   3.8620970e+01
   8.8719370e+02   2.8815190e+01
   8.8767580e+02   2.8849370e+01
   8.8815800e+02   3.9754150e+01
   8.8864010e+02   5.2626460e+01
   8.8912220e+02   6.0518310e+01
   8.8960430e+02   6.4557860e+01
   8.9008640e+02   6.5506590e+01
   8.9056850e+02   6.1833980e+01
   8.9105070e+02   5.4261840e+01
   8.9153280e+02   3.8122070e+01
   8.9201490e+02   2.2813720e+01
   8.9249700e+02   1.9557130e+01
   8.9297910e+02   3.4180540e+01
   8.9346120e+02   3.7474610e+01
   8.9394340e+02   1.9862060e+01
   8.9442550e+02   1.0227050e+00
   8.9490760e+02   7.4346920e+00
   8.9538970e+02   5.5639650e+00
   8.9587180e+02   5.9810790e+00
   8.9635390e+02   2.7702880e+01
   8.9683610e+02   4.4976320e+01
   8.9731810e+02   4.1264400e+01
   8.9780020e+02   2.8982670e+01
   8.9828230e+02   2.0860720e+01
   8.9876450e+02   1.8197510e+01
   8.9924660e+02   1.8308840e+01
   8.9972870e+02   2.5635860e+01
   9.0021080e+02   3.0336670e+01
   9.0069290e+02   2.5974370e+01
   9.0117500e+02   1.2283690e+01
   9.0165720e+02   7.6110840e+00
   9.0213930e+02   1.2269290e+01
   9.0262140e+02   2.2097050e+01
   9.0310350e+02   4.3285280e+01
   9.0358560e+02   6.3086550e+01
   9.0406770e+02   5.7967770e+01
   9.0454990e+02   2.9621950e+01
   9.0503200e+02   6.3325200e+00
   9.0551410e+02   4.9694800e-01
   9.0599620e+02   1.8010250e+00
   9.0647830e+02   1.3344600e+01
   9.0696040e+02   3.2659060e+01
   9.0744260e+02   4.2209350e+01
   9.0792470e+02   4.0403080e+01
   9.0840680e+02   3.7083860e+01
   9.0888890e+02   3.7834720e+01
   9.0937100e+02   4.0391360e+01
   9.0985310e+02   4.0042360e+01
   9.1033530e+02   3.7512450e+01
   9.1081740e+02   3.6000240e+01
   9.1129950e+02   4.4147460e+01
   9.1178160e+02   4.6705200e+01
   9.1226370e+02   2.8328370e+01
   9.1274580e+02   3.6773680e+00
   9.1322800e+02   1.1805300e+01
   9.1371010e+02   1.1574830e+01
   9.1419220e+02   3.2874270e+01
   9.1467430e+02   4.2343020e+01
   9.1515640e+02   4.1380370e+01
   9.1563850e+02   2.4455930e+01
   9.1612070e+02   1.8171390e+00
   9.1660280e+02   1.3929440e+01
   9.1708490e+02   1.5476680e+01
   9.1756700e+02   4.4375370e+01
   9.1804910e+02   4.8010130e+01
   9.1853130e+02   3.5963500e+01
   9.1901340e+02   3.4966920e+01
   9.1949550e+02   5.4729250e+01
   9.1997760e+02   6.2841190e+01
   9.2045970e+02   4.9566410e+01
   9.2094180e+02   2.7438600e+01
   9.2142400e+02   2.1056270e+01
   9.2190610e+02   2.5756350e+01
   9.2238820e+02   2.3746830e+01
   9.2287030e+02   2.0316160e+00
   9.2335240e+02   1.4641480e+01
   9.2383450e+02   1.7146000e+00
   9.2431670e+02   2.3279790e+01
   9.2479880e+02   3.2487550e+01
   9.2528090e+02   1.2005130e+01
   9.2576300e+02   1.0401610e+00
   9.2624510e+02   5.9500730e+00
   9.2672720e+02   1.4950680e+01
   9.2720940e+02   9.8365480e+00
   9.2769150e+02   5.4580080e+00
   9.2817360e+02   1.3416630e+01
   9.2865570e+02   9.9477540e+00
   9.2913780e+02   3.8168950e+00
   9.2961990e+02   4.7290000e-01
   9.3010210e+02   2.9394530e+00
   9.3058420e+02   3.4832760e+00
   9.3106630e+02   1.5838620e+00
   9.3154840e+02   2.0570070e+00
   9.3203050e+02   9.8352050e+00
   9.3251260e+02   1.4992550e+01
   9.3299480e+02   8.6219480e+00
   9.3347690e+02   6.3464360e+00
   9.3395900e+02   1.3283810e+01
   9.3444110e+02   1.1145630e+01
   9.3492320e+02   7.5147710e+00
   9.3540530e+02   6.8874510e+00
   9.3588750e+02   7.9901120e+00
   9.3636960e+02   1.0756710e+01
   9.3685170e+02   1.5829710e+01
   9.3733380e+02   1.6968020e+01
   9.3781590e+02   1.2330570e+01
   9.3829800e+02   6.9108890e+00
   9.3878020e+02   3.6374510e+00
   9.3926230e+02   1.8452150e+00
   9.3974440e+02   4.5803220e+00
   9.4022650e+02   1.4646000e+01
   9.4070860e+02   1.8248660e+01
   9.4119070e+02   1.7531740e+00
   9.4167290e+02   2.1445680e+01
   9.4215500e+02   1.7747190e+01
   9.4263710e+02   5.5249020e+00
   9.4311920e+02   1.1852170e+01
   9.4360130e+02   1.1572750e+01
   9.4408340e+02   3.1457030e+01
   9.4456560e+02   3.8292480e+01
   9.4504770e+02   3.4703490e+01
   9.4552980e+02   2.6244140e+01
   9.4601190e+02   1.3713750e+01
   9.4649400e+02   9.3994100e-01
   9.4697610e+02   1.6529170e+01
   9.4745830e+02   2.6672120e+01
   9.4794040e+02   1.2041260e+01
   9.4842250e+02   1.4987790e+01
   9.4890460e+02   2.5529910e+01
   9.4938670e+02   5.4357900e-01
   9.4986880e+02   9.3131100e+00
   9.5035100e+02   7.2614750e+00
   9.5083310e+02   3.4938720e+01
   9.5131520e+02   5.0085210e+01
   9.5179730e+02   5.3857420e+01
   9.5227940e+02   5.1010130e+01
   9.5276150e+02   4.1100710e+01
   9.5324370e+02   3.0571530e+01
   9.5372580e+02   2.2031740e+01
   9.5420790e+02   1.6631840e+01
   9.5469000e+02   1.5755490e+01
   9.5517210e+02   2.0311890e+01
   9.5565420e+02   2.7476320e+01
   9.5613640e+02   3.8062010e+01
   9.5661850e+02   4.9686400e+01
   9.5710060e+02   6.3134770e+01
   9.5758270e+02   7.6182980e+01
   9.5806480e+02   7.7518430e+01
   9.5854690e+02   6.5842040e+01
   9.5902910e+02   5.4800540e+01
   9.5951120e+02   4.9769530e+01
   9.5999330e+02   5.2197390e+01
   9.6047540e+02   6.7498780e+01
   9.6095750e+02   9.8373050e+01
   9.6143960e+02   1.1080290e+02
   9.6192180e+02   9.7101070e+01
   9.6240390e+02   8.6029420e+01
   9.6288600e+02   9.6628780e+01
   9.6336800e+02   1.2112040e+02
   9.6385020e+02   1.3785020e+02
   9.6433230e+02   1.4773390e+02
   9.6481440e+02   1.5562290e+02
   9.6529650e+02   1.5916140e+02
   9.6577860e+02   1.6570470e+02
   9.6626070e+02   1.7924180e+02
   9.6674290e+02   1.9915050e+02
   9.6722500e+02   2.2332150e+02
   9.6770710e+02   2.5298520e+02
   9.6818920e+02   2.8186270e+02
   9.6867130e+02   3.0825680e+02
   9.6915340e+02   3.3343960e+02
   9.6963560e+02   3.5836350e+02
   9.7011770e+02   3.8407460e+02
   9.7059980e+02   4.1249070e+02
   9.7108190e+02   4.4020090e+02
   9.7156400e+02   4.7924330e+02
   9.7204610e+02   5.3828030e+02
   9.7252830e+02   6.0746800e+02
   9.7301040e+02   6.7228300e+02
   9.7349250e+02   7.2838770e+02
   9.7397460e+02   8.0165010e+02
   9.7445670e+02   8.9492400e+02
   9.7493880e+02   1.0043010e+03
   9.7542100e+02   1.1159200e+03
   9.7590310e+02   1.2385620e+03
   9.7638520e+02   1.3866980e+03
   9.7686730e+02   1.5641330e+03
   9.7734940e+02   1.7642680e+03
   9.7783150e+02   1.9818270e+03
   9.7831370e+02   2.2260470e+03
   9.7879580e+02   2.5060750e+03
   9.7927790e+02   2.8217840e+03
   9.7976000e+02   3.1362560e+03
   9.8024210e+02   3.4487570e+03
   9.8072420e+02   3.7711070e+03
   9.8120640e+02   4.1344590e+03
   9.8168850e+02   4.5026200e+03
   9.8217060e+02   4.8195590e+03
   9.8265270e+02   5.0928800e+03
   9.8313480e+02   5.3869180e+03
   9.8361690e+02   5.7235400e+03
   9.8409910e+02   6.0836000e+03
   9.8458120e+02   6.4640790e+03
   9.8506330e+02   6.8596210e+03
   9.8554540e+02   7.2566240e+03
   9.8602750e+02   7.6534250e+03
   9.8650960e+02   8.0282590e+03
   9.8699180e+02   8.3603660e+03
   9.8747390e+02   8.6894770e+03
   9.8795600e+02   9.0436260e+03
   9.8843810e+02   9.4174690e+03
   9.8892020e+02   9.8017070e+03
   9.8940230e+02   1.0246050e+04
   9.8988450e+02   1.0627510e+04
   9.9036660e+02   1.0973220e+04
   9.9084870e+02   1.1206950e+04
   9.9133080e+02   1.1251180e+04
   9.9181290e+02   1.1101490e+04
   9.9229500e+02   1.0737240e+04
   9.9277720e+02   1.0148000e+04
   9.9325930e+02   9.4148420e+03
   9.9374140e+02   8.4791900e+03
   9.9422350e+02   7.5054510e+03
   9.9470560e+02   6.6126480e+03
   9.9518770e+02   5.8039690e+03
   9.9566990e+02   5.0446150e+03
   9.9615200e+02   4.3167840e+03
   9.9663410e+02   3.6686330e+03
   9.9711620e+02   3.1424080e+03
   9.9759830e+02   2.7184260e+03
   9.9808040e+02   2.3713920e+03
   9.9856260e+02   2.0965710e+03
   9.9904470e+02   1.8619060e+03
   9.9952680e+02   1.6501440e+03
   1.0000090e+03   1.4758350e+03
   1.0004910e+03   1.3513840e+03
   1.0009730e+03   1.2670150e+03
   1.0014550e+03   1.2038150e+03
   1.0019370e+03   1.1630310e+03
   1.0024190e+03   1.1267200e+03
   1.0029020e+03   1.0893020e+03
   1.0033840e+03   1.0569710e+03
   1.0038660e+03   1.0364260e+03
   1.0043480e+03   1.0268170e+03
   1.0048300e+03   1.0256620e+03
   1.0053120e+03   1.0311160e+03
   1.0057940e+03   1.0518870e+03
   1.0062760e+03   1.0987500e+03
   1.0067590e+03   1.1473180e+03
   1.0072410e+03   1.1717390e+03
   1.0077230e+03   1.1739400e+03
   1.0082050e+03   1.2000220e+03
   1.0086870e+03   1.2527540e+03
   1.0091690e+03   1.3095530e+03
   1.0096510e+03   1.3527230e+03
   1.0101330e+03   1.3922280e+03
   1.0106150e+03   1.4337740e+03
   1.0110980e+03   1.4781950e+03
   1.0115800e+03   1.5306630e+03
   1.0120620e+03   1.5952700e+03
   1.0125440e+03   1.6583180e+03
   1.0130260e+03   1.7162410e+03
   1.0135080e+03   1.7667300e+03
   1.0139900e+03   1.8041230e+03
   1.0144720e+03   1.8284920e+03
   1.0149550e+03   1.8412580e+03
   1.0154370e+03   1.8434430e+03
   1.0159190e+03   1.8340150e+03
   1.0164010e+03   1.8135790e+03
   1.0168830e+03   1.7803000e+03
   1.0173650e+03   1.7345250e+03
   1.0178470e+03   1.6794840e+03
   1.0183290e+03   1.5900730e+03
   1.0188110e+03   1.4574230e+03
   1.0192940e+03   1.3118770e+03
   1.0197760e+03   1.1830120e+03
   1.0202580e+03   1.0664040e+03
   1.0207400e+03   9.5612320e+02
   1.0212220e+03   8.5097490e+02
   1.0217040e+03   7.5110550e+02
   1.0221860e+03   6.5108740e+02
   1.0226680e+03   5.6090970e+02
   1.0231510e+03   4.8820130e+02
   1.0236330e+03   4.3145190e+02
   1.0241150e+03   3.7821700e+02
   1.0245970e+03   3.2829930e+02
   1.0250790e+03   2.8194450e+02
   1.0255610e+03   2.3589870e+02
   1.0260430e+03   1.9573940e+02
   1.0265250e+03   1.6953050e+02
   1.0270070e+03   1.5355740e+02
   1.0274900e+03   1.3401870e+02
   1.0279720e+03   1.0661080e+02
   1.0284540e+03   8.4076540e+01
   1.0289360e+03   6.9853760e+01
   1.0294180e+03   5.9411500e+01
   1.0299000e+03   4.2584110e+01
   1.0303820e+03   2.3565550e+01
   1.0308640e+03   1.4248780e+01
   1.0313460e+03   2.2795900e+01
   1.0318290e+03   2.5704100e+01
   1.0323110e+03   4.1247600e-01
   1.0327930e+03   2.6242070e+01
   1.0332750e+03   2.6880000e+01
   1.0337570e+03   2.4191890e+00
   1.0342390e+03   2.0663330e+01
   1.0347210e+03   2.7507450e+01
   1.0352030e+03   2.8576420e+01
   1.0356860e+03   2.5761840e+01
   1.0361680e+03   2.1114990e+01
   1.0366500e+03   1.7610470e+01
   1.0371320e+03   1.4820310e+01
   1.0376140e+03   8.8300780e+00
   1.0380960e+03   4.4777830e+00
   1.0385780e+03   1.6204470e+01
   1.0390600e+03   2.5721310e+01
   1.0395420e+03   3.0869750e+01
   1.0400250e+03   2.4651980e+01
   1.0405070e+03   9.0877690e+00
   1.0409890e+03   9.7401120e+00
   1.0414710e+03   3.6014040e+01
   1.0419530e+03   5.0695430e+01
   1.0424350e+03   2.7755250e+01
   1.0429170e+03   4.1451420e+00
   1.0433990e+03   1.3310550e+01
   1.0438810e+03   4.9752200e+00
   1.0443640e+03   3.3877930e+01
   1.0448460e+03   7.6040160e+01
   1.0453280e+03   1.1332150e+02
   1.0458100e+03   1.2689450e+02
   1.0462920e+03   1.2690910e+02
   1.0467740e+03   1.2763050e+02
   1.0472560e+03   1.2955480e+02
   1.0477380e+03   1.2790890e+02
   1.0482210e+03   1.1350420e+02
   1.0487030e+03   1.0478100e+02
   1.0491850e+03   1.0752270e+02
   1.0496670e+03   1.1907410e+02
   1.0501490e+03   1.3562940e+02
   1.0506310e+03   1.5543640e+02
   1.0511130e+03   1.6479530e+02
   1.0515950e+03   1.5272810e+02
   1.0520780e+03   1.4193180e+02
   1.0525600e+03   1.4993180e+02
   1.0530420e+03   1.6812270e+02
   1.0535240e+03   1.8619070e+02
   1.0540060e+03   2.0622860e+02
   1.0544880e+03   2.1578720e+02
   1.0549700e+03   2.1106350e+02
   1.0554520e+03   2.0990660e+02
   1.0559340e+03   2.3537340e+02
   1.0564170e+03   2.7219780e+02
   1.0568990e+03   2.9277080e+02
   1.0573810e+03   2.9700950e+02
   1.0578630e+03   3.0250540e+02
   1.0583450e+03   3.2120610e+02
   1.0588270e+03   3.3586820e+02
   1.0593090e+03   3.3988420e+02
   1.0597910e+03   3.3641650e+02
   1.0602730e+03   3.3183280e+02
   1.0607560e+03   3.2789010e+02
   1.0612380e+03   3.3251370e+02
   1.0617200e+03   3.5090640e+02
   1.0622020e+03   3.7366240e+02
   1.0626840e+03   3.9779760e+02
   1.0631660e+03   4.1913070e+02
   1.0636480e+03   4.3010900e+02
   1.0641300e+03   4.2958070e+02
   1.0646120e+03   4.2740920e+02
   1.0650950e+03   4.2264430e+02
   1.0655770e+03   4.1988500e+02
   1.0660590e+03   4.2696310e+02
   1.0665410e+03   4.3800940e+02
   1.0670230e+03   4.4134340e+02
   1.0675050e+03   4.3700210e+02
   1.0679870e+03   4.3436900e+02
   1.0684690e+03   4.4116760e+02
   1.0689520e+03   4.4442990e+02
   1.0694340e+03   4.3863960e+02
   1.0699160e+03   4.2866670e+02
   1.0703980e+03   4.2595670e+02
   1.0708800e+03   4.2984990e+02
   1.0713620e+03   4.3300770e+02
   1.0718440e+03   4.3414700e+02
   1.0723260e+03   4.3148860e+02
   1.0728080e+03   4.2157690e+02
   1.0732910e+03   4.0827440e+02
   1.0737730e+03   3.9674540e+02
   1.0742550e+03   3.9034030e+02
   1.0747370e+03   3.7007470e+02
   1.0752190e+03   3.3071640e+02
   1.0757010e+03   3.0393210e+02
   1.0761830e+03   3.2953200e+02
   1.0766650e+03   3.7523120e+02
   1.0771470e+03   3.9368840e+02
   1.0776300e+03   3.8639160e+02
   1.0781120e+03   3.7247900e+02
   1.0785940e+03   3.4896640e+02
   1.0790760e+03   3.3068680e+02
   1.0795580e+03   3.1934900e+02
   1.0800400e+03   3.1624630e+02
   1.0805220e+03   3.3016530e+02
   1.0810040e+03   3.5595240e+02
   1.0814870e+03   3.6877200e+02
   1.0819690e+03   3.5724130e+02
   1.0824510e+03   3.4784750e+02
   1.0829330e+03   3.6367160e+02
   1.0834150e+03   3.8352590e+02
   1.0838970e+03   3.8786820e+02
   1.0843790e+03   3.7398600e+02
   1.0848610e+03   3.6207810e+02
   1.0853440e+03   3.5143980e+02
   1.0858260e+03   3.4913110e+02
   1.0863080e+03   3.6661080e+02
   1.0867900e+03   3.8998780e+02
   1.0872720e+03   4.0533700e+02
   1.0877540e+03   4.1322970e+02
   1.0882360e+03   4.1647970e+02
   1.0887180e+03   4.1415300e+02
   1.0892000e+03   4.1035900e+02
   1.0896820e+03   4.0567110e+02
   1.0901650e+03   3.9993260e+02
   1.0906470e+03   3.9247120e+02
   1.0911290e+03   3.8376560e+02
   1.0916110e+03   3.7251500e+02
   1.0920930e+03   3.5639760e+02
   1.0925750e+03   3.4561040e+02
   1.0930570e+03   3.5270470e+02
   1.0935390e+03   3.5858130e+02
   1.0940220e+03   3.5190580e+02
   1.0945040e+03   3.3374790e+02
   1.0949860e+03   3.1831040e+02
   1.0954680e+03   3.0537460e+02
   1.0959500e+03   2.8949050e+02
   1.0964320e+03   2.5578480e+02
   1.0969140e+03   2.2944120e+02
   1.0973960e+03   2.4097440e+02
   1.0978790e+03   2.7165950e+02
   1.0983610e+03   2.8322970e+02
   1.0988430e+03   2.6855640e+02
   1.0993250e+03   2.4740360e+02
   1.0998070e+03   2.1862160e+02
   1.1002890e+03   1.9419710e+02
   1.1007710e+03   1.9262810e+02
   1.1012530e+03   2.0132020e+02
   1.1017350e+03   2.0497730e+02
   1.1022180e+03   2.0170690e+02
   1.1027000e+03   1.8563550e+02
   1.1031820e+03   1.3994140e+02
   1.1036640e+03   1.0394900e+02
   1.1041460e+03   9.1831540e+01
   1.1046280e+03   9.7360720e+01
   1.1051100e+03   1.1115970e+02
   1.1055920e+03   1.2857590e+02
   1.1060740e+03   1.2948940e+02
   1.1065570e+03   9.4242430e+01
   1.1070390e+03   6.4954960e+01
   1.1075210e+03   6.8986690e+01
   1.1080030e+03   8.2831670e+01
   1.1084850e+03   8.4125980e+01
   1.1089670e+03   7.1531620e+01
   1.1094490e+03   5.6121830e+01
   1.1099310e+03   3.7493040e+01
   1.1104140e+03   2.5308840e+01
   1.1108960e+03   3.2829470e+01
   1.1113780e+03   4.4383060e+01
   1.1118600e+03   4.8640260e+01
   1.1123420e+03   4.5140380e+01
   1.1128240e+03   3.3605220e+01
   1.1133060e+03   8.0389400e+00
   1.1137880e+03   5.1561280e+00
   1.1142710e+03   2.5548100e+00
   1.1147530e+03   1.5850830e+01
   1.1152350e+03   1.0190190e+01
   1.1157170e+03   3.7204590e+00
   1.1161990e+03   5.8560790e+00
   1.1166810e+03   1.2266600e+01
   1.1171630e+03   1.8822390e+01
   1.1176450e+03   5.0293000e-01
   1.1181270e+03   1.8866210e+01
   1.1186090e+03   2.1897340e+01
   1.1190920e+03   1.5498660e+01
   1.1195740e+03   2.3537600e+01
   1.1200560e+03   4.0886230e+01
   1.1205380e+03   4.4891970e+01
   1.1210200e+03   7.3253170e+00
   1.1215020e+03   2.5490110e+01
   1.1219840e+03   3.5714360e+01
   1.1224660e+03   3.1300420e+01
   1.1229490e+03   1.5590940e+01
   1.1234310e+03   1.2022220e+01
   1.1239130e+03   2.2387080e+01
   1.1243950e+03   1.2714230e+01
   1.1248770e+03   4.2222900e+00
   1.1253590e+03   3.0754760e+01
   1.1258410e+03   4.9542360e+01
   1.1263230e+03   3.8832150e+01
   1.1268060e+03   2.0777590e+00
   1.1272880e+03   1.2157710e+01
   1.1277700e+03   1.2742920e+00
   1.1282520e+03   1.4259770e+01
   1.1287340e+03   1.8124880e+01
   1.1292160e+03   1.9190920e+01
   1.1296980e+03   2.9015870e+01
   1.1301800e+03   4.0805180e+01
   1.1306620e+03   4.2499880e+01
   1.1311450e+03   2.3036380e+01
   1.1316270e+03   1.8684080e+01
   1.1321090e+03   3.7833980e+01
   1.1325910e+03   5.8313960e+01
   1.1330730e+03   6.2922850e+01
   1.1335550e+03   5.8645870e+01
   1.1340370e+03   6.7004150e+01
   1.1345190e+03   8.5051880e+01
   1.1350010e+03   1.0114670e+02
   1.1354840e+03   1.0610220e+02
   1.1359660e+03   1.1378820e+02
   1.1364480e+03   1.3118470e+02
   1.1369300e+03   1.4890260e+02
   1.1374120e+03   1.5087070e+02
   1.1378940e+03   1.4015230e+02
   1.1383760e+03   1.3747600e+02
   1.1388580e+03   1.4559800e+02
   1.1393400e+03   1.5566670e+02
   1.1398230e+03   1.5863480e+02
   1.1403050e+03   1.6472460e+02
   1.1407870e+03   1.8406530e+02
   1.1412690e+03   2.1253750e+02
   1.1417510e+03   2.2382140e+02
   1.1422330e+03   2.1761180e+02
   1.1427150e+03   2.2378770e+02
   1.1431970e+03   2.5959470e+02
   1.1436800e+03   2.9607460e+02
   1.1441620e+03   3.0809520e+02
   1.1446440e+03   3.0411720e+02
   1.1451260e+03   2.9124120e+02
   1.1456080e+03   2.6359910e+02
   1.1460900e+03   2.5832200e+02
   1.1465720e+03   2.7971080e+02
   1.1470540e+03   3.0112240e+02
   1.1475360e+03   3.0063670e+02
   1.1480190e+03   2.9127880e+02
   1.1485010e+03   2.9110550e+02
   1.1489830e+03   2.9685100e+02
   1.1494650e+03   2.9639000e+02
   1.1499470e+03   2.7372310e+02
   1.1504290e+03   2.7232920e+02
   1.1509110e+03   3.0349990e+02
   1.1513930e+03   3.4116210e+02
   1.1518750e+03   3.5367740e+02
   1.1523580e+03   3.4882740e+02
   1.1528400e+03   3.3987830e+02
   1.1533220e+03   3.2834970e+02
   1.1538040e+03   3.1951980e+02
   1.1542860e+03   3.2393800e+02
   1.1547680e+03   3.2038390e+02
   1.1552500e+03   2.9955030e+02
   1.1557320e+03   2.6991460e+02
   1.1562150e+03   2.4910210e+02
   1.1566970e+03   2.3642330e+02
   1.1571790e+03   2.2712780e+02
   1.1576610e+03   2.2297920e+02
   1.1581430e+03   2.1377000e+02
   1.1586250e+03   1.8832980e+02
   1.1591070e+03   1.6255900e+02
   1.1595890e+03   1.4676770e+02
   1.1600720e+03   1.4014470e+02
   1.1605540e+03   1.4014860e+02
   1.1610360e+03   1.4703200e+02
   1.1615180e+03   1.5083730e+02
   1.1620000e+03   1.4173720e+02
   1.1624820e+03   1.3149630e+02
   1.1629640e+03   1.2767710e+02
   1.1634460e+03   1.2691650e+02
   1.1639280e+03   1.2386100e+02
   1.1644110e+03   1.1866000e+02
   1.1648930e+03   1.0938330e+02
   1.1653750e+03   9.5235470e+01
   1.1658570e+03   8.3817750e+01
   1.1663390e+03   8.7562870e+01
   1.1668210e+03   9.2391850e+01
   1.1673030e+03   8.4976810e+01
   1.1677850e+03   6.5361080e+01
   1.1682670e+03   4.7825810e+01
   1.1687500e+03   3.1392700e+01
   1.1692320e+03   3.0222170e+01
   1.1697140e+03   5.3293090e+01
   1.1701960e+03   7.8610840e+01
   1.1706780e+03   7.8046880e+01
   1.1711600e+03   6.3882080e+01
   1.1716420e+03   5.0158690e+01
   1.1721240e+03   3.9659790e+01
   1.1726070e+03   3.2530880e+01
   1.1730890e+03   2.9723270e+01
   1.1735710e+03   2.7179810e+01
   1.1740530e+03   2.3828610e+01
   1.1745350e+03   1.9851680e+01
   1.1750170e+03   8.2786870e+00
   1.1754990e+03   4.3215330e+00
   1.1759810e+03   3.1633300e+00
   1.1764640e+03   3.9653320e+01
   1.1769460e+03   6.2165040e+01
   1.1774280e+03   5.4659670e+01
   1.1779100e+03   3.7000490e+01
   1.1783920e+03   2.5319460e+01
   1.1788740e+03   2.2290530e+01
   1.1793560e+03   2.9665040e+01
   1.1798380e+03   4.5676030e+01
   1.1803200e+03   6.0831540e+01
   1.1808020e+03   7.6692260e+01
   1.1812850e+03   8.3080080e+01
   1.1817670e+03   7.4741940e+01
   1.1822490e+03   6.2393680e+01
   1.1827310e+03   6.3070430e+01
   1.1832130e+03   7.2714840e+01
   1.1836950e+03   8.0138060e+01
   1.1841770e+03   8.3408810e+01
   1.1846590e+03   8.7813110e+01
   1.1851420e+03   9.4906740e+01
   1.1856240e+03   1.0531710e+02
   1.1861060e+03   1.2004640e+02
   1.1865880e+03   1.3604250e+02
   1.1870700e+03   1.4221500e+02
   1.1875520e+03   1.4058240e+02
   1.1880340e+03   1.3971790e+02
   1.1885160e+03   1.4046030e+02
   1.1889990e+03   1.4717190e+02
   1.1894810e+03   1.7227390e+02
   1.1899630e+03   1.9536060e+02
   1.1904450e+03   1.9644810e+02
   1.1909270e+03   1.7706740e+02
   1.1914090e+03   1.8608970e+02
   1.1918910e+03   2.2029870e+02
   1.1923730e+03   2.4933620e+02
   1.1928550e+03   2.5573890e+02
   1.1933380e+03   2.5248220e+02
   1.1938200e+03   2.3969740e+02
   1.1943020e+03   2.2483060e+02
   1.1947840e+03   2.1925680e+02
   1.1952660e+03   2.2353190e+02
   1.1957480e+03   2.2572240e+02
   1.1962300e+03   2.2523650e+02
   1.1967120e+03   2.1497340e+02
   1.1971940e+03   1.8209570e+02
   1.1976770e+03   1.4446090e+02
   1.1981590e+03   1.1029310e+02
   1.1986410e+03   8.2453250e+01
   1.1991230e+03   7.0971190e+01
   1.1996050e+03   7.7292480e+01
   1.2000870e+03   7.5645020e+01
   1.2005690e+03   5.9292480e+01
   1.2010510e+03   4.3540040e+01
   1.2015330e+03   4.2139890e+01
   1.2020160e+03   4.8206670e+01
   1.2024980e+03   5.7161620e+01
   1.2029800e+03   6.8239380e+01
   1.2034620e+03   8.0749390e+01
   1.2039440e+03   9.6088990e+01
   1.2044260e+03   9.4301150e+01
   1.2049080e+03   5.8409550e+01
   1.2053900e+03   2.2259400e+01
   1.2058730e+03   3.0058840e+01
   1.2063550e+03   5.3151730e+01
   1.2068370e+03   5.2096920e+01
   1.2073190e+03   1.7831180e+01
   1.2078010e+03   6.1706500e-01
   1.2082830e+03   1.7526860e+00
   1.2087650e+03   1.9929200e+00
   1.2092470e+03   3.9882810e+00
   1.2097290e+03   6.0253910e+00
   1.2102120e+03   9.9324950e+00
   1.2106940e+03   1.5307130e+01
   1.2111760e+03   2.2295780e+01
   1.2116580e+03   3.5556520e+01
   1.2121400e+03   3.1946410e+01
   1.2126220e+03   6.2795410e+00
   1.2131040e+03   1.3417360e+01
   1.2135860e+03   9.5236820e+00
   1.2140680e+03   4.2758060e+01
   1.2145510e+03   4.9786130e+01
   1.2150330e+03   3.3694090e+01
   1.2155150e+03   1.7496220e+01
   1.2159970e+03   1.3786620e+00
   1.2164790e+03   1.0515990e+01
   1.2169610e+03   1.8533330e+01
   1.2174430e+03   1.7807500e+01
   1.2179250e+03   8.4677730e+00
   1.2184080e+03   3.9977660e+01
   1.2188900e+03   5.1287600e+01
   1.2193720e+03   3.8786250e+01
   1.2198540e+03   2.7567020e+01
   1.2203360e+03   1.6762080e+01
   1.2208180e+03   1.5453740e+01
   1.2213000e+03   2.9540160e+01
   1.2217820e+03   4.7254150e+01
   1.2222650e+03   5.5582640e+01
   1.2227470e+03   5.5582520e+01
   1.2232290e+03   4.7437870e+01
   1.2237110e+03   2.8440310e+01
   1.2241930e+03   1.0197020e+01
   1.2246750e+03   1.0774540e+01
   1.2251570e+03   1.7151000e+01
   1.2256390e+03   7.4239500e+00
   1.2261210e+03   4.0196170e+01
   1.2266040e+03   5.6623290e+01
   1.2270860e+03   5.8440920e+01
   1.2275680e+03   5.1829350e+01
   1.2280500e+03   2.9780400e+01
   1.2285320e+03   1.8941890e+01
   1.2290140e+03   2.1879880e+01
   1.2294960e+03   2.6317020e+01
   1.2299780e+03   1.9165890e+01
   1.2304600e+03   1.0544800e+01
   1.2309430e+03   1.9680300e+01
   1.2314250e+03   3.9494140e+01
   1.2319070e+03   4.8377690e+01
   1.2323890e+03   3.9555540e+01
   1.2328710e+03   2.6919920e+01
   1.2333530e+03   9.4455570e+00
   1.2338350e+03   4.1436770e+00
   1.2343170e+03   3.8666990e+00
   1.2348000e+03   4.7939450e+00
   1.2352820e+03   1.8461910e+01
   1.2357640e+03   3.5100460e+01
   1.2362460e+03   4.2031620e+01
   1.2367280e+03   3.2739870e+01
   1.2372100e+03   3.1796390e+01
   1.2376920e+03   4.5463380e+01
   1.2381740e+03   6.2478880e+01
   1.2386560e+03   7.2175290e+01
   1.2391390e+03   7.4590210e+01
   1.2396210e+03   6.4493160e+01
   1.2401030e+03   4.1439330e+01
   1.2405850e+03   3.8432620e+01
   1.2410670e+03   6.4749630e+01
   1.2415490e+03   8.0891240e+01
   1.2420310e+03   7.1387820e+01
   1.2425130e+03   5.1376950e+01
   1.2429950e+03   3.2833130e+01
   1.2434780e+03   2.1899290e+01
   1.2439600e+03   3.1113280e+01
   1.2444420e+03   6.8601810e+01
   1.2449240e+03   7.5615480e+01
   1.2454060e+03   4.9661500e+01
   1.2458880e+03   3.4619140e+01
   1.2463700e+03   5.8324710e+01
   1.2468520e+03   8.5795650e+01
   1.2473350e+03   7.7639770e+01
   1.2478170e+03   4.9186040e+01
   1.2482990e+03   3.1323360e+01
   1.2487810e+03   2.8321170e+01
   1.2492630e+03   3.8491210e+01
   1.2497450e+03   6.3765500e+01
   1.2502270e+03   8.4920780e+01
   1.2507090e+03   8.3445680e+01
   1.2511920e+03   7.9609860e+01
   1.2516740e+03   7.0871580e+01
   1.2521560e+03   6.1263920e+01
   1.2526380e+03   6.2592040e+01
   1.2531200e+03   8.2818120e+01
   1.2536020e+03   8.4476070e+01
   1.2540840e+03   6.6381230e+01
   1.2545660e+03   4.5387820e+01
   1.2550480e+03   2.8599730e+01
   1.2555310e+03   1.8922000e+01
   1.2560130e+03   2.3482790e+01
   1.2564950e+03   3.6218020e+01
   1.2569770e+03   4.7432860e+01
   1.2574590e+03   5.8272830e+01
   1.2579410e+03   5.9946040e+01
   1.2584230e+03   5.0448360e+01
   1.2589050e+03   4.0006470e+01
   1.2593870e+03   3.8854250e+01
   1.2598700e+03   3.7508060e+01
   1.2603520e+03   2.7686890e+01
   1.2608340e+03   1.3121090e+01
   1.2613160e+03   9.5017090e+00
   1.2617980e+03   1.8111570e+01
   1.2622800e+03   2.5627930e+01
   1.2627620e+03   2.9457640e+01
   1.2632440e+03   3.3455930e+01
   1.2637260e+03   4.7963500e+01
   1.2642090e+03   5.7060910e+01
   1.2646910e+03   3.9802250e+01
   1.2651730e+03   6.1992190e+00
   1.2656550e+03   7.6297610e+00
   1.2661370e+03   4.2173710e+01
   1.2666190e+03   6.3735600e+01
   1.2671010e+03   5.6197630e+01
   1.2675830e+03   4.5777590e+01
   1.2680660e+03   5.3902590e+01
   1.2685480e+03   6.3105470e+01
   1.2690300e+03   6.1112670e+01
   1.2695120e+03   4.9438600e+01
   1.2699940e+03   3.3227540e+01
   1.2704760e+03   1.3640620e+01
   1.2709580e+03   3.0529800e-01
   1.2714400e+03   1.7092290e+00
   1.2719220e+03   2.1203600e-01
   1.2724050e+03   2.1499020e+00
   1.2728870e+03   5.7255860e+00
   1.2733690e+03   1.1218020e+01
   1.2738510e+03   1.5883910e+01
   1.2743330e+03   2.2755130e+01
   1.2748150e+03   2.8853520e+01
   1.2752970e+03   2.6787960e+01
   1.2757790e+03   0.0000000e+00
   1.5000000e+03   0.0000000e+00
