   1.0000000e+02   0.0000000e+00
   1.5377970e+02   0.0000000e+00
   1.5426190e+02   3.9257800e-01
   1.5474400e+02   9.5559080e+00
   1.5522610e+02   4.1726320e+01
   1.5570820e+02   6.2344730e+01
   1.5619030e+02   5.8907230e+01
   1.5667240e+02   4.3660890e+01
   1.5715460e+02   3.0924560e+01
   1.5763670e+02   2.3717040e+01
   1.5811880e+02   1.8681880e+01
   1.5860090e+02   1.4915280e+01
   1.5908300e+02   1.0769530e+01
   1.5956520e+02   8.8806150e+00
   1.6004730e+02   1.2103760e+01
   1.6052940e+02   1.8066410e+01
   1.6101150e+02   2.2011470e+01
   1.6149360e+02   2.2841060e+01
   1.6197570e+02   2.1110840e+01
   1.6245790e+02   1.6222900e+01
   1.6294000e+02   3.5449220e+00
   1.6342210e+02   4.7441410e+00
   1.6390420e+02   2.0078130e+00
   1.6438630e+02   9.4406740e+00
   1.6486840e+02   2.1971680e+01
   1.6535060e+02   3.7767330e+01
   1.6583270e+02   5.0342770e+01
   1.6631480e+02   5.3747310e+01
   1.6679690e+02   3.4203120e+01
   1.6727900e+02   1.7269530e+01
   1.6776110e+02   2.0798830e+01
   1.6824330e+02   4.2570070e+01
   1.6872540e+02   6.2913090e+01
   1.6920750e+02   6.5924320e+01
   1.6968960e+02   6.2478270e+01
   1.7017170e+02   6.5287600e+01
   1.7065380e+02   8.9933350e+01
   1.7113600e+02   1.1552270e+02
   1.7161810e+02   1.2523460e+02
   1.7210020e+02   1.1850510e+02
   1.7258230e+02   1.0563230e+02
   1.7306440e+02   8.6509520e+01
   1.7354650e+02   6.6902830e+01
   1.7402870e+02   5.6876220e+01
   1.7451080e+02   6.6988770e+01
   1.7499290e+02   8.6311770e+01
   1.7547500e+02   1.0025880e+02
   1.7595710e+02   1.0569600e+02
   1.7643920e+02   1.1856030e+02
   1.7692140e+02   1.6617240e+02
   1.7740350e+02   2.3550900e+02
   1.7788560e+02   2.9113040e+02
   1.7836770e+02   2.9220410e+02
   1.7884980e+02   2.7232010e+02
   1.7933190e+02   2.9115920e+02
   1.7981410e+02   3.6780690e+02
   1.8029620e+02   4.5353270e+02
   1.8077830e+02   4.8489330e+02
   1.8126040e+02   4.6972580e+02
   1.8174250e+02   4.5310790e+02
   1.8222460e+02   4.6241750e+02
   1.8270680e+02   4.9177440e+02
   1.8318890e+02   5.2896780e+02
   1.8367100e+02   5.7351710e+02
   1.8415310e+02   6.2203540e+02
   1.8463520e+02   6.6304740e+02
   1.8511730e+02   6.9792290e+02
   1.8559950e+02   7.4417870e+02
   1.8608160e+02   8.1524950e+02
   1.8656370e+02   9.0872660e+02
   1.8704580e+02   1.0184930e+03
   1.8752790e+02   1.1430610e+03
   1.8801000e+02   1.2822970e+03
   1.8849220e+02   1.4334780e+03
   1.8897430e+02   1.5981870e+03
   1.8945640e+02   1.7720560e+03
   1.8993850e+02   1.9374600e+03
   1.9042060e+02   2.1006110e+03
   1.9090270e+02   2.3053780e+03
   1.9138490e+02   2.5456710e+03
   1.9186700e+02   2.8399650e+03
   1.9234910e+02   3.3169900e+03
   1.9283120e+02   4.0214140e+03
   1.9331330e+02   4.7104800e+03
   1.9379550e+02   5.1923140e+03
   1.9427760e+02   5.4636330e+03
   1.9475970e+02   5.3557640e+03
   1.9524180e+02   4.6330810e+03
   1.9572390e+02   3.3970680e+03
   1.9620600e+02   2.4087350e+03
   1.9668820e+02   1.6929530e+03
   1.9717030e+02   1.1859630e+03
   1.9765240e+02   8.2246480e+02
   1.9813450e+02   6.1229420e+02
   1.9861660e+02   4.6851660e+02
   1.9909870e+02   3.6860570e+02
   1.9958090e+02   3.1259250e+02
   2.0006300e+02   2.7179250e+02
   2.0054510e+02   2.4941940e+02
   2.0102720e+02   2.3673510e+02
   2.0150930e+02   2.1496580e+02
   2.0199140e+02   1.8154590e+02
   2.0247360e+02   1.5353520e+02
   2.0295570e+02   1.4304130e+02
   2.0343780e+02   1.5219920e+02
   2.0391990e+02   1.5170430e+02
   2.0440200e+02   1.3604880e+02
   2.0488410e+02   1.1340450e+02
   2.0536630e+02   1.0904390e+02
   2.0584840e+02   1.2854150e+02
   2.0633050e+02   1.4761280e+02
   2.0681260e+02   1.5074150e+02
   2.0729470e+02   1.3512870e+02
   2.0777680e+02   1.2087520e+02
   2.0825900e+02   1.0989940e+02
   2.0874110e+02   1.0142310e+02
   2.0922320e+02   9.1719240e+01
   2.0970530e+02   7.8717040e+01
   2.1018740e+02   6.9471680e+01
   2.1066950e+02   7.1449950e+01
   2.1115170e+02   8.9208250e+01
   2.1163380e+02   9.6698240e+01
   2.1211590e+02   8.7756840e+01
   2.1259800e+02   6.6625000e+01
   2.1308010e+02   5.9098880e+01
   2.1356220e+02   7.0153560e+01
   2.1404440e+02   8.5469240e+01
   2.1452650e+02   9.4022220e+01
   2.1500860e+02   9.5312010e+01
   2.1549070e+02   9.1497560e+01
   2.1597280e+02   8.1821040e+01
   2.1645490e+02   6.6290040e+01
   2.1693710e+02   5.1392090e+01
   2.1741920e+02   3.3842770e+01
   2.1790130e+02   2.1930180e+01
   2.1838340e+02   2.7179440e+01
   2.1886550e+02   5.9904540e+01
   2.1934760e+02   8.0953610e+01
   2.1982980e+02   7.7120120e+01
   2.2031190e+02   4.8042970e+01
   2.2079400e+02   3.7150880e+01
   2.2127610e+02   5.2521970e+01
   2.2175820e+02   7.6811040e+01
   2.2224030e+02   9.0426030e+01
   2.2272250e+02   8.6867920e+01
   2.2320460e+02   8.6989260e+01
   2.2368670e+02   9.7755860e+01
   2.2416880e+02   1.2099880e+02
   2.2465090e+02   1.3456180e+02
   2.2513300e+02   1.3406150e+02
   2.2561520e+02   1.2819360e+02
   2.2609730e+02   1.2837600e+02
   2.2657940e+02   1.3731840e+02
   2.2706150e+02   1.4656960e+02
   2.2754360e+02   1.5325950e+02
   2.2802570e+02   1.5655370e+02
   2.2850790e+02   1.6408110e+02
   2.2899000e+02   1.8245510e+02
   2.2947210e+02   2.0016280e+02
   2.2995420e+02   1.9891360e+02
   2.3043630e+02   1.6849390e+02
   2.3091850e+02   1.3782910e+02
   2.3140060e+02   1.1618020e+02
   2.3188270e+02   1.0673490e+02
   2.3236480e+02   9.3131100e+01
   2.3284690e+02   7.2843260e+01
   2.3332900e+02   4.9782470e+01
   2.3381120e+02   2.9880370e+01
   2.3429330e+02   1.1024660e+01
   2.3477540e+02   1.0227050e+00
   2.3525750e+02   1.9274900e+00
   2.3573960e+02   1.5087400e+01
   2.3622170e+02   2.0393310e+01
   2.3670390e+02   6.8193360e+00
   2.3718600e+02   1.5127440e+01
   2.3766810e+02   2.3396000e+01
   2.3815020e+02   8.6088870e+00
   2.3863230e+02   5.0227050e+00
   2.3911440e+02   7.5483400e+00
   2.3959660e+02   7.8769530e+00
   2.4007870e+02   1.5801270e+01
   2.4056080e+02   1.3457030e+01
   2.4104290e+02   4.6257320e+00
   2.4152500e+02   2.0112300e+00
   2.4200710e+02   3.9787600e+00
   2.4248930e+02   7.5605470e+00
   2.4297140e+02   1.6718510e+01
   2.4345350e+02   3.9118160e+01
   2.4393560e+02   4.8741700e+01
   2.4441770e+02   3.8942380e+01
   2.4489980e+02   1.8034420e+01
   2.4538200e+02   8.8796390e+00
   2.4586410e+02   1.9841310e+01
   2.4634620e+02   3.0270750e+01
   2.4682830e+02   2.9522950e+01
   2.4731040e+02   9.6406250e+00
   2.4779250e+02   2.4670410e+00
   2.4827470e+02   5.3437500e+00
   2.4875680e+02   4.6801800e-01
   2.4923890e+02   9.4228520e+00
   2.4972100e+02   3.0584960e+01
   2.5020310e+02   4.7283200e+01
   2.5068520e+02   5.0409180e+01
   2.5116740e+02   3.1495850e+01
   2.5164950e+02   1.9950930e+01
   2.5213160e+02   1.9710690e+01
   2.5261370e+02   2.6270260e+01
   2.5309580e+02   2.5251460e+01
   2.5357790e+02   1.1895260e+01
   2.5406010e+02   6.9677700e-01
   2.5454220e+02   6.1972660e+00
   2.5502430e+02   4.8837890e+00
   2.5550640e+02   9.2114300e-01
   2.5598850e+02   7.7336430e+00
   2.5647060e+02   2.0232180e+01
   2.5695280e+02   3.1696780e+01
   2.5743490e+02   4.2216310e+01
   2.5791700e+02   4.8881840e+01
   2.5839910e+02   4.9441410e+01
   2.5888120e+02   4.0647460e+01
   2.5936330e+02   3.3452640e+01
   2.5984550e+02   2.8359620e+01
   2.6032760e+02   2.5417970e+01
   2.6080970e+02   2.5222900e+01
   2.6129180e+02   2.9254880e+01
   2.6177390e+02   3.3368410e+01
   2.6225600e+02   3.4694820e+01
   2.6273820e+02   3.1305910e+01
   2.6322030e+02   3.1301510e+01
   2.6370240e+02   3.6426760e+01
   2.6418450e+02   4.4979250e+01
   2.6466660e+02   5.1517820e+01
   2.6514870e+02   5.5844970e+01
   2.6563090e+02   5.8392820e+01
   2.6611300e+02   5.9510990e+01
   2.6659510e+02   5.9603030e+01
   2.6707720e+02   5.6573490e+01
   2.6755930e+02   4.9043700e+01
   2.6804140e+02   3.8718260e+01
   2.6852360e+02   3.1098630e+01
   2.6900570e+02   2.5867680e+01
   2.6948780e+02   2.4014890e+01
   2.6996990e+02   2.7424800e+01
   2.7045200e+02   3.7869870e+01
   2.7093410e+02   4.5644290e+01
   2.7141630e+02   5.0847170e+01
   2.7189840e+02   5.2448240e+01
   2.7238050e+02   4.3308350e+01
   2.7286260e+02   1.6968260e+01
   2.7334470e+02   1.1777340e+00
   2.7382680e+02   9.8295900e+00
   2.7430900e+02   5.5804440e+01
   2.7479110e+02   8.9726560e+01
   2.7527320e+02   1.0499880e+02
   2.7575530e+02   1.0685940e+02
   2.7623740e+02   1.0760010e+02
   2.7671950e+02   1.0633570e+02
   2.7720170e+02   1.0755270e+02
   2.7768380e+02   1.1640970e+02
   2.7816590e+02   1.3404760e+02
   2.7864800e+02   1.4308280e+02
   2.7913010e+02   1.3694410e+02
   2.7961220e+02   1.2609640e+02
   2.8009440e+02   1.4124540e+02
   2.8057650e+02   1.8734810e+02
   2.8105860e+02   2.3093650e+02
   2.8154070e+02   2.4595850e+02
   2.8202290e+02   2.3208940e+02
   2.8250500e+02   2.3220730e+02
   2.8298710e+02   2.5193360e+02
   2.8346920e+02   2.8516940e+02
   2.8395130e+02   3.2150680e+02
   2.8443340e+02   3.6125560e+02
   2.8491560e+02   4.0050170e+02
   2.8539770e+02   4.3572410e+02
   2.8587980e+02   4.6740360e+02
   2.8636190e+02   5.0092900e+02
   2.8684400e+02   5.3524800e+02
   2.8732610e+02   5.7434890e+02
   2.8780830e+02   6.2947360e+02
   2.8829040e+02   7.0075510e+02
   2.8877250e+02   7.7358300e+02
   2.8925460e+02   8.5863160e+02
   2.8973670e+02   9.4494070e+02
   2.9021880e+02   9.7111040e+02
   2.9070100e+02   9.2726490e+02
   2.9118310e+02   8.3201780e+02
   2.9166520e+02   6.8776710e+02
   2.9214730e+02   4.9916580e+02
   2.9262940e+02   3.4876730e+02
   2.9311150e+02   3.0797750e+02
   2.9359370e+02   3.4572020e+02
   2.9407580e+02   3.5019480e+02
   2.9455790e+02   3.0545650e+02
   2.9504000e+02   2.4742480e+02
   2.9552210e+02   2.3608450e+02
   2.9600420e+02   2.6317020e+02
   2.9648640e+02   2.7521750e+02
   2.9696850e+02   2.2470650e+02
   2.9745060e+02   1.3941850e+02
   2.9793270e+02   8.7942140e+01
   2.9841480e+02   7.8584470e+01
   2.9889690e+02   8.7542480e+01
   2.9937910e+02   8.9337890e+01
   2.9986120e+02   8.5770750e+01
   3.0034330e+02   8.3166260e+01
   3.0082540e+02   8.3661870e+01
   3.0130750e+02   8.7508060e+01
   3.0178960e+02   9.6702880e+01
   3.0227180e+02   1.1236500e+02
   3.0275390e+02   1.2729100e+02
   3.0323600e+02   1.3714430e+02
   3.0371810e+02   1.4099340e+02
   3.0420020e+02   1.3664580e+02
   3.0468230e+02   1.1827780e+02
   3.0516450e+02   9.3243410e+01
   3.0564660e+02   6.8248290e+01
   3.0612870e+02   4.2940430e+01
   3.0661080e+02   2.3417240e+01
   3.0709290e+02   1.8245850e+01
   3.0757500e+02   2.1785400e+01
   3.0805720e+02   2.3577640e+01
   3.0853930e+02   1.3744140e+01
   3.0902140e+02   3.4875490e+00
   3.0950350e+02   6.6408690e+00
   3.0998560e+02   2.4079350e+01
   3.1046770e+02   3.5567870e+01
   3.1094990e+02   1.9537110e+01
   3.1143200e+02   8.8142090e+00
   3.1191410e+02   2.8578860e+01
   3.1239620e+02   2.1953120e+01
   3.1287830e+02   1.1945560e+01
   3.1336040e+02   1.6370850e+01
   3.1384260e+02   3.4825680e+01
   3.1432470e+02   4.8699220e+01
   3.1480680e+02   4.8968020e+01
   3.1528890e+02   3.9051030e+01
   3.1577100e+02   2.2634030e+01
   3.1625310e+02   8.8132320e+00
   3.1673530e+02   3.8097170e+01
   3.1721740e+02   5.7824460e+01
   3.1769950e+02   6.8292970e+01
   3.1818160e+02   7.3486570e+01
   3.1866370e+02   7.3778560e+01
   3.1914580e+02   7.0038090e+01
   3.1962800e+02   6.2966800e+01
   3.2011010e+02   3.8549320e+01
   3.2059220e+02   2.5263180e+01
   3.2107430e+02   3.7162350e+01
   3.2155640e+02   6.9940920e+01
   3.2203850e+02   9.9454100e+01
   3.2252070e+02   1.1727220e+02
   3.2300280e+02   1.3136430e+02
   3.2348490e+02   1.4643430e+02
   3.2396700e+02   1.6492770e+02
   3.2444910e+02   1.8260670e+02
   3.2493120e+02   1.9885450e+02
   3.2541340e+02   2.1381010e+02
   3.2589550e+02   2.2799190e+02
   3.2637760e+02   2.2912010e+02
   3.2685970e+02   2.3871260e+02
   3.2734180e+02   2.6774730e+02
   3.2782390e+02   3.4042750e+02
   3.2830610e+02   3.9878320e+02
   3.2878820e+02   4.3360790e+02
   3.2927030e+02   4.5323000e+02
   3.2975240e+02   4.7901490e+02
   3.3023450e+02   5.1583030e+02
   3.3071660e+02   5.5409690e+02
   3.3119880e+02   5.9202540e+02
   3.3168090e+02   6.3598680e+02
   3.3216300e+02   6.6465940e+02
   3.3264510e+02   6.7527340e+02
   3.3312720e+02   6.7156590e+02
   3.3360930e+02   6.5987210e+02
   3.3409150e+02   6.3723710e+02
   3.3457360e+02   6.1117360e+02
   3.3505570e+02   5.8401510e+02
   3.3553780e+02   5.5633250e+02
   3.3601990e+02   5.2563010e+02
   3.3650200e+02   4.9196170e+02
   3.3698420e+02   4.5500930e+02
   3.3746630e+02   4.1123610e+02
   3.3794840e+02   3.5428910e+02
   3.3843050e+02   3.0772660e+02
   3.3891260e+02   2.7925290e+02
   3.3939470e+02   2.6911940e+02
   3.3987690e+02   2.6172020e+02
   3.4035900e+02   2.5689430e+02
   3.4084110e+02   2.5503490e+02
   3.4132320e+02   2.5429350e+02
   3.4180530e+02   2.5344600e+02
   3.4228740e+02   2.6529930e+02
   3.4276960e+02   2.9694090e+02
   3.4325170e+02   3.4465920e+02
   3.4373380e+02   3.8464310e+02
   3.4421590e+02   4.1603660e+02
   3.4469800e+02   4.4886230e+02
   3.4518010e+02   5.0093090e+02
   3.4566230e+02   5.7062790e+02
   3.4614440e+02   6.2817110e+02
   3.4662650e+02   6.6088350e+02
   3.4710860e+02   6.8264990e+02
   3.4759070e+02   7.2961550e+02
   3.4807280e+02   8.0015040e+02
   3.4855500e+02   8.7480520e+02
   3.4903710e+02   9.4097730e+02
   3.4951920e+02   1.0002720e+03
   3.5000130e+02   1.0566210e+03
   3.5048340e+02   1.1079480e+03
   3.5096550e+02   1.1616360e+03
   3.5144770e+02   1.2213280e+03
   3.5192980e+02   1.2901640e+03
   3.5241190e+02   1.3794520e+03
   3.5289400e+02   1.5083980e+03
   3.5337620e+02   1.6596700e+03
   3.5385830e+02   1.7992240e+03
   3.5434040e+02   1.9176270e+03
   3.5482250e+02   2.0430810e+03
   3.5530460e+02   2.2121440e+03
   3.5578670e+02   2.4099720e+03
   3.5626890e+02   2.6009010e+03
   3.5675100e+02   2.7601220e+03
   3.5723310e+02   2.9088640e+03
   3.5771520e+02   3.0620740e+03
   3.5819730e+02   3.2193660e+03
   3.5867940e+02   3.3894380e+03
   3.5916160e+02   3.5980570e+03
   3.5964370e+02   3.8189250e+03
   3.6012580e+02   4.0152500e+03
   3.6060790e+02   4.1926940e+03
   3.6109000e+02   4.3254750e+03
   3.6157210e+02   4.4102040e+03
   3.6205430e+02   4.4458780e+03
   3.6253640e+02   4.4010200e+03
   3.6301850e+02   4.2324910e+03
   3.6350060e+02   3.9906760e+03
   3.6398270e+02   3.7232960e+03
   3.6446480e+02   3.4331990e+03
   3.6494700e+02   3.1260720e+03
   3.6542910e+02   2.7792550e+03
   3.6591120e+02   2.4061940e+03
   3.6639330e+02   2.0788030e+03
   3.6687540e+02   1.8272810e+03
   3.6735750e+02   1.6134100e+03
   3.6783970e+02   1.4179380e+03
   3.6832180e+02   1.2278510e+03
   3.6880390e+02   1.0669540e+03
   3.6928600e+02   9.4149190e+02
   3.6976810e+02   8.4645070e+02
   3.7025020e+02   7.6544040e+02
   3.7073240e+02   7.0268380e+02
   3.7121450e+02   6.4915160e+02
   3.7169660e+02   6.0189010e+02
   3.7217870e+02   5.6274070e+02
   3.7266080e+02   5.2721850e+02
   3.7314290e+02   4.9673880e+02
   3.7362510e+02   4.7042380e+02
   3.7410720e+02   4.4543480e+02
   3.7458930e+02   4.1589670e+02
   3.7507140e+02   3.9511770e+02
   3.7555350e+02   3.8819430e+02
   3.7603560e+02   3.9566700e+02
   3.7651780e+02   4.1029960e+02
   3.7699990e+02   4.3674490e+02
   3.7748200e+02   4.6212990e+02
   3.7796410e+02   4.6776170e+02
   3.7844620e+02   4.4984670e+02
   3.7892830e+02   4.3863820e+02
   3.7941050e+02   4.4644870e+02
   3.7989260e+02   4.6654660e+02
   3.8037470e+02   4.6664840e+02
   3.8085680e+02   4.4497780e+02
   3.8133890e+02   4.1444190e+02
   3.8182100e+02   3.8285720e+02
   3.8230320e+02   3.5087700e+02
   3.8278530e+02   3.2158330e+02
   3.8326740e+02   2.9573320e+02
   3.8374950e+02   2.7291110e+02
   3.8423160e+02   2.5440800e+02
   3.8471370e+02   2.3963180e+02
   3.8519590e+02   2.2498850e+02
   3.8567800e+02   2.0756450e+02
   3.8616010e+02   1.8858860e+02
   3.8664220e+02   1.7060300e+02
   3.8712430e+02   1.5335060e+02
   3.8760640e+02   1.3872190e+02
   3.8808860e+02   1.2948460e+02
   3.8857070e+02   1.2410180e+02
   3.8905280e+02   1.1889110e+02
   3.8953490e+02   1.1275930e+02
   3.9001700e+02   1.0585860e+02
   3.9049910e+02   9.8104000e+01
   3.9098130e+02   8.9007810e+01
   3.9146340e+02   7.7176270e+01
   3.9194550e+02   5.5245360e+01
   3.9242760e+02   3.1813230e+01
   3.9290970e+02   1.7807130e+01
   3.9339180e+02   2.4027340e+01
   3.9387400e+02   3.4340820e+01
   3.9435610e+02   4.4120360e+01
   3.9483820e+02   5.2680660e+01
   3.9532030e+02   5.5548100e+01
   3.9580240e+02   4.3982670e+01
   3.9628450e+02   3.0380370e+01
   3.9676670e+02   2.3455810e+01
   3.9724880e+02   3.4659910e+01
   3.9773090e+02   4.0259770e+01
   3.9821300e+02   2.9211180e+01
   3.9869510e+02   8.3352050e+00
   3.9917720e+02   8.6230500e-01
   3.9965940e+02   2.4291260e+01
   4.0014150e+02   4.3835450e+01
   4.0062360e+02   3.9775390e+01
   4.0110570e+02   8.2453610e+00
   4.0158780e+02   3.0598630e+01
   4.0206990e+02   1.0434080e+01
   4.0255210e+02   2.7181640e+01
   4.0303420e+02   4.5130370e+01
   4.0351630e+02   3.4648440e+01
   4.0399840e+02   1.9635250e+01
   4.0448050e+02   3.1186520e+00
   4.0496260e+02   1.5006350e+01
   4.0544480e+02   1.9297360e+01
   4.0592690e+02   4.0092770e+00
   4.0640900e+02   1.4563960e+01
   4.0689110e+02   1.9121580e+01
   4.0737320e+02   7.0590820e+00
   4.0785530e+02   1.0688480e+00
   4.0833750e+02   3.1250000e-01
   4.0881960e+02   6.1376950e+00
   4.0930170e+02   8.2041020e+00
   4.0978380e+02   5.5629880e+00
   4.1026590e+02   2.1972660e+00
   4.1074800e+02   1.1464840e+00
   4.1123020e+02   3.4941410e+00
   4.1171230e+02   2.5629880e+00
   4.1219440e+02   2.0786130e+01
   4.1267650e+02   3.8915040e+01
   4.1315860e+02   3.7542480e+01
   4.1364070e+02   2.0365720e+01
   4.1412290e+02   3.7490230e+00
   4.1460500e+02   7.6826170e+00
   4.1508710e+02   1.2332520e+01
   4.1556920e+02   5.4311520e+00
   4.1605130e+02   1.3668460e+01
   4.1653340e+02   3.4744140e+01
   4.1701560e+02   5.5183590e+01
   4.1749770e+02   7.1498540e+01
   4.1797980e+02   7.8127440e+01
   4.1846190e+02   5.5135740e+01
   4.1894400e+02   3.8277830e+01
   4.1942610e+02   5.3061520e+01
   4.1990830e+02   9.5207030e+01
   4.2039040e+02   1.3647800e+02
   4.2087250e+02   1.6768360e+02
   4.2135460e+02   1.9229200e+02
   4.2183670e+02   2.0884860e+02
   4.2231880e+02   2.0653170e+02
   4.2280100e+02   2.1208400e+02
   4.2328310e+02   2.3917630e+02
   4.2376520e+02   2.7830860e+02
   4.2424730e+02   3.0970750e+02
   4.2472950e+02   3.2735550e+02
   4.2521160e+02   3.4015330e+02
   4.2569370e+02   3.4677440e+02
   4.2617580e+02   3.4011180e+02
   4.2665790e+02   3.5551950e+02
   4.2714000e+02   4.0493020e+02
   4.2762220e+02   4.6869430e+02
   4.2810430e+02   5.2775200e+02
   4.2858640e+02   5.7838720e+02
   4.2906850e+02   6.3127540e+02
   4.2955060e+02   6.8672610e+02
   4.3003270e+02   7.4506490e+02
   4.3051490e+02   8.1538130e+02
   4.3099700e+02   9.0636520e+02
   4.3147910e+02   9.8825880e+02
   4.3196120e+02   1.0431850e+03
   4.3244330e+02   1.0717970e+03
   4.3292540e+02   1.0719290e+03
   4.3340760e+02   1.0422870e+03
   4.3388970e+02   9.8542630e+02
   4.3437180e+02   8.9945020e+02
   4.3485390e+02   7.8499950e+02
   4.3533600e+02   6.6410840e+02
   4.3581810e+02   5.3929390e+02
   4.3630030e+02   4.1778220e+02
   4.3678240e+02   3.2070650e+02
   4.3726450e+02   2.4979590e+02
   4.3774660e+02   1.9423970e+02
   4.3822870e+02   1.4215230e+02
   4.3871080e+02   9.7481930e+01
   4.3919300e+02   6.8985840e+01
   4.3967510e+02   6.2017090e+01
   4.4015720e+02   7.0481930e+01
   4.4063930e+02   9.5092290e+01
   4.4112140e+02   1.3276420e+02
   4.4160350e+02   1.6826810e+02
   4.4208570e+02   2.1301760e+02
   4.4256780e+02   2.4028120e+02
   4.4304990e+02   2.2073930e+02
   4.4353200e+02   1.2632280e+02
   4.4401410e+02   4.1793950e+01
   4.4449620e+02   4.4990230e+00
   4.4497840e+02   1.6342770e+00
   4.4546050e+02   3.5366210e+00
   4.4594260e+02   4.7851560e+00
   4.4642470e+02   5.9438480e+00
   4.4690680e+02   8.9604490e+00
   4.4738890e+02   1.5086430e+01
   4.4787110e+02   1.3521970e+01
   4.4835320e+02   1.1474610e+00
   4.4883530e+02   1.7483890e+01
   4.4931740e+02   4.0126950e+01
   4.4979950e+02   7.4880370e+01
   4.5028160e+02   1.0003610e+02
   4.5076380e+02   1.1191600e+02
   4.5124590e+02   1.1266550e+02
   4.5172800e+02   1.0774710e+02
   4.5221010e+02   9.1868650e+01
   4.5269220e+02   8.2878910e+01
   4.5317430e+02   9.6621580e+01
   4.5365650e+02   1.3752780e+02
   4.5413860e+02   1.4917630e+02
   4.5462070e+02   1.2146290e+02
   4.5510280e+02   8.5518550e+01
   4.5558490e+02   8.9514650e+01
   4.5606700e+02   1.3102690e+02
   4.5654920e+02   1.7007470e+02
   4.5703130e+02   1.9503080e+02
   4.5751340e+02   2.0698970e+02
   4.5799550e+02   1.9799220e+02
   4.5847760e+02   1.6902390e+02
   4.5895970e+02   1.4800200e+02
   4.5944190e+02   1.6781790e+02
   4.5992400e+02   2.1022560e+02
   4.6040610e+02   2.3707760e+02
   4.6088820e+02   2.3176170e+02
   4.6137030e+02   2.2708640e+02
   4.6185240e+02   2.5709280e+02
   4.6233460e+02   3.0974710e+02
   4.6281670e+02   3.5584470e+02
   4.6329880e+02   3.7384180e+02
   4.6378090e+02   3.8907470e+02
   4.6426300e+02   4.1698780e+02
   4.6474510e+02   4.5951660e+02
   4.6522730e+02   5.0007130e+02
   4.6570940e+02   5.2917630e+02
   4.6619150e+02   5.5504200e+02
   4.6667360e+02   5.8530910e+02
   4.6715570e+02   6.3874320e+02
   4.6763780e+02   6.7630710e+02
   4.6812000e+02   6.9411960e+02
   4.6860210e+02   6.9207130e+02
   4.6908420e+02   6.6852440e+02
   4.6956630e+02   6.1439990e+02
   4.7004840e+02   5.5018650e+02
   4.7053050e+02   4.8214890e+02
   4.7101270e+02   4.0759570e+02
   4.7149480e+02   3.3755660e+02
   4.7197690e+02   2.6785550e+02
   4.7245900e+02   2.0656300e+02
   4.7294110e+02   1.7043900e+02
   4.7342320e+02   1.6490920e+02
   4.7390540e+02   1.5496290e+02
   4.7438750e+02   1.2908500e+02
   4.7486960e+02   9.1181640e+01
   4.7535170e+02   5.2295410e+01
   4.7583380e+02   1.1368160e+01
   4.7631590e+02   1.4994630e+01
   4.7679810e+02   1.9184570e+00
   4.7728020e+02   4.4983400e+01
   4.7776230e+02   5.6701660e+01
   4.7824440e+02   2.0834960e+01
   4.7872650e+02   2.3239260e+01
   4.7920860e+02   2.7442870e+01
   4.7969080e+02   3.4609380e+00
   4.8017290e+02   1.9602050e+01
   4.8065500e+02   2.9383790e+01
   4.8113710e+02   3.1233400e+01
   4.8161920e+02   2.6639160e+01
   4.8210130e+02   1.6019530e+01
   4.8258350e+02   8.0122070e+00
   4.8306560e+02   6.7089840e+00
   4.8354770e+02   1.0114260e+01
   4.8402980e+02   1.6897460e+01
   4.8451190e+02   3.2417970e+01
   4.8499400e+02   4.3700200e+01
   4.8547620e+02   4.7819820e+01
   4.8595830e+02   4.5771970e+01
   4.8644040e+02   4.0123050e+01
   4.8692250e+02   2.5980470e+01
   4.8740460e+02   1.3162600e+01
   4.8788670e+02   2.3803710e+00
   4.8836890e+02   8.1513670e+00
   4.8885100e+02   4.1655270e+00
   4.8933310e+02   2.2971190e+01
   4.8981520e+02   5.4267580e+01
   4.9029730e+02   7.0450200e+01
   4.9077940e+02   6.7962400e+01
   4.9126160e+02   6.4826170e+01
   4.9174370e+02   6.3316890e+01
   4.9222580e+02   6.3335940e+01
   4.9270790e+02   6.4051760e+01
   4.9319000e+02   6.5312500e+01
   4.9367220e+02   6.9880860e+01
   4.9415430e+02   8.1897950e+01
   4.9463640e+02   9.8791500e+01
   4.9511850e+02   1.1105270e+02
   4.9560060e+02   1.1764160e+02
   4.9608280e+02   1.2259230e+02
   4.9656490e+02   1.2995900e+02
   4.9704700e+02   1.3856740e+02
   4.9752910e+02   1.4576120e+02
   4.9801120e+02   1.4936380e+02
   4.9849330e+02   1.5266020e+02
   4.9897550e+02   1.5393460e+02
   4.9945760e+02   1.5591500e+02
   4.9993970e+02   1.6898540e+02
   5.0042180e+02   2.1099320e+02
   5.0090390e+02   2.5652540e+02
   5.0138600e+02   2.8867330e+02
   5.0186820e+02   3.0017140e+02
   5.0235030e+02   3.1439360e+02
   5.0283240e+02   3.4278710e+02
   5.0331450e+02   3.7340970e+02
   5.0379660e+02   3.9348290e+02
   5.0427870e+02   3.8963720e+02
   5.0476090e+02   3.9146920e+02
   5.0524300e+02   4.0761130e+02
   5.0572510e+02   4.3488570e+02
   5.0620720e+02   4.4902250e+02
   5.0668930e+02   4.4560640e+02
   5.0717140e+02   4.3487890e+02
   5.0765360e+02   4.2324560e+02
   5.0813570e+02   4.1200100e+02
   5.0861780e+02   3.9848830e+02
   5.0909990e+02   3.8020800e+02
   5.0958200e+02   3.5879790e+02
   5.1006410e+02   3.3593120e+02
   5.1054630e+02   3.1199610e+02
   5.1102840e+02   2.9307080e+02
   5.1151050e+02   2.8237110e+02
   5.1199260e+02   2.7819680e+02
   5.1247470e+02   2.7779390e+02
   5.1295680e+02   2.7927640e+02
   5.1343900e+02   2.7680130e+02
   5.1392110e+02   2.6342040e+02
   5.1440320e+02   2.4863230e+02
   5.1488530e+02   2.4233690e+02
   5.1536740e+02   2.4383060e+02
   5.1584950e+02   2.4646390e+02
   5.1633170e+02   2.5295750e+02
   5.1681380e+02   2.5786620e+02
   5.1729590e+02   2.5366110e+02
   5.1777800e+02   2.2148540e+02
   5.1826010e+02   1.9630660e+02
   5.1874220e+02   1.9777730e+02
   5.1922440e+02   2.2113040e+02
   5.1970650e+02   2.3056400e+02
   5.2018860e+02   2.0343460e+02
   5.2067070e+02   1.7784910e+02
   5.2115280e+02   1.7300290e+02
   5.2163490e+02   2.0470950e+02
   5.2211710e+02   2.1528960e+02
   5.2259920e+02   1.9648000e+02
   5.2308130e+02   1.6467580e+02
   5.2356340e+02   1.4105080e+02
   5.2404550e+02   1.2672510e+02
   5.2452760e+02   1.1456590e+02
   5.2500980e+02   1.0262160e+02
   5.2549190e+02   9.2557130e+01
   5.2597400e+02   8.7405760e+01
   5.2645610e+02   8.6548830e+01
   5.2693820e+02   8.6627440e+01
   5.2742030e+02   8.5401370e+01
   5.2790250e+02   8.3847660e+01
   5.2838460e+02   8.5274900e+01
   5.2886670e+02   9.0742190e+01
   5.2934880e+02   9.4899900e+01
   5.2983090e+02   8.8624510e+01
   5.3031300e+02   7.8350100e+01
   5.3079520e+02   7.4481450e+01
   5.3127730e+02   8.9564450e+01
   5.3175940e+02   1.0439550e+02
   5.3224150e+02   1.0852100e+02
   5.3272360e+02   1.0347950e+02
   5.3320570e+02   9.5685060e+01
   5.3368790e+02   8.2583500e+01
   5.3417000e+02   7.0024900e+01
   5.3465210e+02   6.2992680e+01
   5.3513420e+02   6.2074710e+01
   5.3561630e+02   6.3172360e+01
   5.3609840e+02   6.9618650e+01
   5.3658060e+02   7.4379390e+01
   5.3706270e+02   7.2000980e+01
   5.3754480e+02   6.1206050e+01
   5.3802690e+02   5.0121580e+01
   5.3850900e+02   3.8011720e+01
   5.3899110e+02   2.7334960e+01
   5.3947330e+02   2.8878910e+01
   5.3995540e+02   4.4387700e+01
   5.4043750e+02   5.9551760e+01
   5.4091960e+02   6.7020020e+01
   5.4140170e+02   6.7674800e+01
   5.4188390e+02   6.3928710e+01
   5.4236600e+02   5.5381840e+01
   5.4284810e+02   4.6812500e+01
   5.4333020e+02   4.1569820e+01
   5.4381230e+02   3.9662110e+01
   5.4429440e+02   4.1791990e+01
   5.4477660e+02   5.1670410e+01
   5.4525870e+02   5.9906740e+01
   5.4574080e+02   5.5049320e+01
   5.4622290e+02   4.2078120e+01
   5.4670500e+02   3.4832030e+01
   5.4718710e+02   4.7375980e+01
   5.4766930e+02   5.9209960e+01
   5.4815140e+02   5.6765140e+01
   5.4863350e+02   3.6932620e+01
   5.4911560e+02   2.8011230e+01
   5.4959770e+02   5.0964360e+01
   5.5007980e+02   7.4839840e+01
   5.5056200e+02   7.7508790e+01
   5.5104410e+02   4.3237300e+01
   5.5152620e+02   1.8789060e+01
   5.5200830e+02   7.7373050e+00
   5.5249040e+02   6.1953130e+00
   5.5297250e+02   6.6738280e+00
   5.5345470e+02   8.7514650e+00
   5.5393680e+02   1.5542970e+01
   5.5441890e+02   3.1021000e+01
   5.5490100e+02   5.1573730e+01
   5.5538310e+02   6.2856930e+01
   5.5586520e+02   6.4808590e+01
   5.5634740e+02   6.0838380e+01
   5.5682950e+02   4.9349610e+01
   5.5731160e+02   3.4523930e+01
   5.5779370e+02   2.6240720e+01
   5.5827580e+02   2.7302250e+01
   5.5875790e+02   2.8377440e+01
   5.5924010e+02   1.7172360e+01
   5.5972220e+02   1.6650390e+00
   5.6020430e+02   5.7270510e+00
   5.6068640e+02   5.5566410e+00
   5.6116850e+02   2.0263670e+01
   5.6165060e+02   3.7102540e+01
   5.6213280e+02   5.3589840e+01
   5.6261490e+02   5.7557620e+01
   5.6309700e+02   3.0963380e+01
   5.6357910e+02   5.2768550e+00
   5.6406120e+02   5.2373050e+00
   5.6454330e+02   5.4384770e+00
   5.6502550e+02   6.6806640e+00
   5.6550760e+02   1.1340330e+01
   5.6598970e+02   2.7158200e+01
   5.6647180e+02   1.1575200e+01
   5.6695390e+02   4.4045410e+01
   5.6743600e+02   7.3709470e+01
   5.6791820e+02   6.0887210e+01
   5.6840030e+02   2.3655760e+01
   5.6888240e+02   4.8349610e+00
   5.6936450e+02   2.4304200e+01
   5.6984660e+02   3.4051760e+01
   5.7032870e+02   2.4078610e+01
   5.7081090e+02   7.4672850e+00
   5.7129300e+02   1.3706540e+01
   5.7177510e+02   4.1626460e+01
   5.7225720e+02   5.6994630e+01
   5.7273930e+02   1.9690430e+01
   5.7322140e+02   3.4255370e+01
   5.7370360e+02   6.7959960e+01
   5.7418570e+02   6.9612790e+01
   5.7466780e+02   6.0177250e+01
   5.7514990e+02   3.5796880e+01
   5.7563200e+02   7.8974610e+00
   5.7611410e+02   7.0361330e+00
   5.7659630e+02   6.4726560e+00
   5.7707840e+02   1.8939450e+01
   5.7756050e+02   2.5973630e+01
   5.7804260e+02   2.7774900e+01
   5.7852470e+02   2.5315430e+01
   5.7900680e+02   1.6204100e+01
   5.7948900e+02   7.7407230e+00
   5.7997110e+02   4.0444340e+00
   5.8045320e+02   5.4272460e+00
   5.8093530e+02   6.7270510e+00
   5.8141740e+02   8.4326170e+00
   5.8189950e+02   8.0053710e+00
   5.8238170e+02   6.6015600e-01
   5.8286380e+02   1.4488280e+01
   5.8334590e+02   2.1709960e+01
   5.8382800e+02   1.8048340e+01
   5.8431010e+02   9.5502930e+00
   5.8479220e+02   4.4716800e+00
   5.8527440e+02   1.9043000e-01
   5.8575650e+02   1.0190430e+01
   5.8623860e+02   3.9375980e+01
   5.8672070e+02   6.7752930e+01
   5.8720280e+02   8.5009280e+01
   5.8768490e+02   9.0663570e+01
   5.8816710e+02   8.7596190e+01
   5.8864920e+02   6.5821290e+01
   5.8913130e+02   4.3143550e+01
   5.8961340e+02   3.0710940e+01
   5.9009550e+02   3.2603520e+01
   5.9057760e+02   3.6118650e+01
   5.9105980e+02   4.3136720e+01
   5.9154190e+02   5.0085940e+01
   5.9202400e+02   5.1683110e+01
   5.9250610e+02   4.6785160e+01
   5.9298820e+02   4.2370120e+01
   5.9347030e+02   4.0448730e+01
   5.9395250e+02   3.9479490e+01
   5.9443460e+02   3.2978030e+01
   5.9491670e+02   2.1731450e+01
   5.9539880e+02   1.6756350e+01
   5.9588090e+02   3.2207030e+01
   5.9636300e+02   5.5059570e+01
   5.9684520e+02   6.2624020e+01
   5.9732730e+02   5.4148930e+01
   5.9780940e+02   4.3399900e+01
   5.9829150e+02   3.9479000e+01
   5.9877360e+02   3.7799320e+01
   5.9925570e+02   3.2635250e+01
   5.9973790e+02   1.6278810e+01
   6.0022000e+02   9.8383790e+00
   6.0070210e+02   3.0066410e+01
   6.0118430e+02   6.1311520e+01
   6.0166640e+02   7.8391600e+01
   6.0214850e+02   6.9539060e+01
   6.0263060e+02   6.1547850e+01
   6.0311270e+02   5.9309570e+01
   6.0359480e+02   6.1439450e+01
   6.0407700e+02   6.0722170e+01
   6.0455910e+02   5.6291020e+01
   6.0504120e+02   5.1811520e+01
   6.0552330e+02   4.7217290e+01
   6.0600540e+02   4.3284180e+01
   6.0648750e+02   5.0305660e+01
   6.0696970e+02   6.9354000e+01
   6.0745180e+02   8.7880370e+01
   6.0793390e+02   9.2941890e+01
   6.0841600e+02   8.8689450e+01
   6.0889810e+02   8.1748050e+01
   6.0938020e+02   7.0283690e+01
   6.0986240e+02   6.4820310e+01
   6.1034450e+02   8.5058110e+01
   6.1082660e+02   1.1465480e+02
   6.1130870e+02   1.2660210e+02
   6.1179080e+02   8.7418950e+01
   6.1227290e+02   5.3263180e+01
   6.1275510e+02   4.6311520e+01
   6.1323720e+02   6.3440430e+01
   6.1371930e+02   7.9363770e+01
   6.1420140e+02   9.3695310e+01
   6.1468350e+02   1.0587450e+02
   6.1516560e+02   1.1611520e+02
   6.1564780e+02   1.2479050e+02
   6.1612990e+02   1.2716500e+02
   6.1661200e+02   1.2196000e+02
   6.1709410e+02   1.1358980e+02
   6.1757620e+02   1.0277730e+02
   6.1805830e+02   9.0483400e+01
   6.1854050e+02   9.0754390e+01
   6.1902260e+02   1.0889160e+02
   6.1950470e+02   1.2771040e+02
   6.1998680e+02   1.2320900e+02
   6.2046890e+02   1.0250980e+02
   6.2095100e+02   8.2957520e+01
   6.2143320e+02   6.6102540e+01
   6.2191530e+02   5.7269530e+01
   6.2239740e+02   6.7986330e+01
   6.2287950e+02   9.2458980e+01
   6.2336160e+02   1.0803910e+02
   6.2384380e+02   9.6195800e+01
   6.2432590e+02   8.5691890e+01
   6.2480800e+02   9.0889160e+01
   6.2529010e+02   1.1423440e+02
   6.2577220e+02   1.3168750e+02
   6.2625430e+02   1.4426420e+02
   6.2673650e+02   1.4901420e+02
   6.2721860e+02   1.4148490e+02
   6.2770070e+02   1.1989060e+02
   6.2818280e+02   1.0241990e+02
   6.2866490e+02   8.9886230e+01
   6.2914700e+02   8.2934570e+01
   6.2962920e+02   8.5974610e+01
   6.3011130e+02   9.7815920e+01
   6.3059340e+02   1.1182230e+02
   6.3107550e+02   1.2475200e+02
   6.3155760e+02   1.3503320e+02
   6.3203970e+02   1.4262840e+02
   6.3252190e+02   1.4748930e+02
   6.3300400e+02   1.4930960e+02
   6.3348610e+02   1.4282570e+02
   6.3396820e+02   1.3677780e+02
   6.3445030e+02   1.4128910e+02
   6.3493240e+02   1.5658590e+02
   6.3541460e+02   1.6218120e+02
   6.3589670e+02   1.3926460e+02
   6.3637880e+02   1.1734860e+02
   6.3686090e+02   1.1266210e+02
   6.3734300e+02   1.3157470e+02
   6.3782510e+02   1.5143990e+02
   6.3830730e+02   1.7535600e+02
   6.3878940e+02   1.9528520e+02
   6.3927150e+02   1.9726510e+02
   6.3975360e+02   1.8103710e+02
   6.4023570e+02   1.7247800e+02
   6.4071780e+02   1.7760690e+02
   6.4120000e+02   1.8955470e+02
   6.4168210e+02   1.9630270e+02
   6.4216420e+02   2.0067870e+02
   6.4264630e+02   2.1113180e+02
   6.4312840e+02   2.4609570e+02
   6.4361050e+02   2.7797750e+02
   6.4409270e+02   2.7578120e+02
   6.4457480e+02   2.4556300e+02
   6.4505690e+02   2.2644240e+02
   6.4553900e+02   2.4678320e+02
   6.4602110e+02   2.7138820e+02
   6.4650320e+02   2.8146340e+02
   6.4698540e+02   2.7103760e+02
   6.4746750e+02   2.6123880e+02
   6.4794960e+02   2.4615580e+02
   6.4843170e+02   2.3835350e+02
   6.4891380e+02   2.5157860e+02
   6.4939590e+02   2.9082710e+02
   6.4987810e+02   3.1968650e+02
   6.5036020e+02   3.3265720e+02
   6.5084230e+02   3.3921680e+02
   6.5132440e+02   3.5301370e+02
   6.5180650e+02   3.7303320e+02
   6.5228860e+02   3.9452250e+02
   6.5277080e+02   4.1713960e+02
   6.5325290e+02   4.3895700e+02
   6.5373500e+02   4.5647610e+02
   6.5421710e+02   4.7127490e+02
   6.5469920e+02   4.8793020e+02
   6.5518130e+02   4.9942970e+02
   6.5566350e+02   5.2185690e+02
   6.5614560e+02   5.7062500e+02
   6.5662770e+02   6.4609280e+02
   6.5710980e+02   7.0926120e+02
   6.5759190e+02   7.4447360e+02
   6.5807400e+02   7.7686520e+02
   6.5855620e+02   8.1723100e+02
   6.5903830e+02   8.6631490e+02
   6.5952040e+02   9.2223290e+02
   6.6000250e+02   9.8052830e+02
   6.6048460e+02   1.0529160e+03
   6.6096670e+02   1.1503420e+03
   6.6144890e+02   1.2740630e+03
   6.6193100e+02   1.4312460e+03
   6.6241310e+02   1.6350840e+03
   6.6289520e+02   1.8391550e+03
   6.6337730e+02   1.9626520e+03
   6.6385940e+02   2.0417470e+03
   6.6434160e+02   2.1527050e+03
   6.6482370e+02   2.3368090e+03
   6.6530580e+02   2.5506850e+03
   6.6578790e+02   2.7803660e+03
   6.6627000e+02   3.0226880e+03
   6.6675210e+02   3.2671370e+03
   6.6723430e+02   3.4886910e+03
   6.6771640e+02   3.7307750e+03
   6.6819850e+02   4.0114630e+03
   6.6868060e+02   4.3285880e+03
   6.6916270e+02   4.6455040e+03
   6.6964480e+02   4.9535140e+03
   6.7012700e+02   5.2807410e+03
   6.7060910e+02   5.6544400e+03
   6.7109120e+02   6.0732730e+03
   6.7157330e+02   6.4784900e+03
   6.7205540e+02   6.8668820e+03
   6.7253750e+02   7.2401580e+03
   6.7301970e+02   7.5993250e+03
   6.7350180e+02   7.9445160e+03
   6.7398390e+02   8.2820830e+03
   6.7446600e+02   8.6294990e+03
   6.7494810e+02   8.9145040e+03
   6.7543020e+02   9.1042020e+03
   6.7591240e+02   9.2003400e+03
   6.7639450e+02   9.2090930e+03
   6.7687660e+02   9.1452050e+03
   6.7735870e+02   8.9764730e+03
   6.7784080e+02   8.6791050e+03
   6.7832290e+02   8.2726030e+03
   6.7880510e+02   7.8039620e+03
   6.7928720e+02   7.2583070e+03
   6.7976930e+02   6.6885570e+03
   6.8025140e+02   6.1056630e+03
   6.8073350e+02   5.5146830e+03
   6.8121560e+02   4.9630550e+03
   6.8169780e+02   4.4461310e+03
   6.8217990e+02   3.9810590e+03
   6.8266200e+02   3.5833790e+03
   6.8314410e+02   3.2419700e+03
   6.8362620e+02   2.9364350e+03
   6.8410830e+02   2.6682300e+03
   6.8459050e+02   2.4261540e+03
   6.8507260e+02   2.2119370e+03
   6.8555470e+02   2.0182850e+03
   6.8603680e+02   1.8414490e+03
   6.8651890e+02   1.6801510e+03
   6.8700100e+02   1.5369200e+03
   6.8748320e+02   1.4231260e+03
   6.8796530e+02   1.3208720e+03
   6.8844740e+02   1.2118870e+03
   6.8892950e+02   1.0872000e+03
   6.8941160e+02   9.8415530e+02
   6.8989370e+02   9.1314790e+02
   6.9037590e+02   8.5942580e+02
   6.9085800e+02   7.9087550e+02
   6.9134010e+02   7.0990430e+02
   6.9182220e+02   6.4565140e+02
   6.9230430e+02   6.1620510e+02
   6.9278640e+02   6.0100730e+02
   6.9326860e+02   5.6876560e+02
   6.9375070e+02   5.2469480e+02
   6.9423280e+02   4.8853810e+02
   6.9471490e+02   4.7704930e+02
   6.9519700e+02   4.6956640e+02
   6.9567910e+02   4.5705370e+02
   6.9616130e+02   4.3882810e+02
   6.9664340e+02   4.1044580e+02
   6.9712550e+02   3.5934230e+02
   6.9760760e+02   3.1011430e+02
   6.9808970e+02   2.7203660e+02
   6.9857180e+02   2.4576320e+02
   6.9905400e+02   2.3381200e+02
   6.9953610e+02   2.4235550e+02
   7.0001820e+02   2.4648580e+02
   7.0050030e+02   2.1121000e+02
   7.0098240e+02   1.4808010e+02
   7.0146450e+02   1.1800680e+02
   7.0194670e+02   1.3369580e+02
   7.0242880e+02   1.5614450e+02
   7.0291090e+02   1.4329880e+02
   7.0339300e+02   1.1346920e+02
   7.0387510e+02   9.4311040e+01
   7.0435720e+02   1.0175780e+02
   7.0483940e+02   1.0984470e+02
   7.0532150e+02   1.0895700e+02
   7.0580360e+02   1.0212350e+02
   7.0628570e+02   9.5089360e+01
   7.0676780e+02   8.8845210e+01
   7.0724990e+02   8.1270020e+01
   7.0773210e+02   7.0492190e+01
   7.0821420e+02   5.8551270e+01
   7.0869630e+02   5.5229490e+01
   7.0917840e+02   6.2104490e+01
   7.0966050e+02   6.1747560e+01
   7.1014260e+02   4.0411620e+01
   7.1062480e+02   8.9736330e+00
   7.1110690e+02   6.1982420e+00
   7.1158900e+02   6.6699220e+00
   7.1207110e+02   2.4545900e+00
   7.1255320e+02   3.4726560e+00
   7.1303530e+02   8.9111330e+00
   7.1351750e+02   1.2198240e+01
   7.1399960e+02   1.3238280e+01
   7.1448170e+02   1.1916500e+01
   7.1496380e+02   8.5849610e+00
   7.1544590e+02   2.4414060e+00
   7.1592800e+02   8.4521480e+00
   7.1641020e+02   2.9139160e+01
   7.1689230e+02   3.6470700e+01
   7.1737440e+02   2.5963870e+01
   7.1785650e+02   1.0646970e+01
   7.1833860e+02   4.9858400e+00
   7.1882070e+02   7.7031250e+00
   7.1930290e+02   1.9008790e+00
   7.1978500e+02   1.7457030e+01
   7.2026710e+02   3.4703610e+01
   7.2074920e+02   2.6848630e+01
   7.2123130e+02   4.7211910e+00
   7.2171340e+02   1.2046390e+01
   7.2219560e+02   1.4274900e+01
   7.2267770e+02   1.4368160e+01
   7.2315980e+02   2.0449710e+01
   7.2364190e+02   2.8029790e+01
   7.2412400e+02   2.8197750e+01
   7.2460610e+02   1.0266110e+01
   7.2508830e+02   2.2050780e+00
   7.2557040e+02   2.9379880e+00
   7.2605250e+02   3.7568360e+00
   7.2653460e+02   2.5957030e+00
   7.2701670e+02   7.6069340e+00
   7.2749880e+02   1.6236820e+01
   7.2798100e+02   1.7181640e+01
   7.2846310e+02   1.4195310e+01
   7.2894520e+02   1.9936040e+01
   7.2942730e+02   3.2092290e+01
   7.2990940e+02   3.5824220e+01
   7.3039150e+02   8.2465820e+00
   7.3087370e+02   2.1462400e+01
   7.3135580e+02   2.7435060e+01
   7.3183790e+02   8.0097660e+00
   7.3232000e+02   1.0171880e+01
   7.3280210e+02   1.6653320e+01
   7.3328420e+02   2.2572270e+01
   7.3376640e+02   3.5121580e+01
   7.3424850e+02   5.7664550e+01
   7.3473060e+02   6.9453610e+01
   7.3521270e+02   6.8253420e+01
   7.3569480e+02   6.1562500e+01
   7.3617690e+02   5.2957030e+01
   7.3665910e+02   4.3513670e+01
   7.3714120e+02   4.4528320e+01
   7.3762330e+02   5.9129390e+01
   7.3810540e+02   6.8885740e+01
   7.3858750e+02   4.3021970e+01
   7.3906960e+02   5.0922850e+00
   7.3955180e+02   9.2514650e+00
   7.4003390e+02   2.0378420e+01
   7.4051610e+02   4.9971680e+01
   7.4099820e+02   6.5691890e+01
   7.4148030e+02   7.0725100e+01
   7.4196240e+02   6.8160160e+01
   7.4244450e+02   4.6671880e+01
   7.4292660e+02   4.0321290e+01
   7.4340880e+02   5.8816890e+01
   7.4389090e+02   8.8349120e+01
   7.4437300e+02   1.0280370e+02
   7.4485510e+02   1.0203220e+02
   7.4533720e+02   9.2459960e+01
   7.4581930e+02   7.1316410e+01
   7.4630150e+02   4.8935550e+01
   7.4678360e+02   4.4293950e+01
   7.4726570e+02   5.2130370e+01
   7.4774780e+02   5.6678710e+01
   7.4822990e+02   4.2470210e+01
   7.4871200e+02   3.0236330e+01
   7.4919420e+02   3.3853520e+01
   7.4967630e+02   5.0377440e+01
   7.5015840e+02   6.2868650e+01
   7.5064050e+02   6.6187500e+01
   7.5112260e+02   6.9192870e+01
   7.5160470e+02   7.5082520e+01
   7.5208690e+02   8.3306150e+01
   7.5256900e+02   8.7039060e+01
   7.5305110e+02   8.5393550e+01
   7.5353320e+02   8.6082030e+01
   7.5401530e+02   9.9187500e+01
   7.5449740e+02   1.1700200e+02
   7.5497960e+02   1.1889310e+02
   7.5546170e+02   1.0533400e+02
   7.5594380e+02   9.2006840e+01
   7.5642590e+02   8.2190430e+01
   7.5690800e+02   8.1795900e+01
   7.5739010e+02   1.0322170e+02
   7.5787230e+02   1.5574850e+02
   7.5835440e+02   1.8139400e+02
   7.5883650e+02   1.4958150e+02
   7.5931860e+02   1.0699660e+02
   7.5980070e+02   7.8344240e+01
   7.6028280e+02   6.3576660e+01
   7.6076500e+02   6.6534180e+01
   7.6124710e+02   9.1993650e+01
   7.6172920e+02   1.1933150e+02
   7.6221130e+02   1.2425590e+02
   7.6269340e+02   1.1332030e+02
   7.6317550e+02   1.0695750e+02
   7.6365770e+02   1.0876950e+02
   7.6413980e+02   1.1412450e+02
   7.6462190e+02   1.2110890e+02
   7.6510400e+02   1.2656880e+02
   7.6558610e+02   1.2823290e+02
   7.6606820e+02   1.2217140e+02
   7.6655040e+02   1.1748730e+02
   7.6703250e+02   1.1621240e+02
   7.6751460e+02   1.1676510e+02
   7.6799670e+02   1.1771440e+02
   7.6847880e+02   1.2022610e+02
   7.6896090e+02   1.2201370e+02
   7.6944310e+02   1.2209570e+02
   7.6992520e+02   1.2093070e+02
   7.7040730e+02   1.1371580e+02
   7.7088940e+02   1.0462650e+02
   7.7137150e+02   1.1379540e+02
   7.7185360e+02   1.6027930e+02
   7.7233580e+02   2.0805130e+02
   7.7281790e+02   2.1944970e+02
   7.7330000e+02   2.1024560e+02
   7.7378210e+02   2.1115670e+02
   7.7426420e+02   2.4547950e+02
   7.7474630e+02   2.7433250e+02
   7.7522850e+02   2.8584720e+02
   7.7571060e+02   2.8705220e+02
   7.7619270e+02   2.9304930e+02
   7.7667480e+02   3.0164500e+02
   7.7715690e+02   3.2199120e+02
   7.7763900e+02   3.5802640e+02
   7.7812120e+02   4.0595070e+02
   7.7860330e+02   4.6091850e+02
   7.7908540e+02   5.2056300e+02
   7.7956750e+02   5.7343650e+02
   7.8004960e+02   6.1270360e+02
   7.8053170e+02   6.4450340e+02
   7.8101390e+02   6.6707620e+02
   7.8149600e+02   6.8438230e+02
   7.8197810e+02   7.1564160e+02
   7.8246020e+02   7.7970750e+02
   7.8294230e+02   8.4712940e+02
   7.8342440e+02   9.0649120e+02
   7.8390660e+02   9.5874610e+02
   7.8438870e+02   1.0240350e+03
   7.8487080e+02   1.1097450e+03
   7.8535290e+02   1.1785070e+03
   7.8583500e+02   1.2054290e+03
   7.8631710e+02   1.1996800e+03
   7.8679930e+02   1.1908970e+03
   7.8728140e+02   1.1792450e+03
   7.8776350e+02   1.1664550e+03
   7.8824560e+02   1.1518470e+03
   7.8872770e+02   1.1364360e+03
   7.8920980e+02   1.1238090e+03
   7.8969200e+02   1.1155700e+03
   7.9017410e+02   1.1074780e+03
   7.9065620e+02   1.0962180e+03
   7.9113830e+02   1.0862110e+03
   7.9162040e+02   1.0802210e+03
   7.9210250e+02   1.0789150e+03
   7.9258470e+02   1.0752850e+03
   7.9306680e+02   1.0706970e+03
   7.9354890e+02   1.0578850e+03
   7.9403100e+02   1.0336140e+03
   7.9451310e+02   9.9643800e+02
   7.9499520e+02   9.3814500e+02
   7.9547740e+02   8.5763380e+02
   7.9595950e+02   7.7539400e+02
   7.9644160e+02   7.0377340e+02
   7.9692370e+02   6.3794820e+02
   7.9740580e+02   5.7528710e+02
   7.9788790e+02   5.1766110e+02
   7.9837010e+02   4.5650340e+02
   7.9885220e+02   3.7537110e+02
   7.9933430e+02   3.0606010e+02
   7.9981640e+02   2.7619430e+02
   8.0029850e+02   2.9238130e+02
   8.0078060e+02   2.9877000e+02
   8.0126280e+02   2.9506300e+02
   8.0174490e+02   2.7715480e+02
   8.0222700e+02   2.2772850e+02
   8.0270910e+02   1.6450150e+02
   8.0319120e+02   1.2501420e+02
   8.0367330e+02   1.1855270e+02
   8.0415550e+02   1.1503660e+02
   8.0463760e+02   9.1568360e+01
   8.0511970e+02   6.5080570e+01
   8.0560180e+02   5.1569820e+01
   8.0608390e+02   6.3943850e+01
   8.0656600e+02   6.9300780e+01
   8.0704820e+02   6.5418460e+01
   8.0753030e+02   5.7273930e+01
   8.0801240e+02   4.7022460e+01
   8.0849450e+02   3.4658200e+01
   8.0897660e+02   3.4767580e+01
   8.0945870e+02   5.1017580e+01
   8.0994090e+02   6.9593260e+01
   8.1042300e+02   7.9078120e+01
   8.1090510e+02   7.9737790e+01
   8.1138720e+02   6.9822270e+01
   8.1186930e+02   4.2985840e+01
   8.1235140e+02   2.1903810e+01
   8.1283360e+02   2.1783200e+01
   8.1331570e+02   2.9321780e+01
   8.1379780e+02   2.9417480e+01
   8.1427990e+02   1.6648930e+01
   8.1476200e+02   7.4570310e+00
   8.1524410e+02   2.3164060e+00
   8.1572630e+02   1.3574220e+00
   8.1620840e+02   7.4023440e+00
   8.1669050e+02   1.8875490e+01
   8.1717260e+02   2.5119140e+01
   8.1765470e+02   2.2963380e+01
   8.1813680e+02   1.9202150e+01
   8.1861900e+02   2.1053220e+01
   8.1910110e+02   2.5062500e+01
   8.1958320e+02   2.6752440e+01
   8.2006530e+02   2.6021970e+01
   8.2054740e+02   2.0964840e+01
   8.2102950e+02   2.8598630e+00
   8.2151170e+02   1.4750980e+01
   8.2199380e+02   1.5247070e+01
   8.2247590e+02   6.6503910e+00
   8.2295800e+02   2.2824710e+01
   8.2344010e+02   3.0076660e+01
   8.2392220e+02   3.0232420e+01
   8.2440440e+02   2.3721190e+01
   8.2488650e+02   1.2168950e+01
   8.2536860e+02   1.2104490e+00
   8.2585070e+02   1.7994140e+01
   8.2633280e+02   2.9914060e+01
   8.2681490e+02   2.8716310e+01
   8.2729710e+02   2.0279790e+01
   8.2777920e+02   1.2113770e+01
   8.2826130e+02   3.6972660e+00
   8.2874340e+02   1.4174800e+00
   8.2922550e+02   9.2187500e-01
   8.2970760e+02   5.3271500e-01
   8.3018980e+02   5.4511720e+00
   8.3067190e+02   1.8805180e+01
   8.3115400e+02   2.5024410e+01
   8.3163610e+02   1.9667970e+01
   8.3211820e+02   1.2225590e+01
   8.3260030e+02   1.7277830e+01
   8.3308250e+02   2.7387210e+01
   8.3356460e+02   2.9136720e+01
   8.3404670e+02   9.4873050e+00
   8.3452880e+02   3.0336910e+00
   8.3501090e+02   9.8007810e+00
   8.3549300e+02   3.1573730e+01
   8.3597520e+02   3.7783690e+01
   8.3645730e+02   1.4886720e+01
   8.3693940e+02   1.9302250e+01
   8.3742150e+02   6.8403320e+01
   8.3790360e+02   1.2183060e+02
   8.3838570e+02   1.1052390e+02
   8.3886790e+02   5.1408200e+01
   8.3935000e+02   1.2157230e+01
   8.3983210e+02   1.1278810e+01
   8.4031420e+02   2.6198730e+01
   8.4079630e+02   5.4429200e+01
   8.4127840e+02   8.1622560e+01
   8.4176060e+02   8.9333980e+01
   8.4224270e+02   5.1494140e+01
   8.4272480e+02   2.4891110e+01
   8.4320690e+02   1.3440430e+01
   8.4368900e+02   1.3933110e+01
   8.4417110e+02   2.7106450e+01
   8.4465330e+02   5.4254390e+01
   8.4513540e+02   6.8440920e+01
   8.4561750e+02   6.4692870e+01
   8.4609960e+02   5.2719240e+01
   8.4658170e+02   3.8024410e+01
   8.4706380e+02   2.4761230e+01
   8.4754600e+02   2.1731450e+01
   8.4802810e+02   3.5948730e+01
   8.4851020e+02   4.7670900e+01
   8.4899230e+02   4.1992190e+01
   8.4947440e+02   3.3760250e+01
   8.4995650e+02   3.9876460e+01
   8.5043870e+02   7.1079100e+01
   8.5092080e+02   9.0235350e+01
   8.5140290e+02   9.6044920e+01
   8.5188500e+02   8.9287600e+01
   8.5236710e+02   5.9950200e+01
   8.5284920e+02   1.7410640e+01
   8.5333140e+02   3.2226600e-01
   8.5381350e+02   1.8372560e+01
   8.5429560e+02   4.2159180e+01
   8.5477770e+02   5.1612790e+01
   8.5525980e+02   5.3207030e+01
   8.5574190e+02   5.3369630e+01
   8.5622410e+02   5.2238280e+01
   8.5670620e+02   5.1982910e+01
   8.5718830e+02   5.3254880e+01
   8.5767040e+02   5.4789550e+01
   8.5815250e+02   5.3933590e+01
   8.5863460e+02   5.0405270e+01
   8.5911680e+02   5.7334960e+01
   8.5959890e+02   7.7018070e+01
   8.6008100e+02   9.5320800e+01
   8.6056310e+02   9.5309080e+01
   8.6104520e+02   8.6874510e+01
   8.6152730e+02   8.3268070e+01
   8.6200950e+02   8.5383300e+01
   8.6249160e+02   8.9255860e+01
   8.6297370e+02   9.6012210e+01
   8.6345580e+02   1.0224560e+02
   8.6393790e+02   1.0622950e+02
   8.6442000e+02   1.0795210e+02
   8.6490220e+02   1.0341020e+02
   8.6538430e+02   8.9878910e+01
   8.6586640e+02   8.0793950e+01
   8.6634850e+02   9.2327640e+01
   8.6683060e+02   1.1604690e+02
   8.6731270e+02   1.3325930e+02
   8.6779490e+02   1.4278660e+02
   8.6827700e+02   1.4177150e+02
   8.6875910e+02   1.1510400e+02
   8.6924120e+02   8.7627440e+01
   8.6972330e+02   7.8873050e+01
   8.7020540e+02   9.1805660e+01
   8.7068760e+02   1.0385160e+02
   8.7116970e+02   1.1705030e+02
   8.7165180e+02   1.2745170e+02
   8.7213390e+02   1.3164010e+02
   8.7261600e+02   1.3058940e+02
   8.7309810e+02   1.3226270e+02
   8.7358030e+02   1.3646340e+02
   8.7406240e+02   1.3719820e+02
   8.7454450e+02   1.2083740e+02
   8.7502660e+02   1.0562550e+02
   8.7550870e+02   1.1510550e+02
   8.7599080e+02   1.4733690e+02
   8.7647300e+02   1.6312300e+02
   8.7695510e+02   1.2810450e+02
   8.7743720e+02   1.0446730e+02
   8.7791930e+02   1.1833200e+02
   8.7840140e+02   1.6131790e+02
   8.7888350e+02   1.7947460e+02
   8.7936570e+02   1.7270170e+02
   8.7984780e+02   1.6127830e+02
   8.8032990e+02   1.4875730e+02
   8.8081200e+02   1.3521000e+02
   8.8129410e+02   1.2507470e+02
   8.8177630e+02   1.1913820e+02
   8.8225840e+02   1.1704350e+02
   8.8274050e+02   1.1620020e+02
   8.8322270e+02   1.2365770e+02
   8.8370480e+02   1.4825930e+02
   8.8418690e+02   1.7895260e+02
   8.8466900e+02   1.8716850e+02
   8.8515110e+02   1.6921340e+02
   8.8563320e+02   1.5185740e+02
   8.8611540e+02   1.4368360e+02
   8.8659750e+02   1.3968600e+02
   8.8707960e+02   1.2765620e+02
   8.8756170e+02   1.1338280e+02
   8.8804380e+02   1.1152200e+02
   8.8852590e+02   1.3624560e+02
   8.8900810e+02   1.5892870e+02
   8.8949020e+02   1.6623240e+02
   8.8997230e+02   1.6447660e+02
   8.9045440e+02   1.6551370e+02
   8.9093650e+02   1.7262010e+02
   8.9141860e+02   1.7424950e+02
   8.9190080e+02   1.6848290e+02
   8.9238290e+02   1.5740190e+02
   8.9286500e+02   1.4070070e+02
   8.9334710e+02   1.2127290e+02
   8.9382920e+02   1.0990430e+02
   8.9431130e+02   1.1138820e+02
   8.9479350e+02   1.1545700e+02
   8.9527560e+02   1.1923000e+02
   8.9575770e+02   1.1957960e+02
   8.9623980e+02   1.1202730e+02
   8.9672190e+02   7.8075200e+01
   8.9720400e+02   6.9176760e+01
   8.9768620e+02   9.6815920e+01
   8.9816830e+02   1.3106980e+02
   8.9865040e+02   1.3959230e+02
   8.9913250e+02   1.2580420e+02
   8.9961460e+02   1.1162740e+02
   9.0009670e+02   9.8820310e+01
   9.0057890e+02   8.8952640e+01
   9.0106100e+02   8.2761230e+01
   9.0154310e+02   8.0174800e+01
   9.0202520e+02   8.3289060e+01
   9.0250730e+02   9.5219240e+01
   9.0298940e+02   9.6355960e+01
   9.0347160e+02   7.0787110e+01
   9.0395370e+02   5.3254390e+01
   9.0443580e+02   7.3105960e+01
   9.0491790e+02   1.2673540e+02
   9.0540000e+02   1.3173630e+02
   9.0588210e+02   8.7687010e+01
   9.0636430e+02   4.4754390e+01
   9.0684640e+02   4.0172360e+01
   9.0732850e+02   5.3639650e+01
   9.0781060e+02   6.8285640e+01
   9.0829270e+02   8.2027340e+01
   9.0877480e+02   8.8059570e+01
   9.0925700e+02   7.7597660e+01
   9.0973910e+02   6.6043460e+01
   9.1022120e+02   5.5956540e+01
   9.1070330e+02   4.8701170e+01
   9.1118540e+02   5.5096190e+01
   9.1166750e+02   7.5714360e+01
   9.1214970e+02   8.8888670e+01
   9.1263180e+02   8.0604000e+01
   9.1311390e+02   6.4260250e+01
   9.1359600e+02   5.6185060e+01
   9.1407810e+02   5.3790530e+01
   9.1456020e+02   5.0696290e+01
   9.1504240e+02   4.1770020e+01
   9.1552450e+02   3.5582030e+01
   9.1600660e+02   3.8789060e+01
   9.1648870e+02   4.3596190e+01
   9.1697080e+02   3.2812500e+01
   9.1745290e+02   4.2475590e+00
   9.1793510e+02   1.7346680e+01
   9.1841720e+02   2.8243160e+01
   9.1889930e+02   2.6730470e+01
   9.1938140e+02   3.4262700e+00
   9.1986350e+02   4.3667970e+01
   9.2034560e+02   6.0269040e+01
   9.2082780e+02   3.0460940e+01
   9.2130990e+02   6.3066410e+00
   9.2179200e+02   6.7519530e+00
   9.2227410e+02   1.7191890e+01
   9.2275620e+02   2.5969240e+01
   9.2323830e+02   3.2922850e+01
   9.2372050e+02   3.8932130e+01
   9.2420260e+02   4.3774410e+01
   9.2468470e+02   4.8962890e+01
   9.2516680e+02   6.3459470e+01
   9.2564890e+02   7.6199710e+01
   9.2613100e+02   6.2252930e+01
   9.2661320e+02   1.7955570e+01
   9.2709530e+02   1.3199710e+01
   9.2757740e+02   8.1171880e+00
   9.2805950e+02   1.0976070e+01
   9.2854160e+02   3.6406740e+01
   9.2902370e+02   6.8069820e+01
   9.2950590e+02   7.9217290e+01
   9.2998800e+02   6.7971190e+01
   9.3047010e+02   5.0163090e+01
   9.3095220e+02   2.8035640e+01
   9.3143430e+02   9.0810550e+00
   9.3191640e+02   1.1635740e+01
   9.3239860e+02   3.0023930e+01
   9.3288070e+02   4.2495120e+01
   9.3336280e+02   3.4065920e+01
   9.3384490e+02   2.3549800e+01
   9.3432700e+02   1.5936520e+01
   9.3480910e+02   1.1648440e+01
   9.3529130e+02   1.5283200e+01
   9.3577340e+02   3.0300780e+01
   9.3625550e+02   2.7617680e+01
   9.3673760e+02   8.2304690e+00
   9.3721970e+02   4.7772950e+01
   9.3770180e+02   4.0953610e+01
   9.3818400e+02   6.2456050e+00
   9.3866610e+02   1.8507810e+01
   9.3914820e+02   1.9997560e+01
   9.3963030e+02   1.4256840e+01
   9.4011240e+02   4.1445310e+00
   9.4059450e+02   2.0662600e+01
   9.4107670e+02   1.9793460e+01
   9.4155880e+02   1.8334960e+00
   9.4204090e+02   2.5368160e+01
   9.4252300e+02   5.1195800e+01
   9.4300510e+02   7.0128420e+01
   9.4348720e+02   7.3725100e+01
   9.4396940e+02   6.4218260e+01
   9.4445150e+02   3.8247560e+01
   9.4493360e+02   5.8559570e+00
   9.4541570e+02   3.3166020e+01
   9.4589780e+02   1.1480470e+01
   9.4637990e+02   1.4085940e+01
   9.4686210e+02   1.8194340e+01
   9.4734420e+02   2.0556640e+00
   9.4782630e+02   3.5302730e+00
   9.4830840e+02   2.4190430e+01
   9.4879050e+02   4.5645510e+01
   9.4927260e+02   5.8195310e+01
   9.4975480e+02   6.4742680e+01
   9.5023690e+02   6.7059080e+01
   9.5071900e+02   6.6826660e+01
   9.5120110e+02   6.9546390e+01
   9.5168320e+02   9.3386230e+01
   9.5216530e+02   9.9782710e+01
   9.5264750e+02   6.6514160e+01
   9.5312960e+02   1.6430180e+01
   9.5361170e+02   1.0590820e+00
   9.5409380e+02   2.1483890e+01
   9.5457590e+02   4.4475590e+01
   9.5505800e+02   6.5397460e+01
   9.5554020e+02   7.7465330e+01
   9.5602230e+02   6.3272950e+01
   9.5650440e+02   3.8312990e+01
   9.5698650e+02   2.5826170e+01
   9.5746860e+02   3.6465820e+01
   9.5795070e+02   4.9826170e+01
   9.5843290e+02   6.6567870e+01
   9.5891500e+02   8.0726070e+01
   9.5939710e+02   8.5854000e+01
   9.5987920e+02   8.1708010e+01
   9.6036130e+02   8.5067380e+01
   9.6084340e+02   9.6866700e+01
   9.6132560e+02   1.0435400e+02
   9.6180770e+02   9.0600590e+01
   9.6228980e+02   7.2217290e+01
   9.6277190e+02   5.7722660e+01
   9.6325400e+02   8.0628910e+01
   9.6373610e+02   9.4037110e+01
   9.6421830e+02   9.8459960e+01
   9.6470040e+02   6.6990720e+01
   9.6518250e+02   8.1859380e+01
   9.6566460e+02   7.8152830e+01
   9.6614670e+02   7.3680180e+01
   9.6662880e+02   9.5060550e+01
   9.6711100e+02   6.8792970e+01
   9.6759310e+02   8.9755860e+01
   9.6807520e+02   9.1858890e+01
   9.6855730e+02   1.0259030e+02
   9.6903940e+02   9.4631350e+01
   9.6952150e+02   9.2440430e+01
   9.7000370e+02   1.0893850e+02
   9.7048580e+02   1.1508350e+02
   9.7096790e+02   1.0496000e+02
   9.7145000e+02   1.1621830e+02
   9.7193210e+02   8.9265140e+01
   9.7241420e+02   9.5835940e+01
   9.7289640e+02   1.1686770e+02
   9.7337850e+02   1.0763770e+02
   9.7386060e+02   1.1920310e+02
   9.7434270e+02   1.2286720e+02
   9.7482480e+02   9.0503420e+01
   9.7530690e+02   1.2031540e+02
   9.7578910e+02   1.2175340e+02
   9.7627120e+02   9.4718260e+01
   9.7675330e+02   1.2047800e+02
   9.7723540e+02   9.9229000e+01
   9.7771750e+02   1.1115480e+02
   9.7819960e+02   1.4244580e+02
   9.7868180e+02   1.5007180e+02
   9.7916390e+02   1.3851170e+02
   9.7964600e+02   1.2695460e+02
   9.8012810e+02   1.2198050e+02
   9.8061020e+02   1.2205520e+02
   9.8109230e+02   1.3236570e+02
   9.8157450e+02   1.4564500e+02
   9.8205660e+02   1.4599850e+02
   9.8253870e+02   1.2970700e+02
   9.8302080e+02   1.2067430e+02
   9.8350290e+02   1.2446580e+02
   9.8398500e+02   1.3227050e+02
   9.8446720e+02   1.3627830e+02
   9.8494930e+02   1.3413480e+02
   9.8543140e+02   1.2260990e+02
   9.8591350e+02   9.5794920e+01
   9.8639560e+02   8.1032710e+01
   9.8687770e+02   9.1133300e+01
   9.8735990e+02   1.1224610e+02
   9.8784200e+02   1.4346680e+02
   9.8832410e+02   1.8494240e+02
   9.8880620e+02   1.9008740e+02
   9.8928830e+02   1.5835740e+02
   9.8977040e+02   1.2994040e+02
   9.9025260e+02   1.3989450e+02
   9.9073470e+02   1.6046970e+02
   9.9121680e+02   1.6450000e+02
   9.9169890e+02   1.5421440e+02
   9.9218100e+02   1.4200980e+02
   9.9266310e+02   1.2767630e+02
   9.9314530e+02   1.1537940e+02
   9.9362740e+02   1.0423240e+02
   9.9410950e+02   9.7469240e+01
   9.9459160e+02   1.0398880e+02
   9.9507370e+02   1.1950100e+02
   9.9555580e+02   1.3406010e+02
   9.9603800e+02   1.4748440e+02
   9.9652010e+02   1.5453560e+02
   9.9700220e+02   1.4468360e+02
   9.9748430e+02   1.2997020e+02
   9.9796640e+02   1.2453960e+02
   9.9844850e+02   1.3618410e+02
   9.9893070e+02   1.2887350e+02
   9.9941280e+02   9.6650390e+01
   9.9989490e+02   6.8599610e+01
   1.0003770e+03   6.8707520e+01
   1.0008590e+03   8.9195310e+01
   1.0013410e+03   1.1981350e+02
   1.0018230e+03   1.5674070e+02
   1.0023050e+03   1.7912110e+02
   1.0027880e+03   1.6378810e+02
   1.0032700e+03   1.4330520e+02
   1.0037520e+03   1.3287350e+02
   1.0042340e+03   1.3087500e+02
   1.0047160e+03   1.3444190e+02
   1.0051980e+03   1.4400830e+02
   1.0056800e+03   1.5007080e+02
   1.0061620e+03   1.4854640e+02
   1.0066450e+03   1.4698100e+02
   1.0071270e+03   1.5807570e+02
   1.0076090e+03   1.7392580e+02
   1.0080910e+03   1.8244920e+02
   1.0085730e+03   1.7777200e+02
   1.0090550e+03   1.7356150e+02
   1.0095370e+03   1.7229980e+02
   1.0100190e+03   1.7069730e+02
   1.0105010e+03   1.6193460e+02
   1.0109840e+03   1.4832370e+02
   1.0114660e+03   1.6255080e+02
   1.0119480e+03   2.0494920e+02
   1.0124300e+03   2.4224560e+02
   1.0129120e+03   2.4709570e+02
   1.0133940e+03   2.3696780e+02
   1.0138760e+03   2.2051710e+02
   1.0143580e+03   2.0037500e+02
   1.0148410e+03   1.3415380e+02
   1.0153230e+03   1.9459420e+02
   1.0158050e+03   2.2765090e+02
   1.0162870e+03   2.3469140e+02
   1.0167690e+03   1.4124800e+02
   1.0172510e+03   1.7756050e+02
   1.0177330e+03   1.6187400e+02
   1.0182150e+03   1.4405620e+02
   1.0186970e+03   1.9863480e+02
   1.0191800e+03   1.1981010e+02
   1.0196620e+03   1.7324220e+02
   1.0201440e+03   1.7388090e+02
   1.0206260e+03   1.9868360e+02
   1.0211080e+03   1.7116550e+02
   1.0215900e+03   1.5981010e+02
   1.0220720e+03   2.0079200e+02
   1.0225540e+03   2.1279740e+02
   1.0230370e+03   1.7925930e+02
   1.0235190e+03   2.0560450e+02
   1.0240010e+03   1.2496390e+02
   1.0244830e+03   1.3820750e+02
   1.0249650e+03   1.9195700e+02
   1.0254470e+03   1.6105710e+02
   1.0259290e+03   1.8847610e+02
   1.0264110e+03   1.9364750e+02
   1.0268930e+03   9.8043950e+01
   1.0273760e+03   1.7764890e+02
   1.0278580e+03   1.8148290e+02
   1.0283400e+03   1.0752050e+02
   1.0288220e+03   1.8112450e+02
   1.0293040e+03   1.1788960e+02
   1.0297860e+03   1.0349950e+02
   1.0302680e+03   1.2587010e+02
   1.0307500e+03   1.0992140e+02
   1.0312330e+03   1.5438870e+02
   1.0317150e+03   1.4065770e+02
   1.0321970e+03   1.2172710e+02
   1.0326790e+03   1.2549170e+02
   1.0331610e+03   6.4954100e+01
   1.0336430e+03   1.2372610e+02
   1.0341250e+03   1.0101710e+02
   1.0346070e+03   1.1882760e+02
   1.0350890e+03   1.4582470e+02
   1.0355720e+03   1.0251810e+02
   1.0360540e+03   1.3368160e+02
   1.0365360e+03   5.0369630e+01
   1.0370180e+03   6.3186040e+01
   1.0375000e+03   6.5076170e+01
   1.0379820e+03   1.2869920e+02
   1.0384640e+03   4.4979000e+01
   1.0389460e+03   5.4590820e+01
   1.0394280e+03   1.0394580e+02
   1.0399110e+03   9.7696290e+01
   1.0403930e+03   1.1469730e+02
   1.0408750e+03   6.2874510e+01
   1.0413570e+03   7.5710450e+01
   1.0418390e+03   7.0725100e+01
   1.0423210e+03   1.2732710e+02
   1.0428030e+03   1.3531880e+02
   1.0432850e+03   8.4684570e+01
   1.0437680e+03   3.4302250e+01
   1.0442500e+03   9.5355470e+01
   1.0447320e+03   5.0791990e+01
   1.0452140e+03   6.3209470e+01
   1.0456960e+03   1.6780760e+01
   1.0461780e+03   6.6099120e+01
   1.0466600e+03   7.1080570e+01
   1.0471420e+03   7.7982420e+01
   1.0476250e+03   8.4057620e+01
   1.0481070e+03   8.9214840e+01
   1.0485890e+03   9.0961910e+01
   1.0490710e+03   8.9137700e+01
   1.0495530e+03   8.9935060e+01
   1.0500350e+03   9.8757320e+01
   1.0505170e+03   1.1134960e+02
   1.0509990e+03   1.3033400e+02
   1.0514810e+03   1.5227540e+02
   1.0519640e+03   1.5317920e+02
   1.0524460e+03   1.2581840e+02
   1.0529280e+03   1.0086820e+02
   1.0534100e+03   8.6863770e+01
   1.0538920e+03   7.8583500e+01
   1.0543740e+03   6.5021970e+01
   1.0548560e+03   5.1819340e+01
   1.0553380e+03   5.2079590e+01
   1.0558200e+03   7.7386720e+01
   1.0563030e+03   9.2567870e+01
   1.0567850e+03   8.0650880e+01
   1.0572670e+03   6.3676760e+01
   1.0577490e+03   5.4924800e+01
   1.0582310e+03   5.3794430e+01
   1.0587130e+03   4.9185060e+01
   1.0591950e+03   4.1596190e+01
   1.0596770e+03   3.7537600e+01
   1.0601600e+03   4.8622070e+01
   1.0606420e+03   5.7255860e+01
   1.0611240e+03   4.3468750e+01
   1.0616060e+03   1.8982910e+01
   1.0620880e+03   1.7711910e+01
   1.0625700e+03   5.3228520e+01
   1.0630520e+03   6.4040530e+01
   1.0635340e+03   3.5183590e+01
   1.0640160e+03   3.8935550e+00
   1.0644990e+03   2.8944340e+01
   1.0649810e+03   7.5313960e+01
   1.0654630e+03   8.0333500e+01
   1.0659450e+03   3.2792970e+01
   1.0664270e+03   3.0742190e+00
   1.0669090e+03   4.4433590e+00
   1.0673910e+03   4.4423830e+00
   1.0678730e+03   2.2224610e+01
   1.0683550e+03   4.0989750e+01
   1.0688380e+03   1.8944820e+01
   1.0693200e+03   3.3873540e+01
   1.0698020e+03   6.2513180e+01
   1.0702840e+03   2.9460940e+01
   1.0707660e+03   5.7167970e+00
   1.0712480e+03   4.2104490e+00
   1.0717300e+03   1.3857420e+01
   1.0722120e+03   2.5458010e+01
   1.0726950e+03   3.2636230e+01
   1.0731770e+03   1.9654790e+01
   1.0736590e+03   1.6551760e+01
   1.0741410e+03   5.2198730e+01
   1.0746230e+03   7.4193360e+01
   1.0751050e+03   8.1392580e+01
   1.0755870e+03   6.0822750e+01
   1.0760690e+03   2.0640620e+01
   1.0765520e+03   3.3818360e+00
   1.0770340e+03   4.0434080e+01
   1.0775160e+03   6.4856450e+01
   1.0779980e+03   6.3370610e+01
   1.0784800e+03   4.7905270e+01
   1.0789620e+03   3.0457520e+01
   1.0794440e+03   1.5935550e+01
   1.0799260e+03   2.4811520e+01
   1.0804080e+03   6.4686520e+01
   1.0808910e+03   9.8310550e+01
   1.0813730e+03   1.1219530e+02
   1.0818550e+03   1.0628220e+02
   1.0823370e+03   7.4754880e+01
   1.0828190e+03   2.1887210e+01
   1.0833010e+03   3.1406250e+00
   1.0837830e+03   5.6103500e-01
   1.0842650e+03   9.3828130e+00
   1.0847470e+03   1.9519040e+01
   1.0852300e+03   3.0480470e+01
   1.0857120e+03   4.2440920e+01
   1.0861940e+03   5.5750980e+01
   1.0866760e+03   7.1969730e+01
   1.0871580e+03   1.0209180e+02
   1.0876400e+03   1.0729880e+02
   1.0881220e+03   7.9708980e+01
   1.0886040e+03   5.1918460e+01
   1.0890870e+03   6.2181150e+01
   1.0895690e+03   8.7567870e+01
   1.0900510e+03   8.0997070e+01
   1.0905330e+03   4.6547360e+01
   1.0910150e+03   2.1233400e+01
   1.0914970e+03   2.9792480e+01
   1.0919790e+03   3.5548830e+01
   1.0924610e+03   2.9775390e+01
   1.0929430e+03   1.7161130e+01
   1.0934260e+03   2.8515600e-01
   1.0939080e+03   1.8278320e+01
   1.0943900e+03   1.0744630e+01
   1.0948720e+03   3.0676760e+01
   1.0953540e+03   7.1910160e+01
   1.0958360e+03   9.4130860e+01
   1.0963180e+03   1.0459330e+02
   1.0968000e+03   1.0607960e+02
   1.0972830e+03   9.9783690e+01
   1.0977650e+03   1.0146730e+02
   1.0982470e+03   1.1209420e+02
   1.0987290e+03   1.1208590e+02
   1.0992110e+03   8.5014160e+01
   1.0996930e+03   5.5780760e+01
   1.1001750e+03   4.8233890e+01
   1.1006570e+03   5.7408690e+01
   1.1011400e+03   7.6929690e+01
   1.1016220e+03   1.2157910e+02
   1.1021040e+03   1.4254350e+02
   1.1025860e+03   1.3608940e+02
   1.1030680e+03   1.1612110e+02
   1.1035500e+03   8.0601070e+01
   1.1040320e+03   4.4912600e+01
   1.1045140e+03   4.5791990e+01
   1.1049960e+03   7.7219730e+01
   1.1054790e+03   1.0597170e+02
   1.1059610e+03   1.2761720e+02
   1.1064430e+03   1.3193160e+02
   1.1069250e+03   1.0737740e+02
   1.1074070e+03   7.6886720e+01
   1.1078890e+03   8.2960940e+01
   1.1083710e+03   1.1761670e+02
   1.1088530e+03   1.4058110e+02
   1.1093350e+03   1.4630860e+02
   1.1098180e+03   1.4177340e+02
   1.1103000e+03   1.2254690e+02
   1.1107820e+03   1.0288960e+02
   1.1112640e+03   8.9569340e+01
   1.1117460e+03   8.3145020e+01
   1.1122280e+03   9.2016110e+01
   1.1127100e+03   1.1696190e+02
   1.1131920e+03   1.2732810e+02
   1.1136750e+03   1.0644340e+02
   1.1141570e+03   8.2332030e+01
   1.1146390e+03   8.5598630e+01
   1.1151210e+03   1.0074020e+02
   1.1156030e+03   1.0837300e+02
   1.1160850e+03   1.0170360e+02
   1.1165670e+03   1.0382520e+02
   1.1170490e+03   1.1741750e+02
   1.1175310e+03   1.3109770e+02
   1.1180140e+03   1.3779930e+02
   1.1184960e+03   1.3966940e+02
   1.1189780e+03   1.3888720e+02
   1.1194600e+03   1.3634770e+02
   1.1199420e+03   1.3394530e+02
   1.1204240e+03   1.3295170e+02
   1.1209060e+03   1.3095410e+02
   1.1213880e+03   1.2699410e+02
   1.1218700e+03   1.2937060e+02
   1.1223530e+03   1.4764650e+02
   1.1228350e+03   1.7217630e+02
   1.1233170e+03   1.6724410e+02
   1.1237990e+03   1.3347270e+02
   1.1242810e+03   1.1093460e+02
   1.1247630e+03   1.3465920e+02
   1.1252450e+03   1.5637110e+02
   1.1257270e+03   1.5487990e+02
   1.1262100e+03   1.4054880e+02
   1.1266920e+03   1.2788180e+02
   1.1271740e+03   1.1689940e+02
   1.1276560e+03   1.2055420e+02
   1.1281380e+03   1.4788280e+02
   1.1286200e+03   1.7754200e+02
   1.1291020e+03   2.0571530e+02
   1.1295840e+03   2.1824460e+02
   1.1300670e+03   1.9071730e+02
   1.1305490e+03   1.2959770e+02
   1.1310310e+03   1.1186820e+02
   1.1315130e+03   1.4116650e+02
   1.1319950e+03   1.5767580e+02
   1.1324770e+03   1.2787210e+02
   1.1329590e+03   9.3663570e+01
   1.1334410e+03   1.0555620e+02
   1.1339230e+03   1.3756980e+02
   1.1344060e+03   1.5184960e+02
   1.1348880e+03   1.3767190e+02
   1.1353700e+03   1.2493850e+02
   1.1358520e+03   1.1240330e+02
   1.1363340e+03   1.0663380e+02
   1.1368160e+03   1.1846390e+02
   1.1372980e+03   1.3604000e+02
   1.1377800e+03   1.4234380e+02
   1.1382620e+03   1.3824320e+02
   1.1387450e+03   1.2636080e+02
   1.1392270e+03   9.3753910e+01
   1.1397090e+03   7.3517580e+01
   1.1401910e+03   6.8377930e+01
   1.1406730e+03   7.5637700e+01
   1.1411550e+03   1.0081690e+02
   1.1416370e+03   1.3418020e+02
   1.1421190e+03   1.5107620e+02
   1.1426020e+03   1.5037110e+02
   1.1430840e+03   1.3845070e+02
   1.1435660e+03   9.6087890e+01
   1.1440480e+03   7.2649410e+01
   1.1445300e+03   9.2587890e+01
   1.1450120e+03   1.2736470e+02
   1.1454940e+03   1.1266410e+02
   1.1459760e+03   6.1202640e+01
   1.1464580e+03   3.3336430e+01
   1.1469410e+03   4.1840820e+01
   1.1474230e+03   5.8202640e+01
   1.1479050e+03   7.8520510e+01
   1.1483870e+03   8.8637210e+01
   1.1488690e+03   7.4060060e+01
   1.1493510e+03   4.3197270e+01
   1.1498330e+03   4.9632810e+01
   1.1503150e+03   8.9920410e+01
   1.1507970e+03   1.1336130e+02
   1.1512800e+03   9.9875490e+01
   1.1517620e+03   7.2935550e+01
   1.1522440e+03   3.4463380e+01
   1.1527260e+03   5.7880860e+00
   1.1532080e+03   1.4032230e+01
   1.1536900e+03   6.5214360e+01
   1.1541720e+03   7.7314940e+01
   1.1546540e+03   4.8418950e+01
   1.1551370e+03   2.4288570e+01
   1.1556190e+03   3.8301270e+01
   1.1561010e+03   6.0559570e+01
   1.1565830e+03   5.8830080e+01
   1.1570650e+03   4.6123050e+01
   1.1575470e+03   4.8137700e+01
   1.1580290e+03   7.6886230e+01
   1.1585110e+03   8.7534180e+01
   1.1589940e+03   7.7077640e+01
   1.1594760e+03   5.9268070e+01
   1.1599580e+03   3.8468750e+01
   1.1604400e+03   2.1762210e+01
   1.1609220e+03   2.1278810e+01
   1.1614040e+03   3.3419920e+01
   1.1618860e+03   4.3346190e+01
   1.1623680e+03   4.9516600e+01
   1.1628500e+03   5.1159180e+01
   1.1633330e+03   4.6747070e+01
   1.1638150e+03   4.1789550e+01
   1.1642970e+03   4.4144530e+01
   1.1647790e+03   4.9741700e+01
   1.1652610e+03   5.2889650e+01
   1.1657430e+03   5.2906250e+01
   1.1662250e+03   4.7162110e+01
   1.1667070e+03   2.9323730e+01
   1.1671890e+03   1.4771000e+01
   1.1676720e+03   5.6176760e+00
   1.1681540e+03   4.0058590e+00
   1.1686360e+03   1.9110840e+01
   1.1691180e+03   4.3510250e+01
   1.1696000e+03   6.3258790e+01
   1.1700820e+03   7.7104980e+01
   1.1705640e+03   7.5166500e+01
   1.1710460e+03   3.9085940e+01
   1.1715290e+03   4.9941410e+00
   1.1720110e+03   1.4803220e+01
   1.1724930e+03   2.1847170e+01
   1.1729750e+03   1.5578120e+01
   1.1734570e+03   2.6709000e-01
   1.1739390e+03   9.9414060e+00
   1.1744210e+03   8.6533200e+00
   1.1749030e+03   6.9306640e+00
   1.1753850e+03   9.8876950e+00
   1.1758680e+03   1.2784670e+01
   1.1763500e+03   1.0883300e+01
   1.1768320e+03   6.2661130e+00
   1.1773140e+03   2.0920410e+01
   1.1777960e+03   4.8380860e+01
   1.1782780e+03   5.2089840e+01
   1.1787600e+03   1.9652340e+01
   1.1792420e+03   6.9756840e+01
   1.1797240e+03   2.7708500e+01
   1.1802070e+03   3.4372560e+01
   1.1806890e+03   4.9938480e+01
   1.1811710e+03   1.9851560e+01
   1.1816530e+03   5.5356450e+00
   1.1821350e+03   2.5045900e+01
   1.1826170e+03   2.9191890e+01
   1.1830990e+03   9.0078130e+00
   1.1835810e+03   4.0753910e+01
   1.1840640e+03   2.6898440e+01
   1.1845460e+03   2.1958010e+00
   1.1850280e+03   2.2441410e+00
   1.1855100e+03   4.1885740e+01
   1.1859920e+03   5.7562500e+01
   1.1864740e+03   4.4800780e+01
   1.1869560e+03   4.9433590e+00
   1.1874380e+03   5.6550290e+01
   1.1879210e+03   9.1473630e+01
   1.1884030e+03   1.0124610e+02
   1.1888850e+03   1.0534180e+01
   1.1893670e+03   4.9575680e+01
   1.1898490e+03   3.6615720e+01
   1.1903310e+03   2.1521480e+01
   1.1908130e+03   7.8820310e+01
   1.1912950e+03   2.7114260e+00
   1.1917770e+03   5.8853520e+01
   1.1922600e+03   6.2205080e+01
   1.1927420e+03   8.9711430e+01
   1.1932240e+03   6.4894530e+01
   1.1937060e+03   5.6233890e+01
   1.1941880e+03   9.9908200e+01
   1.1946700e+03   1.1460210e+02
   1.1951520e+03   8.3750980e+01
   1.1956340e+03   1.1277730e+02
   1.1961160e+03   3.4813960e+01
   1.1965990e+03   5.0736330e+01
   1.1970810e+03   1.0715770e+02
   1.1975630e+03   7.8923340e+01
   1.1980450e+03   1.0889360e+02
   1.1985270e+03   1.1669190e+02
   1.1990090e+03   2.3745610e+01
   1.1994910e+03   1.0600050e+02
   1.1999730e+03   1.1248340e+02
   1.2004560e+03   4.1168950e+01
   1.2009380e+03   1.1741260e+02
   1.2014200e+03   5.6813480e+01
   1.2019020e+03   4.5055180e+01
   1.2023840e+03   7.0052730e+01
   1.2028660e+03   5.6728030e+01
   1.2033480e+03   1.0381640e+02
   1.2038300e+03   9.2699710e+01
   1.2043130e+03   7.6385250e+01
   1.2047950e+03   8.2757320e+01
   1.2052770e+03   2.4819340e+01
   1.2057590e+03   4.9531250e+01
   1.2062410e+03   9.5329100e+01
   1.2067230e+03   1.2730710e+02
   1.2072050e+03   1.4632030e+02
   1.2076870e+03   1.4715580e+02
   1.2081690e+03   1.0732420e+02
   1.2086510e+03   6.5122560e+01
   1.2091340e+03   7.0743160e+01
   1.2096160e+03   1.0380180e+02
   1.2100980e+03   1.2392970e+02
   1.2105800e+03   1.2300780e+02
   1.2110620e+03   1.2184620e+02
   1.2115440e+03   1.2034080e+02
   1.2120260e+03   1.2144920e+02
   1.2125080e+03   1.3445950e+02
   1.2129910e+03   1.4565380e+02
   1.2134730e+03   1.3382320e+02
   1.2139550e+03   1.0814450e+02
   1.2144370e+03   9.5560550e+01
   1.2149190e+03   1.0233450e+02
   1.2154010e+03   1.0571040e+02
   1.2158830e+03   1.0266990e+02
   1.2163650e+03   1.0393800e+02
   1.2168480e+03   1.2871090e+02
   1.2173300e+03   1.5562550e+02
   1.2178120e+03   1.5723540e+02
   1.2182940e+03   1.3934130e+02
   1.2187760e+03   1.3162500e+02
   1.2192580e+03   1.4103560e+02
   1.2197400e+03   1.3973730e+02
   1.2202220e+03   1.2159570e+02
   1.2207040e+03   1.0605660e+02
   1.2211870e+03   1.2196680e+02
   1.2216690e+03   1.4421730e+02
   1.2221510e+03   1.3988130e+02
   1.2226330e+03   1.1329540e+02
   1.2231150e+03   1.1027150e+02
   1.2235970e+03   1.3983840e+02
   1.2240790e+03   1.6050050e+02
   1.2245610e+03   1.6402250e+02
   1.2250430e+03   1.6003170e+02
   1.2255260e+03   1.5858500e+02
   1.2260080e+03   1.5554300e+02
   1.2264900e+03   1.4324070e+02
   1.2269720e+03   1.2229830e+02
   1.2274540e+03   1.1338430e+02
   1.2279360e+03   1.1689600e+02
   1.2284180e+03   1.3313530e+02
   1.2289000e+03   1.6628420e+02
   1.2293830e+03   1.9640720e+02
   1.2298650e+03   1.9214600e+02
   1.2303470e+03   1.7873680e+02
   1.2308290e+03   1.8797800e+02
   1.2313110e+03   2.2229880e+02
   1.2317930e+03   2.2956300e+02
   1.2322750e+03   2.0413180e+02
   1.2327570e+03   1.9470460e+02
   1.2332400e+03   2.2324760e+02
   1.2337220e+03   2.5289990e+02
   1.2342040e+03   2.4321680e+02
   1.2346860e+03   2.1414210e+02
   1.2351680e+03   1.8188480e+02
   1.2356500e+03   1.4761430e+02
   1.2361320e+03   1.3463770e+02
   1.2366140e+03   1.4275440e+02
   1.2370960e+03   1.4992720e+02
   1.2375790e+03   1.5220900e+02
   1.2380610e+03   1.6064890e+02
   1.2385430e+03   1.9805960e+02
   1.2390250e+03   2.3640090e+02
   1.2395070e+03   2.3959030e+02
   1.2399890e+03   2.0639310e+02
   1.2404710e+03   1.7581300e+02
   1.2409530e+03   1.5023930e+02
   1.2414360e+03   1.4202050e+02
   1.2419180e+03   1.6546730e+02
   1.2424000e+03   1.9341160e+02
   1.2428820e+03   2.1327780e+02
   1.2433640e+03   2.2052000e+02
   1.2438460e+03   2.0505710e+02
   1.2443280e+03   1.6534130e+02
   1.2448100e+03   1.5711280e+02
   1.2452920e+03   1.8009570e+02
   1.2457750e+03   1.9883250e+02
   1.2462570e+03   1.9799660e+02
   1.2467390e+03   1.8535060e+02
   1.2472210e+03   1.4658640e+02
   1.2477030e+03   1.1358690e+02
   1.2481850e+03   1.2486430e+02
   1.2486670e+03   1.8228520e+02
   1.2491490e+03   2.0046830e+02
   1.2496310e+03   1.8307710e+02
   1.2501140e+03   1.6825050e+02
   1.2505960e+03   1.8961720e+02
   1.2510780e+03   2.0281250e+02
   1.2515600e+03   1.7163430e+02
   1.2520420e+03   1.3225150e+02
   1.2525240e+03   1.2171730e+02
   1.2530060e+03   1.3833690e+02
   1.2534880e+03   1.4665970e+02
   1.2539710e+03   1.4717190e+02
   1.2544530e+03   1.4530180e+02
   1.2549350e+03   1.3463090e+02
   1.2554170e+03   1.3449510e+02
   1.2558990e+03   1.6750490e+02
   1.2563810e+03   1.9891360e+02
   1.2568630e+03   1.8801950e+02
   1.2573450e+03   1.4449710e+02
   1.2578280e+03   1.3115040e+02
   1.2583100e+03   1.4467680e+02
   1.2587920e+03   1.5783500e+02
   1.2592740e+03   1.5279300e+02
   1.2597560e+03   1.5296190e+02
   1.2602380e+03   1.7156050e+02
   1.2607200e+03   1.8600000e+02
   1.2612020e+03   1.6371440e+02
   1.2616840e+03   1.1947560e+02
   1.2621670e+03   1.0736040e+02
   1.2626490e+03   1.2190580e+02
   1.2631310e+03   1.2625680e+02
   1.2636130e+03   8.0244630e+01
   1.2640950e+03   6.3345210e+01
   1.2645770e+03   9.9671880e+01
   1.2650590e+03   1.4094580e+02
   1.2655410e+03   1.2667920e+02
   1.2660230e+03   8.2791990e+01
   1.2665060e+03   5.9817870e+01
   1.2669880e+03   5.8057130e+01
   1.2674700e+03   6.5386230e+01
   1.2679520e+03   8.5276370e+01
   1.2684340e+03   1.0257960e+02
   1.2689160e+03   1.1553420e+02
   1.2693980e+03   1.2670900e+02
   1.2698800e+03   1.4702440e+02
   1.2703630e+03   1.6221580e+02
   1.2708450e+03   1.3993210e+02
   1.2713270e+03   9.0091800e+01
   1.2718090e+03   6.9857420e+01
   1.2722910e+03   9.8450680e+01
   1.2727730e+03   1.1109080e+02
   1.2732550e+03   9.7810550e+01
   1.2737370e+03   8.0056150e+01
   1.2742190e+03   7.8668950e+01
   1.2747020e+03   8.4439450e+01
   1.2751840e+03   9.1187990e+01
   1.2756660e+03   9.6651860e+01
   1.2761480e+03   9.4806150e+01
   1.2766300e+03   8.4502440e+01
   1.2771120e+03   7.1580570e+01
   1.2775940e+03   5.5945800e+01
   1.2780760e+03   4.6373050e+01
   1.2785580e+03   6.0656250e+01
   1.2790410e+03   7.4765140e+01
   1.2795230e+03   6.6622070e+01
   1.2800050e+03   4.3364260e+01
   1.2804870e+03   2.0094240e+01
   1.2809690e+03   3.4438480e+00
   1.2814510e+03   4.3349610e+00
   1.2819330e+03   4.8508790e+01
   1.2824150e+03   8.2860840e+01
   1.2828980e+03   6.4211910e+01
   1.2833800e+03   3.7441410e+01
   1.2838620e+03   2.5203610e+01
   1.2843440e+03   2.3489750e+01
   1.2848260e+03   2.4297850e+01
   1.2853080e+03   2.8552730e+01
   1.2857900e+03   4.6725100e+01
   1.2862720e+03   7.9745610e+01
   1.2867550e+03   1.0325000e+02
   1.2872370e+03   1.0163090e+02
   1.2877190e+03   8.8681640e+01
   1.2882010e+03   6.1706540e+01
   1.2886830e+03   3.7044920e+01
   1.2891650e+03   5.7056640e+01
   1.2896470e+03   9.9748050e+01
   1.2901290e+03   9.5528320e+01
   1.2906110e+03   4.0009770e+01
   1.2910940e+03   4.4824200e-01
   1.2915760e+03   1.0210940e+01
   1.2920580e+03   1.8924800e+01
   1.2925400e+03   1.4991210e+01
   1.2930220e+03   6.8847660e+00
   1.2935040e+03   5.1440430e+00
   1.2939860e+03   7.8330080e+00
   1.2944680e+03   9.7001950e+00
   1.2949500e+03   1.1040530e+01
   1.2954330e+03   2.4083010e+01
   1.2959150e+03   6.1444340e+01
   1.2963970e+03   7.0281250e+01
   1.2968790e+03   3.3627440e+01
   1.2973610e+03   2.7968750e+00
   1.2978430e+03   2.5164550e+01
   1.2983250e+03   7.1294920e+01
   1.2988070e+03   8.4850100e+01
   1.2992900e+03   6.6787110e+01
   1.2997720e+03   5.9605470e+01
   1.3002540e+03   6.5947750e+01
   1.3007360e+03   5.8026370e+01
   1.3012180e+03   2.9263180e+01
   1.3017000e+03   2.2250980e+00
   1.3021820e+03   3.0004880e+00
   1.3026640e+03   3.5498050e+00
   1.3031460e+03   2.1777340e+01
   1.3036290e+03   4.4527830e+01
   1.3041110e+03   4.7480960e+01
   1.3045930e+03   4.6949220e+01
   1.3050750e+03   3.0215330e+01
   1.3055570e+03   0.0000000e+00
   1.5000000e+03   0.0000000e+00
