   1.0000000e+02   0.0000000e+00
   1.5023410e+02   0.0000000e+00
   1.5071620e+02   1.6775000e+02
   1.5119830e+02   2.8358400e+02
   1.5168050e+02   2.5607810e+02
   1.5216260e+02   4.2218750e+01
   1.5264470e+02   6.3843750e+01
   1.5312680e+02   4.8142580e+01
   1.5360890e+02   6.7962890e+01
   1.5409100e+02   2.4808790e+02
   1.5457320e+02   4.6778320e+02
   1.5505530e+02   7.6614650e+02
   1.5553740e+02   1.1528930e+03
   1.5601950e+02   1.6325120e+03
   1.5650160e+02   2.1834610e+03
   1.5698370e+02   2.8179340e+03
   1.5746590e+02   3.5167150e+03
   1.5794800e+02   4.2441880e+03
   1.5843010e+02   5.0069770e+03
   1.5891220e+02   5.7765060e+03
   1.5939430e+02   6.5348110e+03
   1.5987640e+02   7.3059450e+03
   1.6035860e+02   8.0220020e+03
   1.6084070e+02   8.6870450e+03
   1.6132280e+02   9.2874180e+03
   1.6180490e+02   9.7843360e+03
   1.6228700e+02   1.0177290e+04
   1.6276910e+02   1.0456020e+04
   1.6325130e+02   1.0614760e+04
   1.6373340e+02   1.0657720e+04
   1.6421550e+02   1.0574210e+04
   1.6469760e+02   1.0343790e+04
   1.6517970e+02   9.9778050e+03
   1.6566180e+02   9.5192730e+03
   1.6614400e+02   8.9559100e+03
   1.6662610e+02   8.3276130e+03
   1.6710820e+02   7.6675430e+03
   1.6759030e+02   6.9559650e+03
   1.6807240e+02   6.2454860e+03
   1.6855450e+02   5.5532750e+03
   1.6903670e+02   4.8828670e+03
   1.6951880e+02   4.2563380e+03
   1.7000090e+02   3.6875620e+03
   1.7048300e+02   3.1727480e+03
   1.7096510e+02   2.6926020e+03
   1.7144720e+02   2.2292500e+03
   1.7192930e+02   1.8093910e+03
   1.7241150e+02   1.4525880e+03
   1.7289360e+02   1.1583070e+03
   1.7337570e+02   9.2111910e+02
   1.7385780e+02   7.4456050e+02
   1.7433990e+02   6.2298050e+02
   1.7482200e+02   5.4702340e+02
   1.7530420e+02   5.2832420e+02
   1.7578630e+02   5.4459770e+02
   1.7626840e+02   5.7965040e+02
   1.7675050e+02   6.3294730e+02
   1.7723260e+02   6.8895510e+02
   1.7771470e+02   7.2086910e+02
   1.7819690e+02   7.4448440e+02
   1.7867900e+02   7.9272070e+02
   1.7916110e+02   9.0444340e+02
   1.7964320e+02   1.0373500e+03
   1.8012530e+02   1.1192600e+03
   1.8060740e+02   1.1459020e+03
   1.8108960e+02   1.1729900e+03
   1.8157170e+02   1.2670740e+03
   1.8205380e+02   1.4086130e+03
   1.8253590e+02   1.5410780e+03
   1.8301800e+02   1.6432050e+03
   1.8350010e+02   1.7171800e+03
   1.8398230e+02   1.7632380e+03
   1.8446440e+02   1.7805530e+03
   1.8494650e+02   1.7737910e+03
   1.8542860e+02   1.7496290e+03
   1.8591070e+02   1.7068090e+03
   1.8639280e+02   1.6366450e+03
   1.8687500e+02   1.5231480e+03
   1.8735710e+02   1.3789260e+03
   1.8783920e+02   1.2383110e+03
   1.8832130e+02   1.1018910e+03
   1.8880340e+02   9.7183200e+02
   1.8928550e+02   8.4782230e+02
   1.8976770e+02   7.3145310e+02
   1.9024980e+02   6.3567770e+02
   1.9073190e+02   5.5483010e+02
   1.9121400e+02   4.9603320e+02
   1.9169610e+02   5.0372460e+02
   1.9217820e+02   5.8531450e+02
   1.9266040e+02   7.1184570e+02
   1.9314250e+02   8.4531840e+02
   1.9362460e+02   9.8521480e+02
   1.9410670e+02   1.1318340e+03
   1.9458880e+02   1.2851090e+03
   1.9507090e+02   1.4436780e+03
   1.9555310e+02   1.6089280e+03
   1.9603520e+02   1.7854180e+03
   1.9651730e+02   1.9630610e+03
   1.9699940e+02   2.1212270e+03
   1.9748150e+02   2.2576880e+03
   1.9796360e+02   2.4003890e+03
   1.9844580e+02   2.5646090e+03
   1.9892790e+02   2.7502810e+03
   1.9941000e+02   2.9434410e+03
   1.9989210e+02   3.1444690e+03
   2.0037420e+02   3.3527290e+03
   2.0085630e+02   3.5632620e+03
   2.0133850e+02   3.7754410e+03
   2.0182060e+02   4.0036370e+03
   2.0230270e+02   4.2587850e+03
   2.0278480e+02   4.5439000e+03
   2.0326690e+02   4.8297660e+03
   2.0374900e+02   5.1153650e+03
   2.0423110e+02   5.4047970e+03
   2.0471330e+02   5.7127030e+03
   2.0519540e+02   6.0470230e+03
   2.0567750e+02   6.3693590e+03
   2.0615960e+02   6.6646680e+03
   2.0664170e+02   6.9352130e+03
   2.0712380e+02   7.1696450e+03
   2.0760600e+02   7.3630350e+03
   2.0808810e+02   7.4941370e+03
   2.0857020e+02   7.6251890e+03
   2.0905230e+02   7.7654840e+03
   2.0953440e+02   7.8787230e+03
   2.1001650e+02   7.9432580e+03
   2.1049870e+02   7.9516190e+03
   2.1098080e+02   7.9511370e+03
   2.1146290e+02   7.9422810e+03
   2.1194500e+02   7.9204650e+03
   2.1242710e+02   7.8721130e+03
   2.1290920e+02   7.7834840e+03
   2.1339140e+02   7.7011930e+03
   2.1387350e+02   7.6499180e+03
   2.1435560e+02   7.6381040e+03
   2.1483770e+02   7.6250330e+03
   2.1531980e+02   7.6064180e+03
   2.1580190e+02   7.5884260e+03
   2.1628410e+02   7.5847070e+03
   2.1676620e+02   7.5942770e+03
   2.1724830e+02   7.6210780e+03
   2.1773040e+02   7.6674180e+03
   2.1821250e+02   7.7340620e+03
   2.1869460e+02   7.8249610e+03
   2.1917680e+02   7.9462130e+03
   2.1965890e+02   8.0891110e+03
   2.2014100e+02   8.2349410e+03
   2.2062310e+02   8.3733380e+03
   2.2110520e+02   8.5302850e+03
   2.2158730e+02   8.7242910e+03
   2.2206950e+02   8.9706520e+03
   2.2255160e+02   9.2047850e+03
   2.2303370e+02   9.4214770e+03
   2.2351580e+02   9.6229650e+03
   2.2399790e+02   9.8253590e+03
   2.2448000e+02   1.0021590e+04
   2.2496220e+02   1.0223530e+04
   2.2544430e+02   1.0435570e+04
   2.2592640e+02   1.0663390e+04
   2.2640850e+02   1.0891440e+04
   2.2689060e+02   1.1127800e+04
   2.2737270e+02   1.1361160e+04
   2.2785490e+02   1.1578080e+04
   2.2833700e+02   1.1766640e+04
   2.2881910e+02   1.1955870e+04
   2.2930120e+02   1.2160070e+04
   2.2978330e+02   1.2382300e+04
   2.3026540e+02   1.2608430e+04
   2.3074760e+02   1.2840530e+04
   2.3122970e+02   1.3075120e+04
   2.3171180e+02   1.3307270e+04
   2.3219390e+02   1.3551900e+04
   2.3267600e+02   1.3769840e+04
   2.3315810e+02   1.3944010e+04
   2.3364020e+02   1.4057480e+04
   2.3412240e+02   1.4171590e+04
   2.3460450e+02   1.4303800e+04
   2.3508660e+02   1.4429720e+04
   2.3556870e+02   1.4495050e+04
   2.3605080e+02   1.4476710e+04
   2.3653290e+02   1.4434240e+04
   2.3701510e+02   1.4384910e+04
   2.3749720e+02   1.4318940e+04
   2.3797930e+02   1.4272140e+04
   2.3846140e+02   1.4236040e+04
   2.3894350e+02   1.4222130e+04
   2.3942560e+02   1.4249670e+04
   2.3990780e+02   1.4307040e+04
   2.4038990e+02   1.4424380e+04
   2.4087200e+02   1.4614220e+04
   2.4135410e+02   1.4884270e+04
   2.4183620e+02   1.5200760e+04
   2.4231830e+02   1.5562360e+04
   2.4280050e+02   1.5975390e+04
   2.4328260e+02   1.6454100e+04
   2.4376470e+02   1.6994460e+04
   2.4424680e+02   1.7600560e+04
   2.4472890e+02   1.8283660e+04
   2.4521100e+02   1.9063920e+04
   2.4569320e+02   1.9839240e+04
   2.4617530e+02   2.0602280e+04
   2.4665740e+02   2.1365020e+04
   2.4713950e+02   2.2150500e+04
   2.4762160e+02   2.2961930e+04
   2.4810370e+02   2.3776110e+04
   2.4858590e+02   2.4601650e+04
   2.4906800e+02   2.5447760e+04
   2.4955010e+02   2.6210270e+04
   2.5003220e+02   2.6877430e+04
   2.5051430e+02   2.7468870e+04
   2.5099640e+02   2.8013900e+04
   2.5147860e+02   2.8531260e+04
   2.5196070e+02   2.8967500e+04
   2.5244280e+02   2.9305620e+04
   2.5292490e+02   2.9536240e+04
   2.5340700e+02   2.9734460e+04
   2.5388910e+02   2.9927650e+04
   2.5437130e+02   3.0063660e+04
   2.5485340e+02   3.0076050e+04
   2.5533550e+02   2.9937410e+04
   2.5581760e+02   2.9733580e+04
   2.5629970e+02   2.9491340e+04
   2.5678180e+02   2.9217370e+04
   2.5726390e+02   2.8825530e+04
   2.5774610e+02   2.8300430e+04
   2.5822820e+02   2.7672000e+04
   2.5871030e+02   2.6976960e+04
   2.5919240e+02   2.6206710e+04
   2.5967450e+02   2.5372300e+04
   2.6015660e+02   2.4494880e+04
   2.6063880e+02   2.3562320e+04
   2.6112090e+02   2.2559480e+04
   2.6160300e+02   2.1463750e+04
   2.6208510e+02   2.0314230e+04
   2.6256720e+02   1.9154620e+04
   2.6304930e+02   1.7963540e+04
   2.6353150e+02   1.6786810e+04
   2.6401360e+02   1.5624490e+04
   2.6449570e+02   1.4485100e+04
   2.6497780e+02   1.3391960e+04
   2.6545990e+02   1.2361740e+04
   2.6594200e+02   1.1366640e+04
   2.6642420e+02   1.0398340e+04
   2.6690630e+02   9.4414510e+03
   2.6738840e+02   8.5279730e+03
   2.6787050e+02   7.6546370e+03
   2.6835260e+02   6.8306350e+03
   2.6883470e+02   6.0853090e+03
   2.6931690e+02   5.4382500e+03
   2.6979900e+02   4.8402320e+03
   2.7028110e+02   4.2440310e+03
   2.7076320e+02   3.6384610e+03
   2.7124530e+02   3.1012660e+03
   2.7172740e+02   2.6446170e+03
   2.7220960e+02   2.2564650e+03
   2.7269170e+02   1.8738930e+03
   2.7317380e+02   1.4867290e+03
   2.7365590e+02   1.1215450e+03
   2.7413800e+02   7.9486330e+02
   2.7462010e+02   5.0533790e+02
   2.7510230e+02   2.4183590e+02
   2.7558440e+02   2.2402340e+00
   2.7606650e+02   2.0893950e+02
   2.7654860e+02   3.9412890e+02
   2.7703070e+02   5.5277340e+02
   2.7751280e+02   6.8043750e+02
   2.7799500e+02   7.6864060e+02
   2.7847710e+02   8.1468550e+02
   2.7895920e+02   8.5662500e+02
   2.7944130e+02   9.0093750e+02
   2.7992340e+02   9.3547660e+02
   2.8040550e+02   9.3827150e+02
   2.8088770e+02   9.0909180e+02
   2.8136980e+02   8.5357030e+02
   2.8185190e+02   7.6926760e+02
   2.8233400e+02   6.5636720e+02
   2.8281610e+02   5.3957420e+02
   2.8329820e+02   4.2165620e+02
   2.8378040e+02   2.9372660e+02
   2.8426250e+02   1.4021680e+02
   2.8474460e+02   3.9701170e+01
   2.8522670e+02   2.2472850e+02
   2.8570880e+02   4.0219140e+02
   2.8619090e+02   5.7546680e+02
   2.8667310e+02   7.7140430e+02
   2.8715520e+02   9.9213480e+02
   2.8763730e+02   1.2268440e+03
   2.8811940e+02   1.4728400e+03
   2.8860150e+02   1.7286880e+03
   2.8908360e+02   1.9576780e+03
   2.8956580e+02   2.1541040e+03
   2.9004790e+02   2.3140470e+03
   2.9053000e+02   2.4217580e+03
   2.9101210e+02   2.4763090e+03
   2.9149420e+02   2.4869040e+03
   2.9197630e+02   2.4577850e+03
   2.9245850e+02   2.3912420e+03
   2.9294060e+02   2.2909260e+03
   2.9342270e+02   2.1467910e+03
   2.9390480e+02   1.9797340e+03
   2.9438690e+02   1.8281660e+03
   2.9486900e+02   1.6911170e+03
   2.9535120e+02   1.5856270e+03
   2.9583330e+02   1.5061660e+03
   2.9631540e+02   1.4651580e+03
   2.9679750e+02   1.4982580e+03
   2.9727960e+02   1.6128550e+03
   2.9776170e+02   1.8053930e+03
   2.9824390e+02   2.0797420e+03
   2.9872600e+02   2.4316620e+03
   2.9920810e+02   2.8409300e+03
   2.9969020e+02   3.3112910e+03
   3.0017230e+02   3.8246410e+03
   3.0065440e+02   4.3636800e+03
   3.0113660e+02   4.9239880e+03
   3.0161870e+02   5.5008420e+03
   3.0210080e+02   6.1022970e+03
   3.0258290e+02   6.7160510e+03
   3.0306500e+02   7.3156990e+03
   3.0354710e+02   7.8983950e+03
   3.0402930e+02   8.4483120e+03
   3.0451140e+02   8.9380680e+03
   3.0499350e+02   9.3659770e+03
   3.0547560e+02   9.7472010e+03
   3.0595770e+02   1.0095580e+04
   3.0643980e+02   1.0410610e+04
   3.0692200e+02   1.0693990e+04
   3.0740410e+02   1.0937300e+04
   3.0788620e+02   1.1154700e+04
   3.0836830e+02   1.1365710e+04
   3.0885040e+02   1.1570110e+04
   3.0933260e+02   1.1760430e+04
   3.0981470e+02   1.1906500e+04
   3.1029680e+02   1.2037900e+04
   3.1077890e+02   1.2199860e+04
   3.1126100e+02   1.2413000e+04
   3.1174310e+02   1.2661460e+04
   3.1222520e+02   1.2933980e+04
   3.1270730e+02   1.3231110e+04
   3.1318950e+02   1.3558540e+04
   3.1367160e+02   1.3929770e+04
   3.1415370e+02   1.4330020e+04
   3.1463580e+02   1.4742450e+04
   3.1511790e+02   1.5202710e+04
   3.1560000e+02   1.5631140e+04
   3.1608220e+02   1.5996170e+04
   3.1656430e+02   1.6297810e+04
   3.1704640e+02   1.6535440e+04
   3.1752850e+02   1.6726100e+04
   3.1801060e+02   1.6842120e+04
   3.1849270e+02   1.6861660e+04
   3.1897490e+02   1.6762830e+04
   3.1945700e+02   1.6595580e+04
   3.1993910e+02   1.6357210e+04
   3.2042120e+02   1.6063430e+04
   3.2090330e+02   1.5744050e+04
   3.2138540e+02   1.5386770e+04
   3.2186760e+02   1.5023410e+04
   3.2234970e+02   1.4662970e+04
   3.2283180e+02   1.4295970e+04
   3.2331390e+02   1.3962750e+04
   3.2379600e+02   1.3644810e+04
   3.2427810e+02   1.3374140e+04
   3.2476030e+02   1.3188960e+04
   3.2524240e+02   1.3130300e+04
   3.2572450e+02   1.3126120e+04
   3.2620660e+02   1.3156870e+04
   3.2668870e+02   1.3220500e+04
   3.2717080e+02   1.3328800e+04
   3.2765300e+02   1.3495620e+04
   3.2813510e+02   1.3701940e+04
   3.2861720e+02   1.3930680e+04
   3.2909930e+02   1.4187900e+04
   3.2958140e+02   1.4459520e+04
   3.3006350e+02   1.4748570e+04
   3.3054570e+02   1.5054880e+04
   3.3102780e+02   1.5362570e+04
   3.3150990e+02   1.5684680e+04
   3.3199200e+02   1.5999280e+04
   3.3247410e+02   1.6290950e+04
   3.3295620e+02   1.6582020e+04
   3.3343840e+02   1.6817170e+04
   3.3392050e+02   1.6986140e+04
   3.3440260e+02   1.7091710e+04
   3.3488470e+02   1.7146090e+04
   3.3536680e+02   1.7149350e+04
   3.3584890e+02   1.7104190e+04
   3.3633110e+02   1.7014090e+04
   3.3681320e+02   1.6880170e+04
   3.3729530e+02   1.6696540e+04
   3.3777740e+02   1.6457140e+04
   3.3825950e+02   1.6175890e+04
   3.3874160e+02   1.5884280e+04
   3.3922380e+02   1.5580350e+04
   3.3970590e+02   1.5266410e+04
   3.4018800e+02   1.4945420e+04
   3.4067010e+02   1.4616570e+04
   3.4115220e+02   1.4280960e+04
   3.4163430e+02   1.3927720e+04
   3.4211650e+02   1.3582760e+04
   3.4259860e+02   1.3264820e+04
   3.4308070e+02   1.2966720e+04
   3.4356280e+02   1.2696900e+04
   3.4404490e+02   1.2453230e+04
   3.4452700e+02   1.2238470e+04
   3.4500920e+02   1.2036760e+04
   3.4549130e+02   1.1841810e+04
   3.4597340e+02   1.1680860e+04
   3.4645550e+02   1.1582050e+04
   3.4693760e+02   1.1540600e+04
   3.4741970e+02   1.1502940e+04
   3.4790190e+02   1.1460760e+04
   3.4838400e+02   1.1418830e+04
   3.4886610e+02   1.1372790e+04
   3.4934820e+02   1.1324590e+04
   3.4983030e+02   1.1291240e+04
   3.5031240e+02   1.1303940e+04
   3.5079460e+02   1.1337840e+04
   3.5127670e+02   1.1329440e+04
   3.5175880e+02   1.1270620e+04
   3.5224090e+02   1.1170680e+04
   3.5272300e+02   1.1038520e+04
   3.5320510e+02   1.0873290e+04
   3.5368730e+02   1.0665790e+04
   3.5416940e+02   1.0402140e+04
   3.5465150e+02   1.0101430e+04
   3.5513360e+02   9.7793880e+03
   3.5561570e+02   9.4307160e+03
   3.5609780e+02   9.0899830e+03
   3.5658000e+02   8.7787790e+03
   3.5706210e+02   8.4895130e+03
   3.5754420e+02   8.2106320e+03
   3.5802630e+02   7.9326330e+03
   3.5850840e+02   7.6700590e+03
   3.5899050e+02   7.4360890e+03
   3.5947270e+02   7.2283440e+03
   3.5995480e+02   7.0245100e+03
   3.6043690e+02   6.7966140e+03
   3.6091900e+02   6.5788320e+03
   3.6140110e+02   6.4048410e+03
   3.6188320e+02   6.3027080e+03
   3.6236540e+02   6.2040170e+03
   3.6284750e+02   6.0756070e+03
   3.6332960e+02   5.9289750e+03
   3.6381170e+02   5.7873950e+03
   3.6429380e+02   5.6576930e+03
   3.6477590e+02   5.5384680e+03
   3.6525810e+02   5.4347830e+03
   3.6574020e+02   5.3538400e+03
   3.6622230e+02   5.2583520e+03
   3.6670440e+02   5.1272570e+03
   3.6718650e+02   4.9826300e+03
   3.6766860e+02   4.8456460e+03
   3.6815080e+02   4.7309570e+03
   3.6863290e+02   4.6151560e+03
   3.6911500e+02   4.4935390e+03
   3.6959710e+02   4.3659560e+03
   3.7007920e+02   4.2371400e+03
   3.7056130e+02   4.1107100e+03
   3.7104350e+02   3.9824030e+03
   3.7152560e+02   3.8502730e+03
   3.7200770e+02   3.7137930e+03
   3.7248980e+02   3.5731220e+03
   3.7297190e+02   3.4235900e+03
   3.7345400e+02   3.2682660e+03
   3.7393610e+02   3.1163130e+03
   3.7441820e+02   2.9733320e+03
   3.7490040e+02   2.8285370e+03
   3.7538250e+02   2.6755170e+03
   3.7586460e+02   2.5121260e+03
   3.7634670e+02   2.3563450e+03
   3.7682880e+02   2.2096780e+03
   3.7731090e+02   2.0660710e+03
   3.7779310e+02   1.9116740e+03
   3.7827520e+02   1.7424920e+03
   3.7875730e+02   1.5763540e+03
   3.7923940e+02   1.4135100e+03
   3.7972150e+02   1.2570200e+03
   3.8020360e+02   1.1143660e+03
   3.8068580e+02   9.9053810e+02
   3.8116790e+02   8.7417870e+02
   3.8165000e+02   7.5219340e+02
   3.8213210e+02   6.2555080e+02
   3.8261420e+02   5.2940430e+02
   3.8309630e+02   4.7355660e+02
   3.8357850e+02   4.4391020e+02
   3.8406060e+02   4.1150390e+02
   3.8454270e+02   3.7861820e+02
   3.8502480e+02   3.5122460e+02
   3.8550690e+02   3.3161130e+02
   3.8598900e+02   3.2112890e+02
   3.8647120e+02   3.2832030e+02
   3.8695330e+02   3.5625590e+02
   3.8743540e+02   3.8802150e+02
   3.8791750e+02   4.0898630e+02
   3.8839960e+02   4.2082230e+02
   3.8888170e+02   4.2678420e+02
   3.8936390e+02   4.3062890e+02
   3.8984600e+02   4.2847850e+02
   3.9032810e+02   4.1632910e+02
   3.9081020e+02   3.9430320e+02
   3.9129230e+02   3.6244780e+02
   3.9177440e+02   3.1671290e+02
   3.9225660e+02   2.6218360e+02
   3.9273870e+02   2.0216500e+02
   3.9322080e+02   1.3486470e+02
   3.9370290e+02   6.6952640e+01
   3.9418500e+02   7.6660200e-01
   3.9466710e+02   6.7337890e+01
   3.9514930e+02   1.3156490e+02
   3.9563140e+02   1.9617720e+02
   3.9611350e+02   2.5578170e+02
   3.9659560e+02   3.0869290e+02
   3.9707770e+02   3.5613180e+02
   3.9755980e+02   3.9540770e+02
   3.9804200e+02   4.2571340e+02
   3.9852410e+02   4.4784380e+02
   3.9900620e+02   4.6271340e+02
   3.9948830e+02   4.7446390e+02
   3.9997040e+02   4.7513230e+02
   4.0045250e+02   4.6055030e+02
   4.0093470e+02   4.3133940e+02
   4.0141680e+02   3.9812500e+02
   4.0189890e+02   3.6096580e+02
   4.0238100e+02   3.1983110e+02
   4.0286310e+02   2.7512550e+02
   4.0334520e+02   2.2981840e+02
   4.0382740e+02   1.7482620e+02
   4.0430950e+02   1.0863180e+02
   4.0479160e+02   3.3259770e+01
   4.0527370e+02   4.6301270e+01
   4.0575580e+02   1.2959810e+02
   4.0623790e+02   2.1875150e+02
   4.0672010e+02   3.1411130e+02
   4.0720220e+02   4.1552930e+02
   4.0768430e+02   5.2960790e+02
   4.0816640e+02   6.5750540e+02
   4.0864850e+02   7.9348440e+02
   4.0913060e+02   9.2933250e+02
   4.0961280e+02   1.0655430e+03
   4.1009490e+02   1.2057990e+03
   4.1057700e+02   1.3510510e+03
   4.1105910e+02   1.5015070e+03
   4.1154120e+02   1.6516450e+03
   4.1202330e+02   1.8028100e+03
   4.1250550e+02   1.9671940e+03
   4.1298760e+02   2.1555310e+03
   4.1346970e+02   2.3637210e+03
   4.1395180e+02   2.5798490e+03
   4.1443390e+02   2.7999830e+03
   4.1491600e+02   3.0303530e+03
   4.1539820e+02   3.2816830e+03
   4.1588030e+02   3.5463290e+03
   4.1636240e+02   3.8167680e+03
   4.1684450e+02   4.0843260e+03
   4.1732660e+02   4.3578040e+03
   4.1780870e+02   4.6514180e+03
   4.1829090e+02   4.9623960e+03
   4.1877300e+02   5.2833420e+03
   4.1925510e+02   5.6150120e+03
   4.1973720e+02   5.9493190e+03
   4.2021930e+02   6.2745830e+03
   4.2070140e+02   6.5883840e+03
   4.2118360e+02   6.8917930e+03
   4.2166570e+02   7.1872190e+03
   4.2214780e+02   7.4696030e+03
   4.2262990e+02   7.7317340e+03
   4.2311200e+02   7.9878750e+03
   4.2359410e+02   8.2078350e+03
   4.2407630e+02   8.3710650e+03
   4.2455840e+02   8.4732570e+03
   4.2504050e+02   8.5451650e+03
   4.2552260e+02   8.5912380e+03
   4.2600470e+02   8.6081930e+03
   4.2648680e+02   8.5920800e+03
   4.2696900e+02   8.5295420e+03
   4.2745110e+02   8.4518150e+03
   4.2793320e+02   8.3604140e+03
   4.2841530e+02   8.2569580e+03
   4.2889740e+02   8.1478770e+03
   4.2937950e+02   8.0264050e+03
   4.2986170e+02   7.9111900e+03
   4.3034380e+02   7.8151740e+03
   4.3082590e+02   7.7446570e+03
   4.3130800e+02   7.6620810e+03
   4.3179010e+02   7.5593040e+03
   4.3227220e+02   7.4560710e+03
   4.3275440e+02   7.3818210e+03
   4.3323650e+02   7.3392860e+03
   4.3371860e+02   7.3023250e+03
   4.3420070e+02   7.2587910e+03
   4.3468280e+02   7.2150260e+03
   4.3516490e+02   7.1991690e+03
   4.3564700e+02   7.2122320e+03
   4.3612920e+02   7.2334670e+03
   4.3661130e+02   7.2405020e+03
   4.3709340e+02   7.2403950e+03
   4.3757550e+02   7.2587730e+03
   4.3805760e+02   7.3028960e+03
   4.3853970e+02   7.3585860e+03
   4.3902190e+02   7.4090690e+03
   4.3950400e+02   7.4567060e+03
   4.3998610e+02   7.5085340e+03
   4.4046820e+02   7.5722800e+03
   4.4095030e+02   7.6403460e+03
   4.4143240e+02   7.7059480e+03
   4.4191460e+02   7.7688830e+03
   4.4239670e+02   7.8308430e+03
   4.4287880e+02   7.8801450e+03
   4.4336090e+02   7.9374490e+03
   4.4384300e+02   8.0235560e+03
   4.4432510e+02   8.1594400e+03
   4.4480730e+02   8.3047550e+03
   4.4528940e+02   8.4413030e+03
   4.4577150e+02   8.5761250e+03
   4.4625360e+02   8.7284130e+03
   4.4673570e+02   8.9020640e+03
   4.4721780e+02   9.0877960e+03
   4.4770000e+02   9.2948580e+03
   4.4818210e+02   9.5075830e+03
   4.4866420e+02   9.7414990e+03
   4.4914630e+02   9.9884290e+03
   4.4962840e+02   1.0257330e+04
   4.5011050e+02   1.0560810e+04
   4.5059270e+02   1.0912300e+04
   4.5107480e+02   1.1273460e+04
   4.5155690e+02   1.1642690e+04
   4.5203900e+02   1.2015480e+04
   4.5252110e+02   1.2396490e+04
   4.5300320e+02   1.2780890e+04
   4.5348540e+02   1.3178780e+04
   4.5396750e+02   1.3588950e+04
   4.5444960e+02   1.4014230e+04
   4.5493170e+02   1.4462590e+04
   4.5541380e+02   1.4933250e+04
   4.5589590e+02   1.5429540e+04
   4.5637810e+02   1.5952620e+04
   4.5686020e+02   1.6505080e+04
   4.5734230e+02   1.7083580e+04
   4.5782440e+02   1.7674750e+04
   4.5830650e+02   1.8298830e+04
   4.5878860e+02   1.8982630e+04
   4.5927080e+02   1.9732940e+04
   4.5975290e+02   2.0506630e+04
   4.6023500e+02   2.1291880e+04
   4.6071710e+02   2.2092630e+04
   4.6119920e+02   2.2934890e+04
   4.6168130e+02   2.3820390e+04
   4.6216350e+02   2.4725370e+04
   4.6264560e+02   2.5655460e+04
   4.6312770e+02   2.6596840e+04
   4.6360980e+02   2.7533650e+04
   4.6409190e+02   2.8494380e+04
   4.6457400e+02   2.9412100e+04
   4.6505620e+02   3.0285140e+04
   4.6553830e+02   3.1101160e+04
   4.6602040e+02   3.1812440e+04
   4.6650250e+02   3.2445380e+04
   4.6698460e+02   3.2950240e+04
   4.6746670e+02   3.3301790e+04
   4.6794890e+02   3.3529970e+04
   4.6843100e+02   3.3546000e+04
   4.6891310e+02   3.3347110e+04
   4.6939520e+02   3.2931230e+04
   4.6987730e+02   3.2289610e+04
   4.7035940e+02   3.1373310e+04
   4.7084160e+02   3.0296380e+04
   4.7132370e+02   2.9056570e+04
   4.7180580e+02   2.7672390e+04
   4.7228790e+02   2.6200120e+04
   4.7277000e+02   2.4620330e+04
   4.7325210e+02   2.3011240e+04
   4.7373430e+02   2.1424440e+04
   4.7421640e+02   1.9857400e+04
   4.7469850e+02   1.8335920e+04
   4.7518060e+02   1.6848360e+04
   4.7566270e+02   1.5430610e+04
   4.7614480e+02   1.4107360e+04
   4.7662700e+02   1.2877740e+04
   4.7710910e+02   1.1736510e+04
   4.7759120e+02   1.0682850e+04
   4.7807330e+02   9.7151370e+03
   4.7855540e+02   8.8357850e+03
   4.7903750e+02   8.0399010e+03
   4.7951970e+02   7.3181800e+03
   4.8000180e+02   6.6655480e+03
   4.8048390e+02   6.0734180e+03
   4.8096600e+02   5.5329540e+03
   4.8144810e+02   5.0445640e+03
   4.8193020e+02   4.5998600e+03
   4.8241240e+02   4.1987460e+03
   4.8289450e+02   3.8364760e+03
   4.8337660e+02   3.5046680e+03
   4.8385870e+02   3.1952290e+03
   4.8434080e+02   2.9175940e+03
   4.8482290e+02   2.6820930e+03
   4.8530510e+02   2.4849580e+03
   4.8578720e+02   2.3017870e+03
   4.8626930e+02   2.1233280e+03
   4.8675140e+02   1.9590200e+03
   4.8723350e+02   1.8158290e+03
   4.8771560e+02   1.6965840e+03
   4.8819780e+02   1.5887350e+03
   4.8867990e+02   1.4949970e+03
   4.8916200e+02   1.4100130e+03
   4.8964410e+02   1.3270650e+03
   4.9012620e+02   1.2438770e+03
   4.9060830e+02   1.1682540e+03
   4.9109050e+02   1.1043870e+03
   4.9157260e+02   1.0494300e+03
   4.9205470e+02   9.8907420e+02
   4.9253680e+02   9.2251860e+02
   4.9301890e+02   8.5687010e+02
   4.9350100e+02   7.9636520e+02
   4.9398320e+02   7.4103910e+02
   4.9446530e+02   6.9061230e+02
   4.9494740e+02   6.4609770e+02
   4.9542950e+02   6.0235840e+02
   4.9591160e+02   5.5302930e+02
   4.9639370e+02   4.9973540e+02
   4.9687580e+02   4.4672070e+02
   4.9735790e+02   3.9452640e+02
   4.9784010e+02   3.4391110e+02
   4.9832220e+02   2.9528610e+02
   4.9880430e+02   2.4860640e+02
   4.9928640e+02   2.0409960e+02
   4.9976850e+02   1.7015720e+02
   5.0025060e+02   1.3236130e+02
   5.0073280e+02   7.4888670e+01
   5.0121490e+02   8.4218750e+00
   5.0169700e+02   8.1751950e+01
   5.0217910e+02   1.2392090e+02
   5.0266120e+02   1.5393360e+02
   5.0314330e+02   1.8972070e+02
   5.0362550e+02   2.4755370e+02
   5.0410760e+02   2.9542480e+02
   5.0458970e+02   3.2604790e+02
   5.0507180e+02   3.4363180e+02
   5.0555390e+02   3.6090620e+02
   5.0603600e+02   3.8328810e+02
   5.0651820e+02   3.9571090e+02
   5.0700030e+02   3.9181540e+02
   5.0748240e+02   3.7074610e+02
   5.0796450e+02   3.4840720e+02
   5.0844660e+02   3.2768070e+02
   5.0892870e+02   2.9949410e+02
   5.0941090e+02   2.5217290e+02
   5.0989300e+02   1.8587790e+02
   5.1037510e+02   1.2190140e+02
   5.1085720e+02   6.2121090e+01
   5.1133930e+02   5.6914060e+00
   5.1182140e+02   5.1358400e+01
   5.1230360e+02   1.1215820e+02
   5.1278570e+02   1.8754790e+02
   5.1326780e+02   2.8429880e+02
   5.1374990e+02   3.9631840e+02
   5.1423210e+02   5.1830760e+02
   5.1471420e+02   6.4647270e+02
   5.1519630e+02   7.7251860e+02
   5.1567840e+02   8.8995510e+02
   5.1616050e+02   1.0011760e+03
   5.1664260e+02   1.1078600e+03
   5.1712480e+02   1.2081880e+03
   5.1760690e+02   1.3070560e+03
   5.1808900e+02   1.4127790e+03
   5.1857110e+02   1.5215060e+03
   5.1905320e+02   1.6224160e+03
   5.1953530e+02   1.6952380e+03
   5.2001750e+02   1.7810810e+03
   5.2049960e+02   1.8927390e+03
   5.2098170e+02   2.0267050e+03
   5.2146380e+02   2.1670540e+03
   5.2194590e+02   2.3191090e+03
   5.2242800e+02   2.4713160e+03
   5.2291020e+02   2.6136480e+03
   5.2339230e+02   2.7425550e+03
   5.2387440e+02   2.8869270e+03
   5.2435650e+02   3.0509630e+03
   5.2483860e+02   3.2238180e+03
   5.2532070e+02   3.3910570e+03
   5.2580290e+02   3.5509200e+03
   5.2628490e+02   3.7217850e+03
   5.2676700e+02   3.9037120e+03
   5.2724910e+02   4.1011820e+03
   5.2773130e+02   4.3199410e+03
   5.2821340e+02   4.5591460e+03
   5.2869550e+02   4.8093720e+03
   5.2917760e+02   5.0651670e+03
   5.2965970e+02   5.3257080e+03
   5.3014180e+02   5.5883080e+03
   5.3062400e+02   5.8478930e+03
   5.3110610e+02   6.1189530e+03
   5.3158820e+02   6.4052170e+03
   5.3207030e+02   6.7052710e+03
   5.3255240e+02   7.0186150e+03
   5.3303450e+02   7.3448280e+03
   5.3351670e+02   7.6787540e+03
   5.3399880e+02   8.0188680e+03
   5.3448090e+02   8.3629720e+03
   5.3496300e+02   8.7057470e+03
   5.3544510e+02   9.0530640e+03
   5.3592720e+02   9.3957820e+03
   5.3640940e+02   9.7391190e+03
   5.3689150e+02   1.0080480e+04
   5.3737360e+02   1.0403850e+04
   5.3785570e+02   1.0709850e+04
   5.3833780e+02   1.1003630e+04
   5.3881990e+02   1.1288930e+04
   5.3930210e+02   1.1566170e+04
   5.3978420e+02   1.1832480e+04
   5.4026630e+02   1.2092750e+04
   5.4074840e+02   1.2336740e+04
   5.4123050e+02   1.2552510e+04
   5.4171260e+02   1.2742890e+04
   5.4219480e+02   1.2913450e+04
   5.4267690e+02   1.3063680e+04
   5.4315900e+02   1.3194300e+04
   5.4364110e+02   1.3297720e+04
   5.4412320e+02   1.3377330e+04
   5.4460530e+02   1.3445160e+04
   5.4508750e+02   1.3514550e+04
   5.4556960e+02   1.3572800e+04
   5.4605170e+02   1.3608080e+04
   5.4653380e+02   1.3620540e+04
   5.4701590e+02   1.3613920e+04
   5.4749800e+02   1.3595230e+04
   5.4798020e+02   1.3555590e+04
   5.4846230e+02   1.3487430e+04
   5.4894440e+02   1.3381360e+04
   5.4942650e+02   1.3261110e+04
   5.4990860e+02   1.3134960e+04
   5.5039070e+02   1.2994350e+04
   5.5087290e+02   1.2826320e+04
   5.5135500e+02   1.2628770e+04
   5.5183710e+02   1.2406300e+04
   5.5231920e+02   1.2158620e+04
   5.5280130e+02   1.1886710e+04
   5.5328340e+02   1.1599860e+04
   5.5376560e+02   1.1300280e+04
   5.5424770e+02   1.0971720e+04
   5.5472980e+02   1.0594210e+04
   5.5521190e+02   1.0170620e+04
   5.5569400e+02   9.7478180e+03
   5.5617610e+02   9.3243460e+03
   5.5665830e+02   8.9023810e+03
   5.5714040e+02   8.4787460e+03
   5.5762250e+02   8.0574900e+03
   5.5810460e+02   7.6566450e+03
   5.5858670e+02   7.2838340e+03
   5.5906880e+02   6.9124390e+03
   5.5955100e+02   6.5131460e+03
   5.6003310e+02   6.1035610e+03
   5.6051520e+02   5.7081250e+03
   5.6099730e+02   5.3365390e+03
   5.6147940e+02   4.9794320e+03
   5.6196150e+02   4.6462620e+03
   5.6244370e+02   4.3349470e+03
   5.6292580e+02   4.0086720e+03
   5.6340790e+02   3.6447150e+03
   5.6389000e+02   3.2756580e+03
   5.6437210e+02   2.9208960e+03
   5.6485420e+02   2.5853520e+03
   5.6533640e+02   2.2447680e+03
   5.6581850e+02   1.8998550e+03
   5.6630060e+02   1.5568420e+03
   5.6678270e+02   1.2214140e+03
   5.6726480e+02   8.9535940e+02
   5.6774690e+02   5.8799610e+02
   5.6822910e+02   2.9641600e+02
   5.6871120e+02   3.0052730e+01
   5.6919330e+02   1.9825590e+02
   5.6967540e+02   3.8841020e+02
   5.7015750e+02   5.4715230e+02
   5.7063960e+02   6.8312110e+02
   5.7112180e+02   7.8855470e+02
   5.7160390e+02   8.4597460e+02
   5.7208600e+02   8.5678320e+02
   5.7256810e+02   8.3411720e+02
   5.7305020e+02   7.8684180e+02
   5.7353230e+02   7.1069920e+02
   5.7401450e+02   5.9935350e+02
   5.7449660e+02   4.5222850e+02
   5.7497870e+02   2.7560160e+02
   5.7546080e+02   7.6691410e+01
   5.7594290e+02   1.5131450e+02
   5.7642500e+02   4.1250590e+02
   5.7690720e+02   7.2102930e+02
   5.7738930e+02   1.0468610e+03
   5.7787140e+02   1.3791880e+03
   5.7835350e+02   1.7255140e+03
   5.7883560e+02   2.0903850e+03
   5.7931770e+02   2.4701890e+03
   5.7979990e+02   2.8759390e+03
   5.8028200e+02   3.3178070e+03
   5.8076410e+02   3.7914690e+03
   5.8124620e+02   4.2785310e+03
   5.8172830e+02   4.7785330e+03
   5.8221040e+02   5.2987730e+03
   5.8269260e+02   5.8461700e+03
   5.8317470e+02   6.4181800e+03
   5.8365680e+02   7.0037990e+03
   5.8413890e+02   7.6071450e+03
   5.8462100e+02   8.2335640e+03
   5.8510310e+02   8.8819940e+03
   5.8558530e+02   9.5540980e+03
   5.8606740e+02   1.0247750e+04
   5.8654950e+02   1.0957660e+04
   5.8703160e+02   1.1693800e+04
   5.8751370e+02   1.2476580e+04
   5.8799580e+02   1.3292370e+04
   5.8847800e+02   1.4120800e+04
   5.8896010e+02   1.4943080e+04
   5.8944220e+02   1.5791470e+04
   5.8992430e+02   1.6694260e+04
   5.9040640e+02   1.7643880e+04
   5.9088850e+02   1.8577120e+04
   5.9137070e+02   1.9469200e+04
   5.9185280e+02   2.0384450e+04
   5.9233490e+02   2.1358010e+04
   5.9281700e+02   2.2399060e+04
   5.9329910e+02   2.3439160e+04
   5.9378130e+02   2.4480350e+04
   5.9426340e+02   2.5537570e+04
   5.9474550e+02   2.6610010e+04
   5.9522760e+02   2.7702650e+04
   5.9570970e+02   2.8818970e+04
   5.9619180e+02   2.9960310e+04
   5.9667400e+02   3.1127940e+04
   5.9715610e+02   3.2314730e+04
   5.9763820e+02   3.3524430e+04
   5.9812030e+02   3.4734500e+04
   5.9860240e+02   3.5972280e+04
   5.9908450e+02   3.7188090e+04
   5.9956670e+02   3.8342750e+04
   6.0004880e+02   3.9452470e+04
   6.0053090e+02   4.0558020e+04
   6.0101300e+02   4.1679380e+04
   6.0149510e+02   4.2793730e+04
   6.0197720e+02   4.3883220e+04
   6.0245940e+02   4.4956100e+04
   6.0294150e+02   4.5990090e+04
   6.0342360e+02   4.6999260e+04
   6.0390570e+02   4.7953550e+04
   6.0438780e+02   4.8850360e+04
   6.0486990e+02   4.9675420e+04
   6.0535210e+02   5.0441120e+04
   6.0583420e+02   5.1152180e+04
   6.0631630e+02   5.1799200e+04
   6.0679840e+02   5.2386120e+04
   6.0728050e+02   5.2906900e+04
   6.0776260e+02   5.3354520e+04
   6.0824480e+02   5.3729880e+04
   6.0872690e+02   5.4026300e+04
   6.0920900e+02   5.4234980e+04
   6.0969110e+02   5.4364360e+04
   6.1017320e+02   5.4444590e+04
   6.1065530e+02   5.4523480e+04
   6.1113750e+02   5.4527060e+04
   6.1161960e+02   5.4388040e+04
   6.1210170e+02   5.4115230e+04
   6.1258380e+02   5.3808660e+04
   6.1306590e+02   5.3528450e+04
   6.1354800e+02   5.3193090e+04
   6.1403020e+02   5.2758300e+04
   6.1451230e+02   5.2215360e+04
   6.1499440e+02   5.1624910e+04
   6.1547650e+02   5.0978690e+04
   6.1595860e+02   5.0303500e+04
   6.1644070e+02   4.9614880e+04
   6.1692290e+02   4.8925050e+04
   6.1740500e+02   4.8197860e+04
   6.1788710e+02   4.7418560e+04
   6.1836920e+02   4.6609770e+04
   6.1885130e+02   4.5801540e+04
   6.1933340e+02   4.4993880e+04
   6.1981560e+02   4.4158560e+04
   6.2029770e+02   4.3286620e+04
   6.2077980e+02   4.2407530e+04
   6.2126190e+02   4.1567340e+04
   6.2174400e+02   4.0756770e+04
   6.2222610e+02   3.9930460e+04
   6.2270830e+02   3.9061180e+04
   6.2319040e+02   3.8185120e+04
   6.2367250e+02   3.7312140e+04
   6.2415460e+02   3.6451300e+04
   6.2463670e+02   3.5616550e+04
   6.2511880e+02   3.4831430e+04
   6.2560100e+02   3.4056550e+04
   6.2608310e+02   3.3270640e+04
   6.2656520e+02   3.2466090e+04
   6.2704730e+02   3.1685750e+04
   6.2752940e+02   3.0938550e+04
   6.2801150e+02   3.0202940e+04
   6.2849370e+02   2.9469350e+04
   6.2897580e+02   2.8732340e+04
   6.2945790e+02   2.7996040e+04
   6.2994000e+02   2.7257380e+04
   6.3042210e+02   2.6521850e+04
   6.3090420e+02   2.5789930e+04
   6.3138640e+02   2.5064410e+04
   6.3186850e+02   2.4367030e+04
   6.3235060e+02   2.3706290e+04
   6.3283270e+02   2.3068620e+04
   6.3331480e+02   2.2448280e+04
   6.3379690e+02   2.1835940e+04
   6.3427910e+02   2.1224860e+04
   6.3476120e+02   2.0588520e+04
   6.3524330e+02   1.9968710e+04
   6.3572540e+02   1.9384360e+04
   6.3620750e+02   1.8840370e+04
   6.3668960e+02   1.8306230e+04
   6.3717180e+02   1.7772270e+04
   6.3765390e+02   1.7253640e+04
   6.3813600e+02   1.6758370e+04
   6.3861810e+02   1.6294730e+04
   6.3910020e+02   1.5828170e+04
   6.3958230e+02   1.5351900e+04
   6.4006450e+02   1.4887180e+04
   6.4054660e+02   1.4460080e+04
   6.4102870e+02   1.4063080e+04
   6.4151080e+02   1.3662270e+04
   6.4199290e+02   1.3252550e+04
   6.4247500e+02   1.2851810e+04
   6.4295720e+02   1.2487820e+04
   6.4343930e+02   1.2152710e+04
   6.4392140e+02   1.1826600e+04
   6.4440350e+02   1.1502440e+04
   6.4488560e+02   1.1190720e+04
   6.4536770e+02   1.0904680e+04
   6.4584990e+02   1.0635710e+04
   6.4633200e+02   1.0372780e+04
   6.4681410e+02   1.0104980e+04
   6.4729620e+02   9.8484240e+03
   6.4777830e+02   9.6124020e+03
   6.4826040e+02   9.3949080e+03
   6.4874260e+02   9.1632870e+03
   6.4922470e+02   8.9094140e+03
   6.4970680e+02   8.6616930e+03
   6.5018880e+02   8.4316930e+03
   6.5067100e+02   8.2209790e+03
   6.5115310e+02   8.0158890e+03
   6.5163520e+02   7.8211500e+03
   6.5211730e+02   7.6289880e+03
   6.5259940e+02   7.4303870e+03
   6.5308150e+02   7.2279380e+03
   6.5356370e+02   7.0234160e+03
   6.5404580e+02   6.8129880e+03
   6.5452790e+02   6.6132910e+03
   6.5501000e+02   6.4411250e+03
   6.5549210e+02   6.2836640e+03
   6.5597420e+02   6.1260510e+03
   6.5645640e+02   5.9606620e+03
   6.5693850e+02   5.8006150e+03
   6.5742060e+02   5.6502070e+03
   6.5790270e+02   5.5069140e+03
   6.5838480e+02   5.3706430e+03
   6.5886690e+02   5.2454060e+03
   6.5934910e+02   5.1166760e+03
   6.5983120e+02   4.9816910e+03
   6.6031330e+02   4.8408730e+03
   6.6079540e+02   4.6850430e+03
   6.6127750e+02   4.5134390e+03
   6.6175960e+02   4.3578480e+03
   6.6224180e+02   4.2395960e+03
   6.6272390e+02   4.1425620e+03
   6.6320600e+02   4.0351210e+03
   6.6368810e+02   3.9179740e+03
   6.6417020e+02   3.7991040e+03
   6.6465230e+02   3.6869790e+03
   6.6513450e+02   3.5738790e+03
   6.6561660e+02   3.4496880e+03
   6.6609870e+02   3.3126190e+03
   6.6658080e+02   3.1823980e+03
   6.6706290e+02   3.0664050e+03
   6.6754500e+02   2.9611250e+03
   6.6802720e+02   2.8678840e+03
   6.6850930e+02   2.7951120e+03
   6.6899140e+02   2.7115720e+03
   6.6947350e+02   2.6090390e+03
   6.6995560e+02   2.5050840e+03
   6.7043770e+02   2.4169240e+03
   6.7091990e+02   2.3468420e+03
   6.7140200e+02   2.2744080e+03
   6.7188410e+02   2.1959360e+03
   6.7236620e+02   2.1170100e+03
   6.7284830e+02   2.0545500e+03
   6.7333040e+02   2.0003320e+03
   6.7381260e+02   1.9298580e+03
   6.7429470e+02   1.8181290e+03
   6.7477680e+02   1.7088500e+03
   6.7525890e+02   1.6386340e+03
   6.7574100e+02   1.5955820e+03
   6.7622310e+02   1.5521040e+03
   6.7670530e+02   1.4963560e+03
   6.7718740e+02   1.4413690e+03
   6.7766950e+02   1.3952410e+03
   6.7815160e+02   1.3555740e+03
   6.7863370e+02   1.3019540e+03
   6.7911580e+02   1.2234240e+03
   6.7959800e+02   1.1463690e+03
   6.8008010e+02   1.0822030e+03
   6.8056220e+02   1.0316330e+03
   6.8104430e+02   9.6955270e+02
   6.8152640e+02   8.9618650e+02
   6.8200850e+02   8.2734080e+02
   6.8249070e+02   7.7954590e+02
   6.8297280e+02   7.4553420e+02
   6.8345490e+02   7.0578420e+02
   6.8393700e+02   6.5991410e+02
   6.8441910e+02   6.1715430e+02
   6.8490120e+02   5.9204100e+02
   6.8538340e+02   5.7043550e+02
   6.8586550e+02   5.3751950e+02
   6.8634760e+02   4.8711230e+02
   6.8682970e+02   4.3931250e+02
   6.8731180e+02   4.0198050e+02
   6.8779390e+02   3.6928810e+02
   6.8827610e+02   3.3588090e+02
   6.8875820e+02   2.9893850e+02
   6.8924030e+02   2.6804000e+02
   6.8972240e+02   2.4343160e+02
   6.9020450e+02   2.2577440e+02
   6.9068660e+02   2.1688770e+02
   6.9116880e+02   2.1682030e+02
   6.9165090e+02   2.1193360e+02
   6.9213300e+02   1.9860350e+02
   6.9261510e+02   1.7908200e+02
   6.9309720e+02   1.5579790e+02
   6.9357930e+02   1.2987890e+02
   6.9406150e+02   1.0683110e+02
   6.9454360e+02   8.3791020e+01
   6.9502570e+02   6.5521480e+01
   6.9550780e+02   6.0199220e+01
   6.9598990e+02   6.3799800e+01
   6.9647200e+02   5.8461910e+01
   6.9695420e+02   2.8947270e+01
   6.9743630e+02   7.1972700e-01
   6.9791840e+02   1.6514650e+01
   6.9840050e+02   2.3419920e+01
   6.9888260e+02   2.9208010e+01
   6.9936470e+02   3.5014650e+01
   6.9984690e+02   3.6865230e+01
   7.0032900e+02   2.7725590e+01
   7.0081110e+02   1.0822270e+01
   7.0129320e+02   1.2228520e+01
   7.0177530e+02   3.1670900e+01
   7.0225740e+02   5.2560550e+01
   7.0273960e+02   5.9545900e+01
   7.0322170e+02   6.0352540e+01
   7.0370380e+02   6.3714840e+01
   7.0418590e+02   7.0555660e+01
   7.0466800e+02   8.4784180e+01
   7.0515010e+02   1.2059280e+02
   7.0563230e+02   1.5684670e+02
   7.0611440e+02   1.7685640e+02
   7.0659650e+02   1.6718650e+02
   7.0707860e+02   1.5775390e+02
   7.0756070e+02   1.4433980e+02
   7.0804280e+02   1.3521000e+02
   7.0852500e+02   1.4310160e+02
   7.0900710e+02   1.7249120e+02
   7.0948920e+02   1.8991800e+02
   7.0997130e+02   1.9043160e+02
   7.1045340e+02   1.8240820e+02
   7.1093550e+02   1.7670610e+02
   7.1141770e+02   1.7318950e+02
   7.1189980e+02   1.7006450e+02
   7.1238190e+02   1.6815920e+02
   7.1286400e+02   1.6557520e+02
   7.1334610e+02   1.5514360e+02
   7.1382820e+02   1.4279590e+02
   7.1431040e+02   1.3897360e+02
   7.1479250e+02   1.5946580e+02
   7.1527460e+02   1.7425100e+02
   7.1575670e+02   1.7189940e+02
   7.1623880e+02   1.5732520e+02
   7.1672090e+02   1.4521290e+02
   7.1720310e+02   1.3277540e+02
   7.1768520e+02   1.2697460e+02
   7.1816730e+02   1.3371970e+02
   7.1864940e+02   1.4778030e+02
   7.1913150e+02   1.4950680e+02
   7.1961360e+02   1.3860250e+02
   7.2009580e+02   1.2497270e+02
   7.2057790e+02   1.1036230e+02
   7.2106000e+02   9.7830080e+01
   7.2154210e+02   9.2324220e+01
   7.2202420e+02   9.3416020e+01
   7.2250630e+02   9.3832030e+01
   7.2298850e+02   9.5138670e+01
   7.2347060e+02   9.0626950e+01
   7.2395270e+02   7.0783200e+01
   7.2443480e+02   3.2409180e+01
   7.2491690e+02   9.6201170e+00
   7.2539900e+02   1.0420900e+01
   7.2588120e+02   1.8695310e+01
   7.2636330e+02   2.7114260e+01
   7.2684540e+02   3.5891600e+01
   7.2732750e+02   3.4933590e+01
   7.2780960e+02   2.1853520e+01
   7.2829170e+02   9.7631840e+00
   7.2877390e+02   1.5353030e+01
   7.2925600e+02   3.0279790e+01
   7.2973810e+02   3.1780270e+01
   7.3022020e+02   1.5969240e+01
   7.3070230e+02   4.5654300e-01
   7.3118440e+02   3.9394530e+00
   7.3166660e+02   1.7988280e+00
   7.3214870e+02   1.5258790e+00
   7.3263080e+02   7.8745120e+00
   7.3311290e+02   9.7968750e+00
   7.3359500e+02   1.0097660e+00
   7.3407710e+02   1.3769530e+01
   7.3455930e+02   1.8826660e+01
   7.3504140e+02   1.4420410e+01
   7.3552350e+02   9.6635740e+00
   7.3600560e+02   7.7543950e+00
   7.3648770e+02   1.1826170e+00
   7.3696980e+02   3.0806640e+01
   7.3745200e+02   8.0002440e+01
   7.3793410e+02   1.0247310e+02
   7.3841620e+02   8.0294920e+01
   7.3889830e+02   4.5378910e+01
   7.3938040e+02   2.5204590e+01
   7.3986250e+02   1.6245610e+01
   7.4034470e+02   1.1413090e+01
   7.4082680e+02   1.2435060e+01
   7.4130890e+02   1.2821290e+01
   7.4179100e+02   8.3364260e+00
   7.4227310e+02   2.2709960e+00
   7.4275520e+02   2.2060550e+00
   7.4323740e+02   1.2175780e+01
   7.4371950e+02   2.0301760e+01
   7.4420160e+02   2.4334960e+01
   7.4468370e+02   2.5249020e+01
   7.4516580e+02   2.6082030e+01
   7.4564790e+02   2.6577640e+01
   7.4613010e+02   2.5121090e+01
   7.4661220e+02   1.7363770e+01
   7.4709430e+02   1.0169920e+01
   7.4757640e+02   1.5009770e+01
   7.4805850e+02   2.9073240e+01
   7.4854060e+02   4.3331050e+01
   7.4902280e+02   5.5761230e+01
   7.4950490e+02   6.5339360e+01
   7.4998700e+02   7.2258790e+01
   7.5046910e+02   7.6172850e+01
   7.5095120e+02   7.4854000e+01
   7.5143330e+02   6.1117680e+01
   7.5191550e+02   5.4666020e+01
   7.5239760e+02   6.4519530e+01
   7.5287970e+02   8.7500490e+01
   7.5336180e+02   1.0091310e+02
   7.5384390e+02   1.0453660e+02
   7.5432600e+02   1.0823540e+02
   7.5480820e+02   1.2042380e+02
   7.5529030e+02   1.3576900e+02
   7.5577240e+02   1.4446440e+02
   7.5625450e+02   1.4720850e+02
   7.5673660e+02   1.5099850e+02
   7.5721880e+02   1.6026070e+02
   7.5770090e+02   1.7117430e+02
   7.5818300e+02   1.8216360e+02
   7.5866510e+02   1.9346440e+02
   7.5914720e+02   2.0155130e+02
   7.5962930e+02   2.0551710e+02
   7.6011150e+02   2.0644680e+02
   7.6059360e+02   2.0309130e+02
   7.6107570e+02   1.9553910e+02
   7.6155780e+02   2.0061470e+02
   7.6203990e+02   2.1952930e+02
   7.6252200e+02   2.4084670e+02
   7.6300420e+02   2.5684380e+02
   7.6348630e+02   2.6751170e+02
   7.6396840e+02   2.7216990e+02
   7.6445050e+02   2.7187210e+02
   7.6493260e+02   2.7238090e+02
   7.6541470e+02   2.7788430e+02
   7.6589690e+02   2.8540820e+02
   7.6637900e+02   2.9223050e+02
   7.6686110e+02   2.9771140e+02
   7.6734320e+02   3.0062450e+02
   7.6782530e+02   2.9965190e+02
   7.6830740e+02   2.9978960e+02
   7.6878960e+02   3.0504690e+02
   7.6927170e+02   3.1623100e+02
   7.6975380e+02   3.2413180e+02
   7.7023590e+02   3.2822070e+02
   7.7071800e+02   3.3095260e+02
   7.7120010e+02   3.3598100e+02
   7.7168230e+02   3.4171440e+02
   7.7216440e+02   3.4344480e+02
   7.7264650e+02   3.3855570e+02
   7.7312850e+02   3.3440580e+02
   7.7361070e+02   3.4083200e+02
   7.7409280e+02   3.4885350e+02
   7.7457490e+02   3.4818850e+02
   7.7505700e+02   3.2675000e+02
   7.7553910e+02   3.2173490e+02
   7.7602120e+02   3.4582030e+02
   7.7650340e+02   3.7270560e+02
   7.7698550e+02   3.7882280e+02
   7.7746760e+02   3.6321780e+02
   7.7794970e+02   3.4691210e+02
   7.7843180e+02   3.3114500e+02
   7.7891390e+02   3.1776420e+02
   7.7939610e+02   3.0850150e+02
   7.7987820e+02   3.0266160e+02
   7.8036030e+02   3.0057760e+02
   7.8084240e+02   3.0360060e+02
   7.8132450e+02   3.0512110e+02
   7.8180660e+02   2.9920650e+02
   7.8228880e+02   2.9285990e+02
   7.8277090e+02   2.9118950e+02
   7.8325300e+02   3.0069190e+02
   7.8373510e+02   3.0144820e+02
   7.8421720e+02   2.8809910e+02
   7.8469930e+02   2.7168650e+02
   7.8518150e+02   2.6629830e+02
   7.8566360e+02   2.7289400e+02
   7.8614570e+02   2.7810840e+02
   7.8662780e+02   2.7897120e+02
   7.8710990e+02   2.7799760e+02
   7.8759200e+02   2.8025880e+02
   7.8807420e+02   2.8489400e+02
   7.8855630e+02   2.8789790e+02
   7.8903840e+02   2.8610210e+02
   7.8952050e+02   2.8529880e+02
   7.9000260e+02   2.9133500e+02
   7.9048470e+02   2.9928760e+02
   7.9096690e+02   3.0256570e+02
   7.9144900e+02   2.9385990e+02
   7.9193110e+02   2.9033060e+02
   7.9241320e+02   2.9432930e+02
   7.9289530e+02   3.0263260e+02
   7.9337740e+02   3.1042920e+02
   7.9385960e+02   3.1760820e+02
   7.9434170e+02   3.2777540e+02
   7.9482380e+02   3.4402880e+02
   7.9530590e+02   3.5987260e+02
   7.9578800e+02   3.6191940e+02
   7.9627010e+02   3.5718430e+02
   7.9675230e+02   3.5875880e+02
   7.9723440e+02   3.7513820e+02
   7.9771650e+02   3.9057370e+02
   7.9819860e+02   3.9833150e+02
   7.9868070e+02   4.0330080e+02
   7.9916280e+02   4.1131540e+02
   7.9964500e+02   4.2495510e+02
   8.0012710e+02   4.3414700e+02
   8.0060920e+02   4.3636790e+02
   8.0109130e+02   4.3915890e+02
   8.0157340e+02   4.5362210e+02
   8.0205550e+02   4.7753300e+02
   8.0253770e+02   4.9856400e+02
   8.0301980e+02   5.1368510e+02
   8.0350190e+02   5.2879100e+02
   8.0398400e+02   5.4923070e+02
   8.0446610e+02   5.7313750e+02
   8.0494820e+02   5.9862400e+02
   8.0543040e+02   6.3040820e+02
   8.0591250e+02   6.5744120e+02
   8.0639460e+02   6.6980370e+02
   8.0687670e+02   6.8011650e+02
   8.0735880e+02   7.0136960e+02
   8.0784090e+02   7.3587670e+02
   8.0832310e+02   7.7150290e+02
   8.0880520e+02   8.0714500e+02
   8.0928730e+02   8.4257740e+02
   8.0976940e+02   8.8162280e+02
   8.1025150e+02   9.2206100e+02
   8.1073360e+02   9.5430520e+02
   8.1121580e+02   9.7292750e+02
   8.1169790e+02   9.9286280e+02
   8.1218000e+02   1.0296940e+03
   8.1266210e+02   1.0720840e+03
   8.1314420e+02   1.1076870e+03
   8.1362630e+02   1.1305650e+03
   8.1410850e+02   1.1510580e+03
   8.1459060e+02   1.1670570e+03
   8.1507270e+02   1.1839520e+03
   8.1555480e+02   1.2100020e+03
   8.1603690e+02   1.2463020e+03
   8.1651900e+02   1.2727780e+03
   8.1700120e+02   1.2868090e+03
   8.1748330e+02   1.2946350e+03
   8.1796540e+02   1.3031570e+03
   8.1844750e+02   1.3104910e+03
   8.1892960e+02   1.3128750e+03
   8.1941170e+02   1.3091840e+03
   8.1989390e+02   1.3038340e+03
   8.2037600e+02   1.2975600e+03
   8.2085810e+02   1.2913390e+03
   8.2134020e+02   1.2864760e+03
   8.2182230e+02   1.2863540e+03
   8.2230440e+02   1.2786090e+03
   8.2278660e+02   1.2607970e+03
   8.2326870e+02   1.2397990e+03
   8.2375080e+02   1.2220430e+03
   8.2423290e+02   1.2073390e+03
   8.2471500e+02   1.1945880e+03
   8.2519710e+02   1.1839260e+03
   8.2567930e+02   1.1733990e+03
   8.2616140e+02   1.1621050e+03
   8.2664350e+02   1.1498960e+03
   8.2712560e+02   1.1364480e+03
   8.2760770e+02   1.1214990e+03
   8.2808980e+02   1.1061790e+03
   8.2857200e+02   1.0855660e+03
   8.2905410e+02   1.0690580e+03
   8.2953620e+02   1.0646270e+03
   8.3001830e+02   1.0759760e+03
   8.3050040e+02   1.0772490e+03
   8.3098250e+02   1.0663040e+03
   8.3146470e+02   1.0560170e+03
   8.3194680e+02   1.0598880e+03
   8.3242890e+02   1.0725250e+03
   8.3291100e+02   1.0809680e+03
   8.3339310e+02   1.0843300e+03
   8.3387520e+02   1.0933500e+03
   8.3435740e+02   1.1160900e+03
   8.3483950e+02   1.1454430e+03
   8.3532160e+02   1.1768030e+03
   8.3580370e+02   1.2099730e+03
   8.3628580e+02   1.2441220e+03
   8.3676790e+02   1.2773610e+03
   8.3725010e+02   1.3156390e+03
   8.3773220e+02   1.3632040e+03
   8.3821430e+02   1.4193670e+03
   8.3869640e+02   1.4788910e+03
   8.3917850e+02   1.5418190e+03
   8.3966060e+02   1.6076060e+03
   8.4014280e+02   1.6740340e+03
   8.4062490e+02   1.7448180e+03
   8.4110700e+02   1.8241870e+03
   8.4158910e+02   1.9120500e+03
   8.4207120e+02   2.0081730e+03
   8.4255330e+02   2.1213970e+03
   8.4303550e+02   2.2336840e+03
   8.4351760e+02   2.3349180e+03
   8.4399970e+02   2.4268630e+03
   8.4448180e+02   2.5384100e+03
   8.4496390e+02   2.6729960e+03
   8.4544600e+02   2.8056510e+03
   8.4592820e+02   2.9186380e+03
   8.4641030e+02   3.0231170e+03
   8.4689240e+02   3.1418780e+03
   8.4737450e+02   3.2731580e+03
   8.4785660e+02   3.4073690e+03
   8.4833870e+02   3.5399750e+03
   8.4882090e+02   3.6737040e+03
   8.4930300e+02   3.8108470e+03
   8.4978510e+02   3.9507260e+03
   8.5026720e+02   4.0904740e+03
   8.5074930e+02   4.2320660e+03
   8.5123140e+02   4.3666350e+03
   8.5171360e+02   4.4913360e+03
   8.5219570e+02   4.6079760e+03
   8.5267780e+02   4.7230510e+03
   8.5315990e+02   4.8349790e+03
   8.5364200e+02   4.9296830e+03
   8.5412410e+02   4.9973780e+03
   8.5460630e+02   5.0487370e+03
   8.5508840e+02   5.0924920e+03
   8.5557050e+02   5.1266620e+03
   8.5605260e+02   5.1467250e+03
   8.5653470e+02   5.1609800e+03
   8.5701680e+02   5.1472910e+03
   8.5749900e+02   5.1008700e+03
   8.5798110e+02   5.0266780e+03
   8.5846320e+02   4.9316040e+03
   8.5894530e+02   4.8134980e+03
   8.5942740e+02   4.6994840e+03
   8.5990950e+02   4.6004580e+03
   8.6039170e+02   4.4966510e+03
   8.6087380e+02   4.3525560e+03
   8.6135590e+02   4.1868910e+03
   8.6183800e+02   4.0344880e+03
   8.6232010e+02   3.9131000e+03
   8.6280220e+02   3.7915290e+03
   8.6328440e+02   3.6554660e+03
   8.6376650e+02   3.5158900e+03
   8.6424860e+02   3.3870970e+03
   8.6473070e+02   3.2700500e+03
   8.6521280e+02   3.1564640e+03
   8.6569490e+02   3.0418330e+03
   8.6617710e+02   2.9383780e+03
   8.6665920e+02   2.8574720e+03
   8.6714130e+02   2.7965450e+03
   8.6762340e+02   2.7479340e+03
   8.6810550e+02   2.7119270e+03
   8.6858760e+02   2.6790940e+03
   8.6906980e+02   2.6403230e+03
   8.6955190e+02   2.6035780e+03
   8.7003400e+02   2.5747920e+03
   8.7051610e+02   2.5572750e+03
   8.7099820e+02   2.5404520e+03
   8.7148030e+02   2.5251950e+03
   8.7196250e+02   2.5092200e+03
   8.7244460e+02   2.4898410e+03
   8.7292670e+02   2.4679650e+03
   8.7340880e+02   2.4536920e+03
   8.7389090e+02   2.4468400e+03
   8.7437300e+02   2.4378000e+03
   8.7485520e+02   2.4183210e+03
   8.7533730e+02   2.3941340e+03
   8.7581940e+02   2.3700250e+03
   8.7630150e+02   2.3462370e+03
   8.7678360e+02   2.3199150e+03
   8.7726570e+02   2.2847130e+03
   8.7774790e+02   2.2547720e+03
   8.7823000e+02   2.2363870e+03
   8.7871210e+02   2.2267550e+03
   8.7919420e+02   2.2115950e+03
   8.7967630e+02   2.1908770e+03
   8.8015840e+02   2.1691820e+03
   8.8064060e+02   2.1492270e+03
   8.8112270e+02   2.1299270e+03
   8.8160480e+02   2.1115260e+03
   8.8208690e+02   2.0918600e+03
   8.8256900e+02   2.0663370e+03
   8.8305110e+02   2.0282940e+03
   8.8353330e+02   1.9916560e+03
   8.8401540e+02   1.9632160e+03
   8.8449750e+02   1.9364070e+03
   8.8497960e+02   1.9004220e+03
   8.8546170e+02   1.8548780e+03
   8.8594380e+02   1.7993480e+03
   8.8642600e+02   1.7309000e+03
   8.8690810e+02   1.6599590e+03
   8.8739020e+02   1.6046240e+03
   8.8787230e+02   1.5566700e+03
   8.8835440e+02   1.4994300e+03
   8.8883650e+02   1.4224890e+03
   8.8931870e+02   1.3480820e+03
   8.8980080e+02   1.2852260e+03
   8.9028290e+02   1.2294530e+03
   8.9076500e+02   1.1762290e+03
   8.9124710e+02   1.1273910e+03
   8.9172920e+02   1.0746200e+03
   8.9221140e+02   1.0161880e+03
   8.9269350e+02   9.5967940e+02
   8.9317560e+02   9.1292600e+02
   8.9365770e+02   8.7476640e+02
   8.9413980e+02   8.4465940e+02
   8.9462190e+02   8.2307690e+02
   8.9510410e+02   8.0222710e+02
   8.9558620e+02   7.7144920e+02
   8.9606830e+02   7.4408740e+02
   8.9655040e+02   7.2892720e+02
   8.9703250e+02   7.2772970e+02
   8.9751460e+02   7.3416160e+02
   8.9799670e+02   7.5175460e+02
   8.9847880e+02   7.6902880e+02
   8.9896090e+02   7.7851610e+02
   8.9944310e+02   7.8314090e+02
   8.9992520e+02   7.9357670e+02
   9.0040730e+02   8.0982840e+02
   9.0088940e+02   8.3216410e+02
   9.0137150e+02   8.6380520e+02
   9.0185360e+02   8.9878470e+02
   9.0233580e+02   9.3013920e+02
   9.0281790e+02   9.6074390e+02
   9.0330000e+02   1.0022470e+03
   9.0378210e+02   1.0612670e+03
   9.0426420e+02   1.1199310e+03
   9.0474630e+02   1.1746750e+03
   9.0522850e+02   1.2263400e+03
   9.0571060e+02   1.2754450e+03
   9.0619270e+02   1.3228290e+03
   9.0667480e+02   1.3753720e+03
   9.0715690e+02   1.4368190e+03
   9.0763900e+02   1.4999840e+03
   9.0812120e+02   1.5621110e+03
   9.0860330e+02   1.6208890e+03
   9.0908540e+02   1.6724100e+03
   9.0956750e+02   1.7109840e+03
   9.1004960e+02   1.7505670e+03
   9.1053170e+02   1.7972030e+03
   9.1101390e+02   1.8374880e+03
   9.1149600e+02   1.8567660e+03
   9.1197810e+02   1.8562420e+03
   9.1246020e+02   1.8516900e+03
   9.1294230e+02   1.8445980e+03
   9.1342440e+02   1.8267100e+03
   9.1390660e+02   1.7869150e+03
   9.1438870e+02   1.7349430e+03
   9.1487080e+02   1.6823360e+03
   9.1535290e+02   1.6307040e+03
   9.1583500e+02   1.5656550e+03
   9.1631710e+02   1.4794510e+03
   9.1679930e+02   1.3873440e+03
   9.1728140e+02   1.2944190e+03
   9.1776350e+02   1.2008590e+03
   9.1824560e+02   1.1059500e+03
   9.1872770e+02   1.0108280e+03
   9.1920980e+02   9.2119430e+02
   9.1969200e+02   8.4325810e+02
   9.2017410e+02   7.7017190e+02
   9.2065620e+02   6.9384670e+02
   9.2113830e+02   6.1693550e+02
   9.2162040e+02   5.4625610e+02
   9.2210250e+02   4.8641360e+02
   9.2258470e+02   4.3119360e+02
   9.2306680e+02   3.7993600e+02
   9.2354890e+02   3.3196560e+02
   9.2403100e+02   2.8558620e+02
   9.2451310e+02   2.4072950e+02
   9.2499520e+02   2.0069700e+02
   9.2547740e+02   1.6601540e+02
   9.2595950e+02   1.3505690e+02
   9.2644160e+02   1.0603370e+02
   9.2692370e+02   7.9252440e+01
   9.2740580e+02   5.4273930e+01
   9.2788790e+02   3.0013430e+01
   9.2837010e+02   1.0612300e+01
   9.2885220e+02   1.2478030e+00
   9.2933430e+02   1.1021000e+01
   9.2981640e+02   2.2234860e+01
   9.3029850e+02   3.4785890e+01
   9.3078060e+02   4.7052250e+01
   9.3126280e+02   5.9130620e+01
   9.3174490e+02   6.9166020e+01
   9.3222700e+02   7.5535160e+01
   9.3270910e+02   7.9645390e+01
   9.3319120e+02   8.2222290e+01
   9.3367330e+02   8.3489500e+01
   9.3415550e+02   8.6316040e+01
   9.3463760e+02   9.3819820e+01
   9.3511970e+02   9.9714110e+01
   9.3560180e+02   1.0208750e+02
   9.3608390e+02   1.0196340e+02
   9.3656600e+02   1.0245370e+02
   9.3704820e+02   1.0362510e+02
   9.3753030e+02   1.0655310e+02
   9.3801240e+02   1.1400630e+02
   9.3849450e+02   1.1926930e+02
   9.3897660e+02   1.1189280e+02
   9.3945870e+02   9.9471800e+01
   9.3994090e+02   9.3517940e+01
   9.4042300e+02   1.0754610e+02
   9.4090510e+02   1.1229280e+02
   9.4138720e+02   1.0350290e+02
   9.4186930e+02   8.9490720e+01
   9.4235140e+02   7.6832640e+01
   9.4283360e+02   6.5996580e+01
   9.4331570e+02   6.4002080e+01
   9.4379780e+02   7.1837040e+01
   9.4427990e+02   7.6940800e+01
   9.4476200e+02   6.5785520e+01
   9.4524410e+02   4.9535890e+01
   9.4572630e+02   3.8059690e+01
   9.4620840e+02   3.2473390e+01
   9.4669050e+02   2.5302370e+01
   9.4717260e+02   1.5407960e+01
   9.4765470e+02   4.8223880e+00
   9.4813680e+02   6.4287110e+00
   9.4861900e+02   1.7404790e+01
   9.4910110e+02   2.3700440e+01
   9.4958320e+02   2.6180540e+01
   9.5006530e+02   2.9880370e+01
   9.5054740e+02   3.5574340e+01
   9.5102950e+02   4.5186520e+01
   9.5151170e+02   6.3044430e+01
   9.5199380e+02   8.5162960e+01
   9.5247590e+02   1.0365270e+02
   9.5295800e+02   1.1600960e+02
   9.5344010e+02   1.2880740e+02
   9.5392220e+02   1.4284110e+02
   9.5440440e+02   1.5689600e+02
   9.5488650e+02   1.6855520e+02
   9.5536860e+02   1.7892110e+02
   9.5585070e+02   1.9278440e+02
   9.5633280e+02   2.1115600e+02
   9.5681490e+02   2.2749790e+02
   9.5729710e+02   2.3513150e+02
   9.5777920e+02   2.4086610e+02
   9.5826130e+02   2.5031710e+02
   9.5874340e+02   2.6418210e+02
   9.5922550e+02   2.7492410e+02
   9.5970760e+02   2.8135220e+02
   9.6018980e+02   2.8845670e+02
   9.6067190e+02   3.0002690e+02
   9.6115400e+02   3.1321520e+02
   9.6163610e+02   3.1977880e+02
   9.6211820e+02   3.2170030e+02
   9.6260030e+02   3.2604490e+02
   9.6308250e+02   3.3789340e+02
   9.6356460e+02   3.5096420e+02
   9.6404670e+02   3.6373770e+02
   9.6452880e+02   3.7571620e+02
   9.6501090e+02   3.8642810e+02
   9.6549300e+02   3.9608810e+02
   9.6597520e+02   4.0307910e+02
   9.6645730e+02   4.0660460e+02
   9.6693940e+02   4.0987600e+02
   9.6742150e+02   4.1674900e+02
   9.6790360e+02   4.2610440e+02
   9.6838570e+02   4.3602220e+02
   9.6886790e+02   4.4618120e+02
   9.6935000e+02   4.5760620e+02
   9.6983210e+02   4.7347950e+02
   9.7031420e+02   4.8802560e+02
   9.7079630e+02   4.9765330e+02
   9.7127840e+02   5.0270700e+02
   9.7176060e+02   5.0991090e+02
   9.7224270e+02   5.1920180e+02
   9.7272480e+02   5.3207200e+02
   9.7320690e+02   5.5302760e+02
   9.7368900e+02   5.7471770e+02
   9.7417110e+02   5.8575370e+02
   9.7465330e+02   5.9033920e+02
   9.7513540e+02   5.9868660e+02
   9.7561750e+02   6.1684230e+02
   9.7609960e+02   6.3501750e+02
   9.7658170e+02   6.5221610e+02
   9.7706380e+02   6.6835230e+02
   9.7754600e+02   6.8238840e+02
   9.7802810e+02   6.9478170e+02
   9.7851020e+02   7.1000900e+02
   9.7899230e+02   7.2874220e+02
   9.7947440e+02   7.4846330e+02
   9.7995650e+02   7.6805030e+02
   9.8043870e+02   7.8670070e+02
   9.8092080e+02   8.0293140e+02
   9.8140290e+02   8.1598390e+02
   9.8188500e+02   8.3207030e+02
   9.8236710e+02   8.5175730e+02
   9.8284920e+02   8.7348020e+02
   9.8333140e+02   8.9855360e+02
   9.8381350e+02   9.2403480e+02
   9.8429560e+02   9.3795780e+02
   9.8477770e+02   9.4345730e+02
   9.8525980e+02   9.5315530e+02
   9.8574190e+02   9.7808360e+02
   9.8622410e+02   1.0026350e+03
   9.8670620e+02   1.0171530e+03
   9.8718830e+02   1.0274060e+03
   9.8767040e+02   1.0434740e+03
   9.8815250e+02   1.0683330e+03
   9.8863460e+02   1.0868310e+03
   9.8911680e+02   1.0966320e+03
   9.8959890e+02   1.1048830e+03
   9.9008100e+02   1.1212260e+03
   9.9056310e+02   1.1405620e+03
   9.9104520e+02   1.1545710e+03
   9.9152730e+02   1.1626530e+03
   9.9200950e+02   1.1688460e+03
   9.9249160e+02   1.1757890e+03
   9.9297370e+02   1.1785310e+03
   9.9345580e+02   1.1741080e+03
   9.9393790e+02   1.1642100e+03
   9.9442000e+02   1.1581390e+03
   9.9490220e+02   1.1556880e+03
   9.9538430e+02   1.1511370e+03
   9.9586640e+02   1.1414130e+03
   9.9634850e+02   1.1292720e+03
   9.9683060e+02   1.1177750e+03
   9.9731270e+02   1.1072270e+03
   9.9779490e+02   1.0970780e+03
   9.9827700e+02   1.0829370e+03
   9.9875910e+02   1.0742850e+03
   9.9924120e+02   1.0756920e+03
   9.9972330e+02   1.0781560e+03
   1.0002050e+03   1.0705150e+03
   1.0006880e+03   1.0551990e+03
   1.0011700e+03   1.0453420e+03
   1.0016520e+03   1.0408380e+03
   1.0021340e+03   1.0393880e+03
   1.0026160e+03   1.0431510e+03
   1.0030980e+03   1.0482150e+03
   1.0035800e+03   1.0510610e+03
   1.0040620e+03   1.0518360e+03
   1.0045440e+03   1.0545260e+03
   1.0050270e+03   1.0597090e+03
   1.0055090e+03   1.0654990e+03
   1.0059910e+03   1.0712170e+03
   1.0064730e+03   1.0777050e+03
   1.0069550e+03   1.0874750e+03
   1.0074370e+03   1.0985020e+03
   1.0079190e+03   1.1074550e+03
   1.0084010e+03   1.1133520e+03
   1.0088840e+03   1.1172620e+03
   1.0093660e+03   1.1156120e+03
   1.0098480e+03   1.1153540e+03
   1.0103300e+03   1.1224830e+03
   1.0108120e+03   1.1373310e+03
   1.0112940e+03   1.1456010e+03
   1.0117760e+03   1.1473450e+03
   1.0122580e+03   1.1455760e+03
   1.0127400e+03   1.1398370e+03
   1.0132230e+03   1.1335540e+03
   1.0137050e+03   1.1325240e+03
   1.0141870e+03   1.1339410e+03
   1.0146690e+03   1.1278830e+03
   1.0151510e+03   1.1062610e+03
   1.0156330e+03   1.0894670e+03
   1.0161150e+03   1.0823890e+03
   1.0165970e+03   1.0778220e+03
   1.0170800e+03   1.0655570e+03
   1.0175620e+03   1.0468100e+03
   1.0180440e+03   1.0244210e+03
   1.0185260e+03   9.9811490e+02
   1.0190080e+03   9.7499110e+02
   1.0194900e+03   9.6337700e+02
   1.0199720e+03   9.5314920e+02
   1.0204540e+03   9.3731910e+02
   1.0209360e+03   9.1614090e+02
   1.0214190e+03   8.9632620e+02
   1.0219010e+03   8.7837740e+02
   1.0223830e+03   8.5725120e+02
   1.0228650e+03   8.2840310e+02
   1.0233470e+03   7.9788620e+02
   1.0238290e+03   7.7605800e+02
   1.0243110e+03   7.5794040e+02
   1.0247930e+03   7.3394460e+02
   1.0252760e+03   6.9658760e+02
   1.0257580e+03   6.5952470e+02
   1.0262400e+03   6.2367480e+02
   1.0267220e+03   5.8875330e+02
   1.0272040e+03   5.5473120e+02
   1.0276860e+03   5.2156850e+02
   1.0281680e+03   4.9039650e+02
   1.0286500e+03   4.6142410e+02
   1.0291320e+03   4.3237300e+02
   1.0296150e+03   4.0097080e+02
   1.0300970e+03   3.6953910e+02
   1.0305790e+03   3.3895340e+02
   1.0310610e+03   3.0988560e+02
   1.0315430e+03   2.8474220e+02
   1.0320250e+03   2.6460470e+02
   1.0325070e+03   2.4341720e+02
   1.0329890e+03   2.1912510e+02
   1.0334710e+03   1.9517790e+02
   1.0339540e+03   1.7677110e+02
   1.0344360e+03   1.6243300e+02
   1.0349180e+03   1.4906750e+02
   1.0354000e+03   1.3601100e+02
   1.0358820e+03   1.2408740e+02
   1.0363640e+03   1.1430190e+02
   1.0368460e+03   1.0465580e+02
   1.0373280e+03   9.3698730e+01
   1.0378110e+03   8.1675660e+01
   1.0382930e+03   7.1693360e+01
   1.0387750e+03   6.3556400e+01
   1.0392570e+03   5.6458370e+01
   1.0397390e+03   5.0062620e+01
   1.0402210e+03   4.4323490e+01
   1.0407030e+03   4.0320430e+01
   1.0411850e+03   3.6548580e+01
   1.0416670e+03   2.9527340e+01
   1.0421500e+03   1.6594970e+01
   1.0426320e+03   8.7541500e+00
   1.0431140e+03   7.6496580e+00
   1.0435960e+03   8.7714840e+00
   1.0440780e+03   7.2797850e+00
   1.0445600e+03   4.9152830e+00
   1.0450420e+03   5.2690430e+00
   1.0455240e+03   8.3957520e+00
   1.0460060e+03   1.0006230e+01
   1.0464890e+03   6.6694340e+00
   1.0469710e+03   3.9385990e+00
   1.0474530e+03   4.3853760e+00
   1.0479350e+03   6.0875240e+00
   1.0484170e+03   2.4029540e+00
   1.0488990e+03   5.7554930e+00
   1.0493810e+03   1.0585940e+01
   1.0498630e+03   9.3876950e+00
   1.0503460e+03   6.5441890e+00
   1.0508280e+03   5.9838870e+00
   1.0513100e+03   4.9997560e+00
   1.0517920e+03   1.4978000e-01
   1.0522740e+03   9.5120850e+00
   1.0527560e+03   1.5686650e+01
   1.0532380e+03   1.7897830e+01
   1.0537200e+03   1.9570310e+01
   1.0542030e+03   2.2862920e+01
   1.0546850e+03   2.6938840e+01
   1.0551670e+03   3.0451050e+01
   1.0556490e+03   3.3321170e+01
   1.0561310e+03   3.5607670e+01
   1.0566130e+03   3.5077270e+01
   1.0570950e+03   3.8045780e+01
   1.0575770e+03   4.6974240e+01
   1.0580590e+03   5.6763790e+01
   1.0585420e+03   6.1280030e+01
   1.0590240e+03   6.1712400e+01
   1.0595060e+03   6.4725460e+01
   1.0599880e+03   7.0720700e+01
   1.0604700e+03   7.7814580e+01
   1.0609520e+03   8.7066410e+01
   1.0614340e+03   9.5176640e+01
   1.0619160e+03   9.8545650e+01
   1.0623980e+03   9.8239620e+01
   1.0628810e+03   1.0006210e+02
   1.0633630e+03   1.0440550e+02
   1.0638450e+03   1.1049280e+02
   1.0643270e+03   1.1833340e+02
   1.0648090e+03   1.2625770e+02
   1.0652910e+03   1.3171630e+02
   1.0657730e+03   1.3663230e+02
   1.0662550e+03   1.4477710e+02
   1.0667380e+03   1.5907680e+02
   1.0672200e+03   1.6569560e+02
   1.0677020e+03   1.5812590e+02
   1.0681840e+03   1.5239810e+02
   1.0686660e+03   1.5867710e+02
   1.0691480e+03   1.7218630e+02
   1.0696300e+03   1.7714430e+02
   1.0701120e+03   1.7520420e+02
   1.0705940e+03   1.7252090e+02
   1.0710770e+03   1.7170470e+02
   1.0715590e+03   1.7078200e+02
   1.0720410e+03   1.6757350e+02
   1.0725230e+03   1.6489980e+02
   1.0730050e+03   1.6666990e+02
   1.0734870e+03   1.7366490e+02
   1.0739690e+03   1.7453470e+02
   1.0744510e+03   1.6874450e+02
   1.0749330e+03   1.6227120e+02
   1.0754160e+03   1.5968860e+02
   1.0758980e+03   1.5839510e+02
   1.0763800e+03   1.5630750e+02
   1.0768620e+03   1.5354090e+02
   1.0773440e+03   1.5113550e+02
   1.0778260e+03   1.4923930e+02
   1.0783080e+03   1.4782890e+02
   1.0787900e+03   1.4780710e+02
   1.0792730e+03   1.4586620e+02
   1.0797550e+03   1.3388460e+02
   1.0802370e+03   1.1816600e+02
   1.0807190e+03   1.1051560e+02
   1.0812010e+03   1.1314400e+02
   1.0816830e+03   1.1630630e+02
   1.0821650e+03   1.1786760e+02
   1.0826470e+03   1.1800020e+02
   1.0831290e+03   1.1643530e+02
   1.0836120e+03   1.1363820e+02
   1.0840940e+03   1.1022090e+02
   1.0845760e+03   1.0668650e+02
   1.0850580e+03   1.0607580e+02
   1.0855400e+03   1.1105820e+02
   1.0860220e+03   1.1498770e+02
   1.0865040e+03   1.1392130e+02
   1.0869860e+03   1.0980790e+02
   1.0874690e+03   1.0416300e+02
   1.0879510e+03   9.6735230e+01
   1.0884330e+03   9.0471070e+01
   1.0889150e+03   8.5258300e+01
   1.0893970e+03   8.2932010e+01
   1.0898790e+03   8.8191410e+01
   1.0903610e+03   9.3965450e+01
   1.0908430e+03   9.2192260e+01
   1.0913250e+03   8.5391720e+01
   1.0918070e+03   7.8920290e+01
   1.0922900e+03   7.3380740e+01
   1.0927720e+03   6.8698000e+01
   1.0932540e+03   6.4758540e+01
   1.0937360e+03   6.1979250e+01
   1.0942180e+03   6.2546510e+01
   1.0947000e+03   6.3847530e+01
   1.0951820e+03   5.9328740e+01
   1.0956640e+03   4.9505740e+01
   1.0961470e+03   4.1328120e+01
   1.0966290e+03   3.8293330e+01
   1.0971110e+03   3.6612790e+01
   1.0975930e+03   3.5539790e+01
   1.0980750e+03   3.4808470e+01
   1.0985570e+03   3.3855830e+01
   1.0990390e+03   3.2765500e+01
   1.0995210e+03   3.2385860e+01
   1.1000040e+03   3.2896970e+01
   1.1004860e+03   3.2043580e+01
   1.1009680e+03   2.7076660e+01
   1.1014500e+03   2.1835940e+01
   1.1019320e+03   1.8997920e+01
   1.1024140e+03   1.8123170e+01
   1.1028960e+03   1.6783690e+01
   1.1033780e+03   1.5091310e+01
   1.1038600e+03   1.3258910e+01
   1.1043430e+03   1.1162720e+01
   1.1048250e+03   9.0319820e+00
   1.1053070e+03   7.0028080e+00
   1.1057890e+03   5.3887940e+00
   1.1062710e+03   4.3675540e+00
   1.1067530e+03   4.0507810e+00
   1.1072350e+03   2.9198000e+00
   1.1077170e+03   1.2248540e+00
   1.1081990e+03   4.8864700e-01
   1.1086820e+03   2.6768800e+00
   1.1091640e+03   4.3895260e+00
   1.1096460e+03   2.7753910e+00
   1.1101280e+03   8.7133800e-01
   1.1106100e+03   2.9426270e+00
   1.1110920e+03   9.6508800e-01
   1.1115740e+03   1.1666260e+00
   1.1120560e+03   3.4526370e+00
   1.1125390e+03   5.0881350e+00
   1.1130210e+03   4.5111080e+00
   1.1135030e+03   2.6691890e+00
   1.1139850e+03   4.0723880e+00
   1.1144670e+03   8.2839360e+00
   1.1149490e+03   1.0775880e+01
   1.1154310e+03   6.8505860e+00
   1.1159130e+03   3.4418950e+00
   1.1163960e+03   3.5305180e+00
   1.1168780e+03   5.3476560e+00
   1.1173600e+03   5.9989010e+00
   1.1178420e+03   5.5615230e+00
   1.1183240e+03   6.5220950e+00
   1.1188060e+03   9.3623050e+00
   1.1192880e+03   1.0602660e+01
   1.1197700e+03   4.9417720e+00
   1.1202520e+03   9.5678700e-01
   1.1207340e+03   9.5947300e-01
   1.1212170e+03   3.4025880e+00
   1.1216990e+03   3.2980960e+00
   1.1221810e+03   1.9820560e+00
   1.1226630e+03   5.0784910e+00
   1.1231450e+03   3.7181400e+00
   1.1236270e+03   7.4902300e-01
   1.1241090e+03   3.0980220e+00
   1.1245910e+03   5.3552250e+00
   1.1250740e+03   1.8997800e+00
   1.1255560e+03   9.2850340e+00
   1.1260380e+03   1.4627560e+01
   1.1265200e+03   1.2625850e+01
   1.1270020e+03   8.9000240e+00
   1.1274840e+03   4.6750490e+00
   1.1279660e+03   1.6467290e+00
   1.1284480e+03   3.9797360e+00
   1.1289310e+03   9.3573000e+00
   1.1294130e+03   1.3546630e+01
   1.1298950e+03   1.5345090e+01
   1.1303770e+03   1.5790040e+01
   1.1308590e+03   1.4255130e+01
   1.1313410e+03   1.2962400e+01
   1.1318230e+03   1.3787480e+01
   1.1323050e+03   1.5831910e+01
   1.1327870e+03   1.5781490e+01
   1.1332700e+03   1.4252320e+01
   1.1337520e+03   1.3468260e+01
   1.1342340e+03   1.3954710e+01
   1.1347160e+03   1.6024290e+01
   1.1351980e+03   2.2181400e+01
   1.1356800e+03   2.7280270e+01
   1.1361620e+03   2.4573970e+01
   1.1366440e+03   1.5493410e+01
   1.1371260e+03   1.3114260e+01
   1.1376090e+03   1.7242680e+01
   1.1380910e+03   2.0925660e+01
   1.1385730e+03   1.8205080e+01
   1.1390550e+03   1.6060790e+01
   1.1395370e+03   1.9746950e+01
   1.1400190e+03   2.5407100e+01
   1.1405010e+03   2.6708980e+01
   1.1409830e+03   2.3521730e+01
   1.1414660e+03   2.1323610e+01
   1.1419480e+03   2.0625490e+01
   1.1424300e+03   2.1643310e+01
   1.1429120e+03   2.6265380e+01
   1.1433940e+03   3.1147580e+01
   1.1438760e+03   3.4385990e+01
   1.1443580e+03   3.5633670e+01
   1.1448400e+03   3.3548340e+01
   1.1453230e+03   2.7346190e+01
   1.1458050e+03   2.3589110e+01
   1.1462870e+03   2.3725590e+01
   1.1467690e+03   2.5730100e+01
   1.1472510e+03   2.7800170e+01
   1.1477330e+03   3.0437500e+01
   1.1482150e+03   3.5392940e+01
   1.1486970e+03   4.2714600e+01
   1.1491790e+03   4.4114870e+01
   1.1496610e+03   3.7475460e+01
   1.1501440e+03   3.2459590e+01
   1.1506260e+03   3.2255130e+01
   1.1511080e+03   3.4627080e+01
   1.1515900e+03   3.7658450e+01
   1.1520720e+03   4.0584110e+01
   1.1525540e+03   4.2277220e+01
   1.1530360e+03   4.2331420e+01
   1.1535180e+03   4.1835820e+01
   1.1540010e+03   4.0320430e+01
   1.1544830e+03   3.9667600e+01
   1.1549650e+03   4.1250000e+01
   1.1554470e+03   4.3632690e+01
   1.1559290e+03   4.3227290e+01
   1.1564110e+03   4.1446660e+01
   1.1568930e+03   4.1433590e+01
   1.1573750e+03   4.5535770e+01
   1.1578580e+03   4.7798830e+01
   1.1583400e+03   4.6492190e+01
   1.1588220e+03   4.5201050e+01
   1.1593040e+03   4.6496580e+01
   1.1597860e+03   4.9495000e+01
   1.1602680e+03   5.1992070e+01
   1.1607500e+03   5.3785890e+01
   1.1612320e+03   5.4205440e+01
   1.1617140e+03   5.1040650e+01
   1.1621970e+03   4.9335330e+01
   1.1626790e+03   5.0908810e+01
   1.1631610e+03   5.3199340e+01
   1.1636430e+03   5.4321900e+01
   1.1641250e+03   5.4305660e+01
   1.1646070e+03   5.2690550e+01
   1.1650890e+03   4.9832280e+01
   1.1655710e+03   4.7723630e+01
   1.1660530e+03   4.8139770e+01
   1.1665360e+03   4.8435420e+01
   1.1670180e+03   4.6721680e+01
   1.1675000e+03   4.5507570e+01
   1.1679820e+03   4.8911620e+01
   1.1684640e+03   5.5951660e+01
   1.1689460e+03   5.6822270e+01
   1.1694280e+03   5.1353150e+01
   1.1699100e+03   4.5667480e+01
   1.1703930e+03   4.3036990e+01
   1.1708750e+03   4.2097170e+01
   1.1713570e+03   4.3798580e+01
   1.1718390e+03   4.5803710e+01
   1.1723210e+03   4.3341920e+01
   1.1728030e+03   3.6782900e+01
   1.1732850e+03   3.5508000e+01
   1.1737670e+03   4.0589480e+01
   1.1742500e+03   4.6105160e+01
   1.1747320e+03   4.8148010e+01
   1.1752140e+03   4.8933900e+01
   1.1756960e+03   4.9824830e+01
   1.1761780e+03   5.0543400e+01
   1.1766600e+03   5.0221310e+01
   1.1771420e+03   4.8942750e+01
   1.1776240e+03   4.7601680e+01
   1.1781060e+03   4.6142150e+01
   1.1785890e+03   4.5015690e+01
   1.1790710e+03   4.4787350e+01
   1.1795530e+03   4.5041260e+01
   1.1800350e+03   4.5782780e+01
   1.1805170e+03   4.6638310e+01
   1.1809990e+03   4.6542660e+01
   1.1814810e+03   4.5458130e+01
   1.1819630e+03   4.3781070e+01
   1.1824450e+03   4.0839290e+01
   1.1829280e+03   3.9354310e+01
   1.1834100e+03   4.3992740e+01
   1.1838920e+03   4.9574280e+01
   1.1843740e+03   5.0867740e+01
   1.1848560e+03   4.7729190e+01
   1.1853380e+03   4.4752620e+01
   1.1858200e+03   4.1955870e+01
   1.1863020e+03   3.9209050e+01
   1.1867850e+03   3.6217900e+01
   1.1872670e+03   3.4518860e+01
   1.1877490e+03   3.5834780e+01
   1.1882310e+03   3.7694150e+01
   1.1887130e+03   3.7067020e+01
   1.1891950e+03   4.0403440e+01
   1.1896770e+03   3.5622740e+01
   1.1901590e+03   4.5127140e+01
   1.1906410e+03   5.2239140e+01
   1.1911240e+03   5.2520390e+01
   1.1916060e+03   4.9784790e+01
   1.1920880e+03   4.7383000e+01
   1.1925700e+03   4.5239750e+01
   1.1930520e+03   4.3077210e+01
   1.1935340e+03   4.0556340e+01
   1.1940160e+03   3.8828060e+01
   1.1944980e+03   3.7161870e+01
   1.1949800e+03   4.1310000e+01
   1.1954630e+03   6.0434630e+01
   1.1959450e+03   7.8691650e+01
   1.1964270e+03   6.8806090e+01
   1.1969090e+03   8.2466550e+01
   1.1973910e+03   8.5182190e+01
   1.1978730e+03   7.7038450e+01
   1.1983550e+03   8.2822020e+01
   1.1988370e+03   5.8536250e+01
   1.1993200e+03   3.4005620e+01
   1.1998020e+03   2.8742370e+01
   1.2002840e+03   3.1846190e+01
   1.2007660e+03   3.1218200e+01
   1.2012480e+03   2.8918880e+01
   1.2017300e+03   2.8793030e+01
   1.2022120e+03   3.2991330e+01
   1.2026940e+03   3.4643310e+01
   1.2031770e+03   3.3024720e+01
   1.2036590e+03   3.2643130e+01
   1.2041410e+03   3.9532710e+01
   1.2046230e+03   4.7158630e+01
   1.2051050e+03   4.7171630e+01
   1.2055870e+03   4.2105900e+01
   1.2060690e+03   3.6416870e+01
   1.2065510e+03   2.8054200e+01
   1.2070330e+03   2.5832890e+01
   1.2075160e+03   3.1050540e+01
   1.2079980e+03   3.6876340e+01
   1.2084800e+03   3.8071720e+01
   1.2089620e+03   3.6656620e+01
   1.2094440e+03   3.4403440e+01
   1.2099260e+03   3.1598880e+01
   1.2104080e+03   2.8963560e+01
   1.2108900e+03   2.7146850e+01
   1.2113720e+03   2.3543150e+01
   1.2118540e+03   1.7393740e+01
   1.2123370e+03   1.2569460e+01
   1.2128190e+03   1.3152830e+01
   1.2133010e+03   1.6379700e+01
   1.2137830e+03   1.8740780e+01
   1.2142650e+03   2.0703920e+01
   1.2147470e+03   2.4720400e+01
   1.2152290e+03   3.3173580e+01
   1.2157110e+03   3.6161130e+01
   1.2161940e+03   3.2215580e+01
   1.2166760e+03   2.6820860e+01
   1.2171580e+03   2.5555660e+01
   1.2176400e+03   2.5251400e+01
   1.2181220e+03   2.1107420e+01
   1.2186040e+03   1.4751830e+01
   1.2190860e+03   1.3015560e+01
   1.2195680e+03   1.7767880e+01
   1.2200510e+03   2.1394170e+01
   1.2205330e+03   2.3204830e+01
   1.2210150e+03   2.2876160e+01
   1.2214970e+03   1.6468870e+01
   1.2219790e+03   1.0680790e+01
   1.2224610e+03   1.4787840e+01
   1.2229430e+03   2.5940000e+01
   1.2234250e+03   3.0247500e+01
   1.2239070e+03   2.5892940e+01
   1.2243900e+03   1.9963870e+01
   1.2248720e+03   1.2703490e+01
   1.2253540e+03   8.4957890e+00
   1.2258360e+03   1.6070010e+01
   1.2263180e+03   2.4853640e+01
   1.2268000e+03   2.2980770e+01
   1.2272820e+03   1.2671450e+01
   1.2277640e+03   8.6682740e+00
   1.2282460e+03   1.2500670e+01
   1.2287290e+03   1.3524900e+01
   1.2292110e+03   9.7181400e+00
   1.2296930e+03   6.3247680e+00
   1.2301750e+03   1.0040160e+01
   1.2306570e+03   1.4790280e+01
   1.2311390e+03   1.4850100e+01
   1.2316210e+03   1.1060670e+01
   1.2321030e+03   8.4415890e+00
   1.2325860e+03   6.9654540e+00
   1.2330680e+03   7.7607420e+00
   1.2335500e+03   1.1349430e+01
   1.2340320e+03   1.4358280e+01
   1.2345140e+03   1.3613650e+01
   1.2349960e+03   1.1199100e+01
   1.2354780e+03   8.0747680e+00
   1.2359600e+03   4.7106320e+00
   1.2364430e+03   2.3275760e+00
   1.2369250e+03   8.7872300e-01
   1.2374070e+03   2.2226560e+00
   1.2378890e+03   7.1367190e+00
   1.2383710e+03   1.0137570e+01
   1.2388530e+03   3.2860110e+00
   1.2393350e+03   3.8649900e+00
   1.2398170e+03   2.8560180e+00
   1.2402990e+03   2.9671630e+00
   1.2407810e+03   3.6827390e+00
   1.2412640e+03   3.1762700e-01
   1.2417460e+03   1.6398930e+00
   1.2422280e+03   1.3182370e+00
   1.2427100e+03   4.3626100e+00
   1.2431920e+03   5.8017580e+00
   1.2436740e+03   4.9274900e+00
   1.2441560e+03   5.8544900e-01
   1.2446380e+03   7.6308590e+00
   1.2451210e+03   6.4857180e+00
   1.2456030e+03   1.4273680e+00
   1.2460850e+03   5.8588870e+00
   1.2465670e+03   4.5838010e+00
   1.2470490e+03   2.8957520e+00
   1.2475310e+03   4.5495000e+00
   1.2480130e+03   5.6435550e+00
   1.2484950e+03   4.2132570e+00
   1.2489780e+03   1.3690190e+00
   1.2494600e+03   1.9915800e-01
   1.2499420e+03   4.4793700e-01
   1.2504240e+03   1.3756710e+00
   1.2509060e+03   2.8915410e+00
   1.2513880e+03   4.1667480e+00
   1.2518700e+03   5.6056520e+00
   1.2523520e+03   5.4194340e+00
   1.2528340e+03   1.9495850e+00
   1.2533170e+03   2.2075200e+00
   1.2537990e+03   3.6877400e-01
   1.2542810e+03   5.1846310e+00
   1.2547630e+03   8.4724120e+00
   1.2552450e+03   8.4274900e+00
   1.2557270e+03   7.6314700e+00
   1.2562090e+03   6.4815060e+00
   1.2566910e+03   5.2623900e+00
   1.2571730e+03   3.9753420e+00
   1.2576560e+03   2.7750240e+00
   1.2581380e+03   1.4371950e+00
   1.2586200e+03   6.0467500e-01
   1.2591020e+03   2.2808230e+00
   1.2595840e+03   6.9683840e+00
   1.2600660e+03   8.7230220e+00
   1.2605480e+03   5.2799070e+00
   1.2610300e+03   2.7067260e+00
   1.2615130e+03   3.1350710e+00
   1.2619950e+03   4.0196530e+00
   1.2624770e+03   2.5134300e-01
   1.2629590e+03   4.5928960e+00
   1.2634410e+03   4.8951420e+00
   1.2639230e+03   6.5796003e-02
   1.2644050e+03   3.1940310e+00
   1.2648870e+03   3.4218750e+00
   1.2653700e+03   4.7540890e+00
   1.2658520e+03   8.7373660e+00
   1.2663340e+03   1.2260990e+01
   1.2668160e+03   1.1173770e+01
   1.2672980e+03   7.9336550e+00
   1.2677800e+03   4.7659300e+00
   1.2682620e+03   1.9208980e+00
   1.2687440e+03   1.0006710e+00
   1.2692260e+03   4.4156490e+00
   1.2697080e+03   3.2206420e+00
   1.2701910e+03   4.7792970e+00
   1.2706730e+03   1.2415950e+01
   1.2711550e+03   1.2357910e+01
   1.2716370e+03   9.6713870e+00
   1.2721190e+03   8.2977290e+00
   1.2726010e+03   7.6835330e+00
   1.2730830e+03   7.5756230e+00
   1.2735650e+03   8.0669560e+00
   1.2740480e+03   7.4897460e+00
   1.2745300e+03   5.7182010e+00
   1.2750120e+03   4.1547240e+00
   1.2754940e+03   2.4138180e+00
   1.2759760e+03   2.9545900e+00
   1.2764580e+03   3.8662720e+00
   1.2769400e+03   5.2067260e+00
   1.2774220e+03   7.3535770e+00
   1.2779050e+03   1.0032410e+01
   1.2783870e+03   1.2159790e+01
   1.2788690e+03   1.3537780e+01
   1.2793510e+03   1.4121950e+01
   1.2798330e+03   1.3544560e+01
   1.2803150e+03   1.2264340e+01
   1.2807970e+03   8.4520870e+00
   1.2812790e+03   4.9219970e+00
   1.2817610e+03   9.4122310e+00
   1.2822440e+03   1.7872310e+01
   1.2827260e+03   1.9549070e+01
   1.2832080e+03   1.2953980e+01
   1.2836900e+03   7.8309940e+00
   1.2841720e+03   7.7805790e+00
   1.2846540e+03   5.9356080e+00
   1.2851360e+03   4.7440190e+00
   1.2856180e+03   4.0387570e+00
   1.2861000e+03   6.1671750e+00
   1.2865830e+03   9.5098880e+00
   1.2870650e+03   1.1842710e+01
   1.2875470e+03   1.1349980e+01
   1.2880290e+03   1.0439390e+01
   1.2885110e+03   9.2103270e+00
   1.2889930e+03   8.4968870e+00
   1.2894750e+03   8.9803470e+00
   1.2899570e+03   9.1431270e+00
   1.2904400e+03   6.1936040e+00
   1.2909220e+03   2.7138060e+00
   1.2914040e+03   1.6718140e+00
   1.2918860e+03   2.7969360e+00
   1.2923680e+03   3.6640630e+00
   1.2928500e+03   4.1105350e+00
   1.2933320e+03   4.8854370e+00
   1.2938140e+03   6.0075070e+00
   1.2942970e+03   7.4445800e+00
   1.2947790e+03   8.6427610e+00
   1.2952610e+03   9.6589360e+00
   1.2957430e+03   1.1196780e+01
   1.2962250e+03   1.2454040e+01
   1.2967070e+03   1.0668150e+01
   1.2971890e+03   6.2409670e+00
   1.2976710e+03   3.6397710e+00
   1.2981530e+03   3.2487790e+00
   1.2986350e+03   3.1689450e+00
   1.2991180e+03   2.1691890e+00
   1.2996000e+03   2.9101560e+00
   1.3000820e+03   7.6538700e+00
   1.3005640e+03   1.2252260e+01
   1.3010460e+03   1.0022950e+01
   1.3015280e+03   3.6024170e+00
   1.3020100e+03   4.8858600e-01
   1.3024920e+03   7.8137200e-01
   1.3029750e+03   1.1921390e+00
   1.3034570e+03   4.5653999e-02
   1.3039390e+03   8.5510001e-02
   1.3044210e+03   2.0852050e+00
   1.3049030e+03   2.5595700e+00
   1.3053850e+03   0.0000000e+00
   1.5000000e+03   0.0000000e+00
