   1.0000000e+02   0.0000000e+00
   1.4192650e+02   0.0000000e+00
   1.4240860e+02   4.8300780e+00
   1.4289070e+02   1.6162100e-01
   1.4337280e+02   6.7343750e+00
   1.4385500e+02   2.7295900e+01
   1.4433710e+02   3.9415040e+01
   1.4481920e+02   4.0099120e+01
   1.4530130e+02   3.3718260e+01
   1.4578340e+02   2.5937990e+01
   1.4626550e+02   1.5757810e+01
   1.4674770e+02   7.3886720e+00
   1.4722980e+02   4.3095700e+00
   1.4771190e+02   1.0275390e+01
   1.4819400e+02   1.3669430e+01
   1.4867610e+02   1.3895510e+01
   1.4915820e+02   1.1815430e+01
   1.4964040e+02   8.7299800e+00
   1.5012250e+02   2.1582000e-01
   1.5060460e+02   5.3188480e+00
   1.5108670e+02   2.9580080e+00
   1.5156880e+02   1.3247070e+01
   1.5205090e+02   2.7333980e+01
   1.5253310e+02   3.8468750e+01
   1.5301520e+02   4.7343260e+01
   1.5349730e+02   5.5686520e+01
   1.5397940e+02   6.1818850e+01
   1.5446150e+02   6.8262700e+01
   1.5494360e+02   7.6154790e+01
   1.5542580e+02   8.7903320e+01
   1.5590790e+02   9.7914550e+01
   1.5639000e+02   1.0239940e+02
   1.5687210e+02   1.0335010e+02
   1.5735420e+02   1.1085690e+02
   1.5783630e+02   1.2803860e+02
   1.5831850e+02   1.5121580e+02
   1.5880060e+02   1.7843600e+02
   1.5928270e+02   2.1689010e+02
   1.5976480e+02   2.5157420e+02
   1.6024690e+02   2.8271390e+02
   1.6072900e+02   3.0935010e+02
   1.6121120e+02   3.2198100e+02
   1.6169330e+02   3.0458150e+02
   1.6217540e+02   2.7821340e+02
   1.6265750e+02   2.6039400e+02
   1.6313960e+02   2.6760400e+02
   1.6362170e+02   2.7418360e+02
   1.6410390e+02   2.6981540e+02
   1.6458600e+02   2.5442040e+02
   1.6506810e+02   2.3435110e+02
   1.6555020e+02   2.0513430e+02
   1.6603230e+02   1.7507620e+02
   1.6651450e+02   1.5326900e+02
   1.6699660e+02   1.4875490e+02
   1.6747870e+02   1.4914790e+02
   1.6796080e+02   1.4693310e+02
   1.6844290e+02   1.4155620e+02
   1.6892500e+02   1.3753080e+02
   1.6940710e+02   1.3747410e+02
   1.6988930e+02   1.4059770e+02
   1.7037140e+02   1.4557670e+02
   1.7085350e+02   1.5294970e+02
   1.7133560e+02   1.6138960e+02
   1.7181770e+02   1.6827200e+02
   1.7229980e+02   1.7260690e+02
   1.7278200e+02   1.8155370e+02
   1.7326410e+02   2.0165140e+02
   1.7374620e+02   2.3050630e+02
   1.7422830e+02   2.6299950e+02
   1.7471040e+02   2.9521090e+02
   1.7519250e+02   3.3065040e+02
   1.7567470e+02   3.7146630e+02
   1.7615680e+02   4.1701220e+02
   1.7663890e+02   4.7224900e+02
   1.7712100e+02   5.5328710e+02
   1.7760310e+02   6.5078910e+02
   1.7808520e+02   7.3624270e+02
   1.7856740e+02   8.1264700e+02
   1.7904950e+02   8.6297220e+02
   1.7953160e+02   8.5630030e+02
   1.8001370e+02   7.8051760e+02
   1.8049580e+02   6.7029300e+02
   1.8097790e+02   5.5002640e+02
   1.8146010e+02   4.2362300e+02
   1.8194220e+02   3.1319730e+02
   1.8242430e+02   2.3547310e+02
   1.8290640e+02   1.8352880e+02
   1.8338850e+02   1.4178910e+02
   1.8387060e+02   1.0832710e+02
   1.8435280e+02   8.3538090e+01
   1.8483490e+02   7.0734860e+01
   1.8531700e+02   6.8958500e+01
   1.8579910e+02   6.8392580e+01
   1.8628120e+02   5.9703120e+01
   1.8676330e+02   4.5987790e+01
   1.8724550e+02   3.9127440e+01
   1.8772760e+02   4.2848630e+01
   1.8820970e+02   5.1573730e+01
   1.8869180e+02   5.4940430e+01
   1.8917390e+02   5.2896000e+01
   1.8965600e+02   5.0046880e+01
   1.9013820e+02   4.8760740e+01
   1.9062030e+02   4.9298340e+01
   1.9110240e+02   5.3986330e+01
   1.9158450e+02   6.5491700e+01
   1.9206660e+02   7.9534180e+01
   1.9254870e+02   8.6264650e+01
   1.9303090e+02   8.5536620e+01
   1.9351300e+02   8.0090330e+01
   1.9399510e+02   7.0821290e+01
   1.9447720e+02   5.7982420e+01
   1.9495930e+02   4.5239750e+01
   1.9544140e+02   3.2778810e+01
   1.9592360e+02   2.1083010e+01
   1.9640570e+02   1.1479980e+01
   1.9688780e+02   3.6801760e+00
   1.9736990e+02   7.2021500e-01
   1.9785200e+02   1.5063480e+00
   1.9833410e+02   1.0642090e+01
   1.9881630e+02   1.6640140e+01
   1.9929840e+02   1.5828610e+01
   1.9978050e+02   9.9760740e+00
   2.0026260e+02   1.0883300e+01
   2.0074470e+02   2.0242680e+01
   2.0122680e+02   2.9905270e+01
   2.0170900e+02   3.0250490e+01
   2.0219110e+02   2.0000000e+01
   2.0267320e+02   1.2571780e+01
   2.0315530e+02   1.0494140e+01
   2.0363740e+02   1.3710450e+01
   2.0411950e+02   2.3010250e+01
   2.0460170e+02   4.0033690e+01
   2.0508380e+02   5.8937500e+01
   2.0556590e+02   7.4745610e+01
   2.0604800e+02   8.7641110e+01
   2.0653010e+02   9.6154790e+01
   2.0701220e+02   9.7664550e+01
   2.0749440e+02   9.3347660e+01
   2.0797650e+02   9.6831540e+01
   2.0845860e+02   1.1027100e+02
   2.0894070e+02   1.2685210e+02
   2.0942280e+02   1.3848000e+02
   2.0990490e+02   1.4318410e+02
   2.1038710e+02   1.5127490e+02
   2.1086920e+02   1.6563230e+02
   2.1135130e+02   1.8596830e+02
   2.1183340e+02   2.0661330e+02
   2.1231550e+02   2.2672310e+02
   2.1279760e+02   2.4806640e+02
   2.1327980e+02   2.7413870e+02
   2.1376190e+02   3.0825730e+02
   2.1424400e+02   3.3706050e+02
   2.1472610e+02   3.5775200e+02
   2.1520820e+02   3.7026460e+02
   2.1569030e+02   3.7713770e+02
   2.1617250e+02   3.7531010e+02
   2.1665460e+02   3.7129490e+02
   2.1713670e+02   3.7145260e+02
   2.1761880e+02   3.7437890e+02
   2.1810090e+02   3.8635300e+02
   2.1858300e+02   4.0968410e+02
   2.1906510e+02   4.4502590e+02
   2.1954730e+02   4.8467140e+02
   2.2002940e+02   5.2918510e+02
   2.2051150e+02   5.7810790e+02
   2.2099360e+02   6.3024760e+02
   2.2147570e+02   6.8574660e+02
   2.2195780e+02   7.4614010e+02
   2.2244000e+02   8.1994820e+02
   2.2292210e+02   9.1165770e+02
   2.2340420e+02   9.6307230e+02
   2.2388630e+02   9.7032030e+02
   2.2436840e+02   9.4351170e+02
   2.2485050e+02   8.8935500e+02
   2.2533270e+02   7.9510110e+02
   2.2581480e+02   6.9951170e+02
   2.2629690e+02   6.0985840e+02
   2.2677900e+02   5.2414990e+02
   2.2726110e+02   4.5753660e+02
   2.2774320e+02   4.1125680e+02
   2.2822540e+02   3.8156300e+02
   2.2870750e+02   3.6449270e+02
   2.2918960e+02   3.6161910e+02
   2.2967170e+02   3.6838720e+02
   2.3015380e+02   3.8616750e+02
   2.3063590e+02   4.1617040e+02
   2.3111810e+02   4.4388180e+02
   2.3160020e+02   4.7122560e+02
   2.3208230e+02   4.9444140e+02
   2.3256440e+02   5.1001220e+02
   2.3304650e+02   5.2066600e+02
   2.3352860e+02   5.1844190e+02
   2.3401080e+02   4.9994680e+02
   2.3449290e+02   4.6386670e+02
   2.3497500e+02   4.2316310e+02
   2.3545710e+02   3.7476560e+02
   2.3593920e+02   3.2520750e+02
   2.3642130e+02   2.8098390e+02
   2.3690350e+02   2.4309180e+02
   2.3738560e+02   2.0926900e+02
   2.3786770e+02   1.7894820e+02
   2.3834980e+02   1.5180960e+02
   2.3883190e+02   1.3039210e+02
   2.3931400e+02   1.1689450e+02
   2.3979620e+02   1.0717530e+02
   2.4027830e+02   9.6498050e+01
   2.4076040e+02   8.2291020e+01
   2.4124250e+02   7.2180180e+01
   2.4172460e+02   6.9136720e+01
   2.4220670e+02   7.3735840e+01
   2.4268890e+02   7.4297850e+01
   2.4317100e+02   6.7885740e+01
   2.4365310e+02   6.0185550e+01
   2.4413520e+02   5.6578610e+01
   2.4461730e+02   5.7419920e+01
   2.4509940e+02   6.1503420e+01
   2.4558160e+02   6.8571290e+01
   2.4606370e+02   7.8589360e+01
   2.4654580e+02   9.2000000e+01
   2.4702790e+02   1.1013770e+02
   2.4751000e+02   1.3040040e+02
   2.4799210e+02   1.5061620e+02
   2.4847430e+02   1.7284810e+02
   2.4895640e+02   1.9149850e+02
   2.4943850e+02   2.0611770e+02
   2.4992060e+02   2.1672850e+02
   2.5040270e+02   2.2214060e+02
   2.5088480e+02   2.2091110e+02
   2.5136700e+02   2.1620560e+02
   2.5184910e+02   2.1122950e+02
   2.5233120e+02   2.0838040e+02
   2.5281330e+02   1.9974370e+02
   2.5329540e+02   1.8174800e+02
   2.5377750e+02   1.5521630e+02
   2.5425970e+02   1.3445950e+02
   2.5474180e+02   1.2164060e+02
   2.5522390e+02   1.1167530e+02
   2.5570600e+02   1.0044530e+02
   2.5618810e+02   8.6591310e+01
   2.5667020e+02   7.4298340e+01
   2.5715230e+02   6.3939940e+01
   2.5763450e+02   5.5496580e+01
   2.5811660e+02   4.9083010e+01
   2.5859870e+02   4.5333500e+01
   2.5908080e+02   4.2710450e+01
   2.5956290e+02   3.9549800e+01
   2.6004500e+02   3.3940920e+01
   2.6052720e+02   3.3574220e+01
   2.6100930e+02   4.2734860e+01
   2.6149140e+02   5.8367680e+01
   2.6197350e+02   6.2098630e+01
   2.6245560e+02   4.9022950e+01
   2.6293770e+02   3.2613280e+01
   2.6341990e+02   2.1794920e+01
   2.6390200e+02   1.7956050e+01
   2.6438410e+02   1.5542480e+01
   2.6486620e+02   1.4833980e+01
   2.6534830e+02   1.5110350e+01
   2.6583040e+02   1.3539060e+01
   2.6631260e+02   9.6699220e+00
   2.6679470e+02   4.9218750e+00
   2.6727680e+02   1.5283200e-01
   2.6775890e+02   4.4414060e+00
   2.6824100e+02   9.2778320e+00
   2.6872310e+02   1.4911130e+01
   2.6920530e+02   2.0490230e+01
   2.6968740e+02   2.3544430e+01
   2.7016950e+02   2.3649900e+01
   2.7065160e+02   2.2341800e+01
   2.7113370e+02   2.0165530e+01
   2.7161580e+02   1.6819820e+01
   2.7209800e+02   1.4567380e+01
   2.7258010e+02   1.4488770e+01
   2.7306220e+02   1.4914550e+01
   2.7354430e+02   1.1479000e+01
   2.7402640e+02   3.4150390e+00
   2.7450850e+02   4.9252930e+00
   2.7499070e+02   1.2035640e+01
   2.7547280e+02   1.8163090e+01
   2.7595490e+02   1.9382320e+01
   2.7643700e+02   1.4055660e+01
   2.7691910e+02   5.8662110e+00
   2.7740120e+02   1.9003910e+00
   2.7788340e+02   2.9492190e+00
   2.7836550e+02   4.3110350e+00
   2.7884760e+02   3.7363280e+00
   2.7932970e+02   1.2587890e+00
   2.7981180e+02   8.2910200e-01
   2.8029390e+02   3.5395510e+00
   2.8077610e+02   6.4843750e+00
   2.8125820e+02   3.5747070e+00
   2.8174030e+02   5.9267580e+00
   2.8222240e+02   1.1857420e+01
   2.8270450e+02   8.7661130e+00
   2.8318660e+02   2.4326170e+00
   2.8366880e+02   1.0359380e+01
   2.8415090e+02   1.4147950e+01
   2.8463300e+02   1.7192380e+01
   2.8511510e+02   2.4766600e+01
   2.8559720e+02   3.6763180e+01
   2.8607930e+02   4.6422360e+01
   2.8656150e+02   4.9405760e+01
   2.8704360e+02   4.7884770e+01
   2.8752570e+02   5.2984860e+01
   2.8800780e+02   6.5441890e+01
   2.8848990e+02   8.0487790e+01
   2.8897200e+02   9.4205570e+01
   2.8945420e+02   1.0660300e+02
   2.8993630e+02   1.1808200e+02
   2.9041840e+02   1.3143510e+02
   2.9090050e+02   1.4286330e+02
   2.9138260e+02   1.3990380e+02
   2.9186470e+02   1.2190870e+02
   2.9234690e+02   9.9823240e+01
   2.9282900e+02   8.2066410e+01
   2.9331110e+02   6.8204590e+01
   2.9379320e+02   5.5464840e+01
   2.9427530e+02   4.2735840e+01
   2.9475740e+02   3.1208500e+01
   2.9523960e+02   2.3745120e+01
   2.9572170e+02   2.0186040e+01
   2.9620380e+02   1.8358890e+01
   2.9668590e+02   1.7406740e+01
   2.9716800e+02   1.6953120e+01
   2.9765010e+02   1.5739260e+01
   2.9813230e+02   1.3011230e+01
   2.9861440e+02   1.0514160e+01
   2.9909650e+02   9.8994140e+00
   2.9957860e+02   1.1451660e+01
   3.0006070e+02   1.6368160e+01
   3.0054280e+02   2.9751460e+01
   3.0102500e+02   4.6313960e+01
   3.0150710e+02   5.5843750e+01
   3.0198920e+02   5.5650880e+01
   3.0247130e+02   5.1879390e+01
   3.0295340e+02   5.0296880e+01
   3.0343550e+02   5.0608890e+01
   3.0391770e+02   5.2043460e+01
   3.0439980e+02   5.7380860e+01
   3.0488190e+02   6.2200200e+01
   3.0536400e+02   5.8898930e+01
   3.0584610e+02   4.5503420e+01
   3.0632820e+02   3.1884770e+01
   3.0681040e+02   2.8233400e+01
   3.0729250e+02   3.0861330e+01
   3.0777460e+02   3.2106930e+01
   3.0825670e+02   2.7017090e+01
   3.0873880e+02   1.9882320e+01
   3.0922090e+02   1.4312010e+01
   3.0970310e+02   1.0595210e+01
   3.1018520e+02   8.3378910e+00
   3.1066730e+02   6.4375000e+00
   3.1114940e+02   6.0698240e+00
   3.1163150e+02   8.8359380e+00
   3.1211360e+02   2.1057130e+01
   3.1259580e+02   3.2250000e+01
   3.1307790e+02   3.3980470e+01
   3.1356000e+02   2.6782710e+01
   3.1404210e+02   1.9370120e+01
   3.1452420e+02   1.6891600e+01
   3.1500630e+02   1.6169920e+01
   3.1548850e+02   1.4000980e+01
   3.1597060e+02   6.6313480e+00
   3.1645270e+02   2.6367200e-01
   3.1693480e+02   1.8081050e+00
   3.1741690e+02   3.1005900e-01
   3.1789900e+02   1.6127930e+00
   3.1838120e+02   1.8872070e+00
   3.1886330e+02   2.7167970e+00
   3.1934540e+02   6.0576170e+00
   3.1982750e+02   1.6027830e+01
   3.2030960e+02   2.3099610e+01
   3.2079170e+02   2.3854000e+01
   3.2127390e+02   1.9783690e+01
   3.2175600e+02   1.4449220e+01
   3.2223810e+02   6.4199220e+00
   3.2272020e+02   5.6982400e-01
   3.2320230e+02   5.0234380e+00
   3.2368440e+02   7.2871090e+00
   3.2416660e+02   5.5942380e+00
   3.2464870e+02   4.3251950e+00
   3.2513080e+02   1.7416020e+01
   3.2561290e+02   2.5867680e+01
   3.2609500e+02   2.4532710e+01
   3.2657710e+02   2.1959470e+01
   3.2705930e+02   1.9284670e+01
   3.2754140e+02   1.5216310e+01
   3.2802350e+02   1.7165530e+01
   3.2850560e+02   3.1553220e+01
   3.2898770e+02   4.9633300e+01
   3.2946980e+02   6.2043460e+01
   3.2995200e+02   6.1508300e+01
   3.3043410e+02   6.3661130e+01
   3.3091620e+02   7.1762210e+01
   3.3139830e+02   8.6239750e+01
   3.3188040e+02   1.0094920e+02
   3.3236250e+02   1.1899320e+02
   3.3284470e+02   1.3407320e+02
   3.3332680e+02   1.4182180e+02
   3.3380890e+02   1.4028170e+02
   3.3429100e+02   1.3514550e+02
   3.3477310e+02   1.2685550e+02
   3.3525520e+02   1.1539110e+02
   3.3573740e+02   1.0019780e+02
   3.3621950e+02   7.7184080e+01
   3.3670160e+02   5.6722170e+01
   3.3718370e+02   4.4624510e+01
   3.3766580e+02   4.2578120e+01
   3.3814790e+02   4.4108890e+01
   3.3863010e+02   5.0313960e+01
   3.3911220e+02   5.8640140e+01
   3.3959430e+02   6.1747070e+01
   3.4007640e+02   5.7377930e+01
   3.4055850e+02   5.5726560e+01
   3.4104060e+02   6.2627930e+01
   3.4152270e+02   7.8337400e+01
   3.4200490e+02   9.1821780e+01
   3.4248700e+02   1.0357710e+02
   3.4296910e+02   1.1233740e+02
   3.4345120e+02   1.1511470e+02
   3.4393330e+02   1.1161080e+02
   3.4441540e+02   1.0769920e+02
   3.4489760e+02   1.0504590e+02
   3.4537970e+02   1.0368410e+02
   3.4586180e+02   1.0419680e+02
   3.4634390e+02   1.0692040e+02
   3.4682600e+02   1.0969340e+02
   3.4730810e+02   1.0942530e+02
   3.4779030e+02   1.0682470e+02
   3.4827240e+02   1.0661470e+02
   3.4875450e+02   1.1004640e+02
   3.4923660e+02   1.1653810e+02
   3.4971870e+02   1.2563870e+02
   3.5020080e+02   1.3732860e+02
   3.5068300e+02   1.4957280e+02
   3.5116510e+02   1.6176810e+02
   3.5164720e+02   1.7346390e+02
   3.5212930e+02   1.8371190e+02
   3.5261140e+02   1.9286520e+02
   3.5309350e+02   1.9890720e+02
   3.5357570e+02   1.9995260e+02
   3.5405780e+02   1.9600830e+02
   3.5453990e+02   1.8723680e+02
   3.5502200e+02   1.6643990e+02
   3.5550410e+02   1.4399900e+02
   3.5598620e+02   1.3477780e+02
   3.5646840e+02   1.4159080e+02
   3.5695050e+02   1.5026900e+02
   3.5743260e+02   1.4874370e+02
   3.5791470e+02   1.4183300e+02
   3.5839680e+02   1.3736620e+02
   3.5887890e+02   1.4216800e+02
   3.5936110e+02   1.4770170e+02
   3.5984320e+02   1.4590090e+02
   3.6032530e+02   1.3711770e+02
   3.6080740e+02   1.3230520e+02
   3.6128950e+02   1.3758110e+02
   3.6177160e+02   1.4913090e+02
   3.6225380e+02   1.6357180e+02
   3.6273590e+02   1.8287260e+02
   3.6321800e+02   2.0178420e+02
   3.6370010e+02   2.1598240e+02
   3.6418220e+02   2.2777000e+02
   3.6466430e+02   2.4503220e+02
   3.6514650e+02   2.7009180e+02
   3.6562860e+02   3.0156880e+02
   3.6611070e+02   3.3933980e+02
   3.6659280e+02   3.8636180e+02
   3.6707490e+02   4.3420700e+02
   3.6755700e+02   4.8111960e+02
   3.6803920e+02   5.2843160e+02
   3.6852130e+02   5.7862010e+02
   3.6900340e+02   6.4364550e+02
   3.6948550e+02   6.9949170e+02
   3.6996760e+02   7.4339110e+02
   3.7044970e+02   7.7837110e+02
   3.7093190e+02   7.8334030e+02
   3.7141400e+02   7.4930570e+02
   3.7189610e+02   6.9034130e+02
   3.7237820e+02   6.1803660e+02
   3.7286030e+02   5.1742720e+02
   3.7334240e+02   4.2952490e+02
   3.7382460e+02   3.6162550e+02
   3.7430670e+02   3.1270510e+02
   3.7478880e+02   2.6977150e+02
   3.7527090e+02   2.3254880e+02
   3.7575300e+02   2.0207180e+02
   3.7623510e+02   1.7937400e+02
   3.7671730e+02   1.6596090e+02
   3.7719940e+02   1.5593310e+02
   3.7768150e+02   1.5005320e+02
   3.7816360e+02   1.4654640e+02
   3.7864570e+02   1.4094580e+02
   3.7912780e+02   1.3276220e+02
   3.7961000e+02   1.2567920e+02
   3.8009210e+02   1.2152590e+02
   3.8057420e+02   1.2024370e+02
   3.8105630e+02   1.1944820e+02
   3.8153840e+02   1.1896920e+02
   3.8202050e+02   1.1957520e+02
   3.8250270e+02   1.2142190e+02
   3.8298480e+02   1.2456050e+02
   3.8346690e+02   1.3079490e+02
   3.8394900e+02   1.4155180e+02
   3.8443110e+02   1.5544580e+02
   3.8491320e+02   1.6950490e+02
   3.8539540e+02   1.8312940e+02
   3.8587750e+02   1.9664310e+02
   3.8635960e+02   2.1033200e+02
   3.8684170e+02   2.2373440e+02
   3.8732380e+02   2.3537940e+02
   3.8780590e+02   2.4308250e+02
   3.8828810e+02   2.5259080e+02
   3.8877020e+02   2.6810350e+02
   3.8925230e+02   2.9021680e+02
   3.8973440e+02   3.2099660e+02
   3.9021650e+02   3.6706100e+02
   3.9069860e+02   4.1866110e+02
   3.9118080e+02   4.6659960e+02
   3.9166290e+02   5.1003520e+02
   3.9214500e+02   5.5355960e+02
   3.9262710e+02   6.0343750e+02
   3.9310920e+02   6.5403960e+02
   3.9359130e+02   6.9746880e+02
   3.9407350e+02   7.3495070e+02
   3.9455560e+02   7.6172900e+02
   3.9503770e+02   7.8246830e+02
   3.9551980e+02   7.9507670e+02
   3.9600190e+02   7.7781790e+02
   3.9648400e+02   7.0110060e+02
   3.9696620e+02   6.0641210e+02
   3.9744830e+02   5.2100340e+02
   3.9793040e+02   4.5190040e+02
   3.9841250e+02   3.8789160e+02
   3.9889460e+02   3.2424660e+02
   3.9937670e+02   2.6442720e+02
   3.9985890e+02   2.1690190e+02
   4.0034100e+02   1.8605760e+02
   4.0082310e+02   1.6495900e+02
   4.0130520e+02   1.5196730e+02
   4.0178730e+02   1.4896680e+02
   4.0226940e+02   1.4549660e+02
   4.0275160e+02   1.4228960e+02
   4.0323370e+02   1.3933350e+02
   4.0371580e+02   1.3509080e+02
   4.0419790e+02   1.2720020e+02
   4.0468000e+02   1.2194240e+02
   4.0516210e+02   1.2221240e+02
   4.0564430e+02   1.2724460e+02
   4.0612640e+02   1.2832280e+02
   4.0660850e+02   1.2314700e+02
   4.0709060e+02   1.1978960e+02
   4.0757270e+02   1.2635940e+02
   4.0805480e+02   1.4433890e+02
   4.0853700e+02   1.5309470e+02
   4.0901910e+02   1.4837010e+02
   4.0950120e+02   1.3824510e+02
   4.0998330e+02   1.3690720e+02
   4.1046540e+02   1.4410740e+02
   4.1094750e+02   1.5432670e+02
   4.1142970e+02   1.6526030e+02
   4.1191180e+02   1.7739060e+02
   4.1239390e+02   1.9273540e+02
   4.1287600e+02   2.1120750e+02
   4.1335810e+02   2.3003080e+02
   4.1384020e+02   2.4706100e+02
   4.1432240e+02   2.6219870e+02
   4.1480450e+02   2.7606300e+02
   4.1528660e+02   2.9115620e+02
   4.1576870e+02   3.0227290e+02
   4.1625080e+02   3.0130470e+02
   4.1673290e+02   2.9034670e+02
   4.1721510e+02   2.7859280e+02
   4.1769720e+02   2.7547360e+02
   4.1817930e+02   2.7217140e+02
   4.1866140e+02   2.5909810e+02
   4.1914350e+02   2.3332280e+02
   4.1962560e+02   2.0492290e+02
   4.2010780e+02   1.7648240e+02
   4.2058990e+02   1.4979880e+02
   4.2107200e+02   1.2652930e+02
   4.2155410e+02   1.1131250e+02
   4.2203620e+02   9.6279790e+01
   4.2251830e+02   7.4812010e+01
   4.2300050e+02   4.7262700e+01
   4.2348260e+02   2.9354980e+01
   4.2396470e+02   3.1181640e+01
   4.2444680e+02   4.0107910e+01
   4.2492890e+02   4.7858890e+01
   4.2541100e+02   5.7500490e+01
   4.2589320e+02   6.0950200e+01
   4.2637530e+02   5.3187990e+01
   4.2685740e+02   3.9297360e+01
   4.2733950e+02   3.1312500e+01
   4.2782160e+02   3.1952640e+01
   4.2830370e+02   3.4739260e+01
   4.2878590e+02   3.7534670e+01
   4.2926800e+02   4.0044920e+01
   4.2975010e+02   4.4848140e+01
   4.3023220e+02   5.4721680e+01
   4.3071430e+02   6.2775880e+01
   4.3119640e+02   5.8815920e+01
   4.3167860e+02   3.9183590e+01
   4.3216070e+02   2.7491210e+01
   4.3264280e+02   3.0930180e+01
   4.3312490e+02   4.4032710e+01
   4.3360700e+02   4.9275390e+01
   4.3408910e+02   4.6345700e+01
   4.3457130e+02   4.0433590e+01
   4.3505340e+02   3.3117190e+01
   4.3553550e+02   2.5361330e+01
   4.3601760e+02   2.2255370e+01
   4.3649970e+02   2.5215330e+01
   4.3698180e+02   2.8990230e+01
   4.3746400e+02   2.6130370e+01
   4.3794610e+02   1.8623050e+01
   4.3842820e+02   1.2691410e+01
   4.3891030e+02   1.1812990e+01
   4.3939240e+02   1.3217770e+01
   4.3987450e+02   1.4461910e+01
   4.4035660e+02   1.5285160e+01
   4.4083870e+02   1.4035160e+01
   4.4132090e+02   5.7226560e+00
   4.4180300e+02   3.5366210e+00
   4.4228510e+02   6.9848630e+00
   4.4276720e+02   1.3500980e+00
   4.4324930e+02   5.8110350e+00
   4.4373140e+02   1.1411130e+01
   4.4421360e+02   1.5613280e+01
   4.4469570e+02   1.8620120e+01
   4.4517780e+02   2.2619630e+01
   4.4565990e+02   2.3530760e+01
   4.4614200e+02   1.7528810e+01
   4.4662410e+02   3.4790040e+00
   4.4710630e+02   5.5522460e+00
   4.4758840e+02   4.8520510e+00
   4.4807050e+02   2.1191400e-01
   4.4855260e+02   4.1435550e+00
   4.4903470e+02   9.8388670e+00
   4.4951680e+02   1.2722660e+01
   4.4999900e+02   1.1132320e+01
   4.5048110e+02   6.7856450e+00
   4.5096320e+02   4.4951170e+00
   4.5144530e+02   4.3837890e+00
   4.5192740e+02   6.2006840e+00
   4.5240950e+02   1.1460940e+01
   4.5289170e+02   2.0918460e+01
   4.5337380e+02   2.2378420e+01
   4.5385590e+02   1.3583500e+01
   4.5433800e+02   2.2319340e+00
   4.5482010e+02   3.2485350e+00
   4.5530220e+02   2.7534180e+00
   4.5578440e+02   7.8955100e-01
   4.5626650e+02   2.9458010e+00
   4.5674860e+02   6.2280270e+00
   4.5723070e+02   1.9418950e+00
   4.5771280e+02   9.1650390e+00
   4.5819490e+02   1.7710450e+01
   4.5867710e+02   1.3173340e+01
   4.5915920e+02   2.7617190e+00
   4.5964130e+02   3.7153320e+00
   4.6012340e+02   1.8799800e+01
   4.6060550e+02   3.1923340e+01
   4.6108760e+02   2.4305180e+01
   4.6156980e+02   5.7343750e+00
   4.6205190e+02   7.2250980e+00
   4.6253400e+02   4.7104490e+00
   4.6301610e+02   1.6665040e+00
   4.6349820e+02   5.4472660e+00
   4.6398030e+02   6.8417970e+00
   4.6446250e+02   6.9584960e+00
   4.6494460e+02   4.4819340e+00
   4.6542670e+02   2.0937500e+00
   4.6590880e+02   1.8349610e+00
   4.6639090e+02   5.3388670e+00
   4.6687300e+02   7.0131840e+00
   4.6735520e+02   6.3227540e+00
   4.6783730e+02   3.0625000e+00
   4.6831940e+02   3.1411130e+00
   4.6880150e+02   1.9422850e+01
   4.6928360e+02   2.9687990e+01
   4.6976570e+02   2.8212400e+01
   4.7024790e+02   1.6674800e+01
   4.7073000e+02   1.2808590e+01
   4.7121210e+02   2.0742190e+01
   4.7169420e+02   2.9662600e+01
   4.7217630e+02   3.3208500e+01
   4.7265840e+02   3.0057620e+01
   4.7314060e+02   2.8036620e+01
   4.7362270e+02   2.7734860e+01
   4.7410480e+02   2.7995120e+01
   4.7458690e+02   2.7490720e+01
   4.7506900e+02   2.6300780e+01
   4.7555110e+02   2.3259280e+01
   4.7603330e+02   1.6615230e+01
   4.7651540e+02   8.7719730e+00
   4.7699750e+02   6.4746090e+00
   4.7747960e+02   9.5605470e+00
   4.7796170e+02   1.3479490e+01
   4.7844380e+02   1.5315920e+01
   4.7892600e+02   1.5584960e+01
   4.7940810e+02   1.4322750e+01
   4.7989020e+02   1.0686520e+01
   4.8037230e+02   9.1669920e+00
   4.8085440e+02   1.6936520e+01
   4.8133650e+02   2.8972170e+01
   4.8181870e+02   3.6652830e+01
   4.8230080e+02   3.0669920e+01
   4.8278290e+02   2.4266110e+01
   4.8326500e+02   2.5586910e+01
   4.8374710e+02   3.3806640e+01
   4.8422920e+02   4.1650880e+01
   4.8471140e+02   4.8625000e+01
   4.8519350e+02   5.3261230e+01
   4.8567560e+02   5.4295900e+01
   4.8615770e+02   4.9525390e+01
   4.8663980e+02   4.5624020e+01
   4.8712190e+02   4.3696290e+01
   4.8760410e+02   4.2798830e+01
   4.8808620e+02   4.1798340e+01
   4.8856830e+02   4.1134280e+01
   4.8905040e+02   3.9502440e+01
   4.8953250e+02   3.5489750e+01
   4.9001460e+02   2.9822270e+01
   4.9049680e+02   2.9400880e+01
   4.9097890e+02   3.6088380e+01
   4.9146100e+02   4.2881350e+01
   4.9194310e+02   4.4565430e+01
   4.9242520e+02   4.0947270e+01
   4.9290730e+02   3.9964360e+01
   4.9338950e+02   4.2393550e+01
   4.9387160e+02   4.6496090e+01
   4.9435370e+02   5.2064940e+01
   4.9483580e+02   5.8172850e+01
   4.9531790e+02   5.9102540e+01
   4.9580000e+02   4.9554690e+01
   4.9628220e+02   3.6693360e+01
   4.9676430e+02   3.2360350e+01
   4.9724640e+02   3.5359860e+01
   4.9772850e+02   3.8784670e+01
   4.9821060e+02   3.7711910e+01
   4.9869270e+02   3.5033200e+01
   4.9917490e+02   3.3277340e+01
   4.9965700e+02   3.2351560e+01
   5.0013910e+02   3.3395510e+01
   5.0062120e+02   4.0281740e+01
   5.0110330e+02   4.8559570e+01
   5.0158540e+02   5.3378910e+01
   5.0206760e+02   4.7909670e+01
   5.0254970e+02   4.4201170e+01
   5.0303180e+02   4.5505860e+01
   5.0351390e+02   5.1356450e+01
   5.0399600e+02   5.8757320e+01
   5.0447810e+02   7.1592770e+01
   5.0496030e+02   8.1833500e+01
   5.0544240e+02   8.6889160e+01
   5.0592450e+02   8.6235350e+01
   5.0640660e+02   8.3689450e+01
   5.0688870e+02   7.7558590e+01
   5.0737080e+02   7.1797850e+01
   5.0785300e+02   7.1359860e+01
   5.0833510e+02   7.7413090e+01
   5.0881720e+02   8.2009280e+01
   5.0929930e+02   8.2408200e+01
   5.0978140e+02   8.1629880e+01
   5.1026350e+02   8.7929200e+01
   5.1074570e+02   1.0125290e+02
   5.1122780e+02   1.1483060e+02
   5.1170990e+02   1.2613480e+02
   5.1219200e+02   1.3459770e+02
   5.1267410e+02   1.3818460e+02
   5.1315630e+02   1.3705320e+02
   5.1363840e+02   1.3494190e+02
   5.1412050e+02   1.3569090e+02
   5.1460260e+02   1.3714010e+02
   5.1508470e+02   1.3599950e+02
   5.1556680e+02   1.2970950e+02
   5.1604900e+02   1.2258540e+02
   5.1653110e+02   1.1820560e+02
   5.1701320e+02   1.1603270e+02
   5.1749530e+02   1.1357860e+02
   5.1797740e+02   1.0944430e+02
   5.1845950e+02   1.0420560e+02
   5.1894170e+02   9.9567380e+01
   5.1942380e+02   9.6239260e+01
   5.1990590e+02   9.2381840e+01
   5.2038800e+02   8.5477540e+01
   5.2087010e+02   7.8547360e+01
   5.2135220e+02   7.3420410e+01
   5.2183440e+02   7.1498540e+01
   5.2231650e+02   6.9224610e+01
   5.2279860e+02   6.6296390e+01
   5.2328070e+02   6.2786620e+01
   5.2376280e+02   5.7963870e+01
   5.2424490e+02   5.0703120e+01
   5.2472710e+02   4.7099610e+01
   5.2520920e+02   5.0535160e+01
   5.2569130e+02   5.8735350e+01
   5.2617340e+02   6.2562010e+01
   5.2665550e+02   6.1770020e+01
   5.2713760e+02   6.1085450e+01
   5.2761980e+02   6.5108890e+01
   5.2810190e+02   7.1662600e+01
   5.2858400e+02   7.5663570e+01
   5.2906610e+02   7.6473140e+01
   5.2954820e+02   7.5866210e+01
   5.3003030e+02   7.6197750e+01
   5.3051250e+02   7.5940430e+01
   5.3099460e+02   7.2522950e+01
   5.3147670e+02   6.1042480e+01
   5.3195880e+02   5.0806640e+01
   5.3244090e+02   4.7882320e+01
   5.3292300e+02   5.0244630e+01
   5.3340520e+02   5.2049800e+01
   5.3388730e+02   5.2731450e+01
   5.3436940e+02   5.1205570e+01
   5.3485150e+02   4.6208010e+01
   5.3533360e+02   3.6789550e+01
   5.3581570e+02   2.9651860e+01
   5.3629790e+02   2.6104490e+01
   5.3678000e+02   2.3765140e+01
   5.3726210e+02   2.0822750e+01
   5.3774420e+02   1.6609380e+01
   5.3822630e+02   1.3957520e+01
   5.3870840e+02   1.4153320e+01
   5.3919060e+02   1.6115230e+01
   5.3967270e+02   1.4990230e+01
   5.4015480e+02   1.0718260e+01
   5.4063690e+02   7.5996090e+00
   5.4111900e+02   7.6132810e+00
   5.4160110e+02   9.7109380e+00
   5.4208330e+02   1.0514650e+01
   5.4256540e+02   1.0107910e+01
   5.4304750e+02   9.9580080e+00
   5.4352960e+02   1.0639160e+01
   5.4401170e+02   1.2293950e+01
   5.4449380e+02   1.5345700e+01
   5.4497600e+02   1.9979000e+01
   5.4545810e+02   2.4884770e+01
   5.4594020e+02   2.9490230e+01
   5.4642230e+02   3.3568850e+01
   5.4690440e+02   3.6762210e+01
   5.4738650e+02   4.0453120e+01
   5.4786870e+02   4.1459470e+01
   5.4835080e+02   3.4656740e+01
   5.4883290e+02   2.3862300e+01
   5.4931500e+02   2.1221680e+01
   5.4979710e+02   3.9646970e+01
   5.5027920e+02   5.4552250e+01
   5.5076140e+02   5.6976070e+01
   5.5124350e+02   4.6489260e+01
   5.5172560e+02   3.8646000e+01
   5.5220770e+02   3.5198240e+01
   5.5268980e+02   3.2930180e+01
   5.5317190e+02   2.8493160e+01
   5.5365410e+02   2.1353030e+01
   5.5413620e+02   1.6054200e+01
   5.5461830e+02   1.3184570e+01
   5.5510040e+02   1.2098630e+01
   5.5558250e+02   1.1430660e+01
   5.5606460e+02   1.1284180e+01
   5.5654680e+02   1.2800780e+01
   5.5702890e+02   1.8212400e+01
   5.5751100e+02   2.3747070e+01
   5.5799310e+02   2.1760250e+01
   5.5847520e+02   1.3845210e+01
   5.5895730e+02   8.5078130e+00
   5.5943950e+02   1.4633300e+01
   5.5992160e+02   2.3083500e+01
   5.6040370e+02   2.5440430e+01
   5.6088580e+02   2.0111820e+01
   5.6136790e+02   1.4932620e+01
   5.6185000e+02   1.1750980e+01
   5.6233220e+02   1.0949220e+01
   5.6281430e+02   1.2862300e+01
   5.6329640e+02   2.4755370e+01
   5.6377850e+02   3.0293950e+01
   5.6426060e+02   2.5181640e+01
   5.6474270e+02   1.4162600e+01
   5.6522490e+02   6.1650390e+00
   5.6570700e+02   1.3261720e+00
   5.6618910e+02   5.4687500e-01
   5.6667120e+02   1.1040040e+00
   5.6715330e+02   5.7421880e+00
   5.6763540e+02   1.1075680e+01
   5.6811760e+02   1.7575680e+01
   5.6859970e+02   2.1999020e+01
   5.6908180e+02   2.1439940e+01
   5.6956390e+02   1.6856450e+01
   5.7004600e+02   1.2314450e+01
   5.7052810e+02   8.4213870e+00
   5.7101030e+02   6.4326170e+00
   5.7149240e+02   8.1069340e+00
   5.7197450e+02   1.2462890e+01
   5.7245660e+02   1.7998050e+01
   5.7293870e+02   2.5200680e+01
   5.7342080e+02   3.2142090e+01
   5.7390300e+02   3.9721680e+01
   5.7438510e+02   4.6267090e+01
   5.7486720e+02   4.7831540e+01
   5.7534930e+02   3.7831540e+01
   5.7583140e+02   2.7681150e+01
   5.7631350e+02   2.0421390e+01
   5.7679570e+02   1.6220700e+01
   5.7727780e+02   1.7145510e+01
   5.7775990e+02   3.1103520e+01
   5.7824200e+02   4.1403320e+01
   5.7872410e+02   3.7101070e+01
   5.7920620e+02   1.1677730e+01
   5.7968840e+02   9.8095700e-01
   5.8017050e+02   2.0625000e+00
   5.8065260e+02   1.2076170e+01
   5.8113470e+02   1.9645020e+01
   5.8161680e+02   2.4913570e+01
   5.8209890e+02   2.8809080e+01
   5.8258110e+02   3.1012700e+01
   5.8306320e+02   3.3087400e+01
   5.8354530e+02   3.9187990e+01
   5.8402740e+02   4.7841310e+01
   5.8450950e+02   5.3287110e+01
   5.8499160e+02   4.9545410e+01
   5.8547380e+02   4.3364260e+01
   5.8595590e+02   4.1145020e+01
   5.8643800e+02   4.2550780e+01
   5.8692010e+02   4.3909180e+01
   5.8740220e+02   4.4708010e+01
   5.8788430e+02   4.3967290e+01
   5.8836640e+02   3.9627930e+01
   5.8884850e+02   2.7955570e+01
   5.8933060e+02   2.3673340e+01
   5.8981270e+02   3.7416990e+01
   5.9029490e+02   5.3849120e+01
   5.9077700e+02   5.9239750e+01
   5.9125910e+02   4.9057130e+01
   5.9174120e+02   3.7775390e+01
   5.9222330e+02   2.4470700e+01
   5.9270540e+02   1.2905270e+01
   5.9318760e+02   1.4111820e+01
   5.9366970e+02   2.9496580e+01
   5.9415180e+02   4.0919920e+01
   5.9463390e+02   4.1036620e+01
   5.9511600e+02   3.2717290e+01
   5.9559810e+02   1.8436520e+01
   5.9608030e+02   5.7421900e-01
   5.9656240e+02   1.2549800e+01
   5.9704450e+02   3.5000000e+00
   5.9752660e+02   1.4248540e+01
   5.9800870e+02   2.5820310e+01
   5.9849080e+02   2.9790040e+01
   5.9897300e+02   2.9878420e+01
   5.9945510e+02   2.4277830e+01
   5.9993720e+02   1.7607910e+01
   6.0041930e+02   1.4153320e+01
   6.0090140e+02   1.5742680e+01
   6.0138350e+02   1.8954100e+01
   6.0186570e+02   2.7338870e+01
   6.0234780e+02   3.5672850e+01
   6.0282990e+02   3.5314940e+01
   6.0331200e+02   1.9294430e+01
   6.0379410e+02   8.6318360e+00
   6.0427620e+02   1.0118650e+01
   6.0475840e+02   1.9698730e+01
   6.0524050e+02   2.0067870e+01
   6.0572260e+02   1.0112790e+01
   6.0620470e+02   6.5869100e-01
   6.0668680e+02   9.2460940e+00
   6.0716890e+02   1.4666500e+01
   6.0765110e+02   1.1064940e+01
   6.0813320e+02   1.6538090e+00
   6.0861530e+02   1.2188960e+01
   6.0909740e+02   8.4565430e+00
   6.0957950e+02   1.7490230e+00
   6.1006160e+02   8.0278320e+00
   6.1054380e+02   8.0302730e+00
   6.1102590e+02   6.0087890e+00
   6.1150800e+02   2.8374020e+00
   6.1199010e+02   4.7168000e-01
   6.1247220e+02   2.7680660e+00
   6.1295430e+02   3.3388670e+00
   6.1343650e+02   3.3330080e+00
   6.1391860e+02   1.8286130e+00
   6.1440070e+02   5.1270001e-02
   6.1488280e+02   7.6123000e-01
   6.1536490e+02   6.2729490e+00
   6.1584700e+02   9.9057620e+00
   6.1632920e+02   8.6469730e+00
   6.1681130e+02   3.4995120e+00
   6.1729340e+02   2.3632810e+00
   6.1777550e+02   5.4995120e+00
   6.1825760e+02   9.9648440e+00
   6.1873970e+02   1.5842290e+01
   6.1922190e+02   2.1363280e+01
   6.1970400e+02   2.0268070e+01
   6.2018610e+02   1.1833980e+01
   6.2066820e+02   3.5258790e+00
   6.2115030e+02   1.2055660e+00
   6.2163240e+02   2.9399410e+00
   6.2211460e+02   7.0136720e+00
   6.2259670e+02   1.5035160e+01
   6.2307880e+02   2.0861820e+01
   6.2356090e+02   2.0947270e+01
   6.2404300e+02   1.7652830e+01
   6.2452510e+02   1.4465820e+01
   6.2500730e+02   1.3578120e+01
   6.2548940e+02   1.0830570e+01
   6.2597150e+02   3.2822270e+00
   6.2645360e+02   6.3627930e+00
   6.2693570e+02   8.4150390e+00
   6.2741780e+02   2.0507800e-01
   6.2790000e+02   8.2241210e+00
   6.2838210e+02   1.3752440e+01
   6.2886420e+02   1.6230470e+01
   6.2934630e+02   1.3082520e+01
   6.2982840e+02   4.0190430e+00
   6.3031050e+02   3.4760740e+00
   6.3079270e+02   2.7026370e+00
   6.3127480e+02   3.0751950e+00
   6.3175690e+02   8.2939450e+00
   6.3223900e+02   1.2490720e+01
   6.3272110e+02   1.5356450e+01
   6.3320320e+02   1.5261230e+01
   6.3368540e+02   1.4440430e+01
   6.3416750e+02   1.5611820e+01
   6.3464960e+02   2.2425780e+01
   6.3513170e+02   2.6283200e+01
   6.3561380e+02   2.1392580e+01
   6.3609590e+02   1.3423830e+01
   6.3657810e+02   1.1563960e+01
   6.3706020e+02   2.2229980e+01
   6.3754230e+02   2.8469240e+01
   6.3802440e+02   2.6400390e+01
   6.3850650e+02   1.9198240e+01
   6.3898860e+02   1.6988280e+01
   6.3947080e+02   2.0298340e+01
   6.3995290e+02   2.4638180e+01
   6.4043500e+02   2.8432130e+01
   6.4091710e+02   3.1479490e+01
   6.4139920e+02   3.2119140e+01
   6.4188130e+02   3.0531250e+01
   6.4236350e+02   3.0518070e+01
   6.4284560e+02   3.5453610e+01
   6.4332770e+02   4.3021970e+01
   6.4380980e+02   5.1559080e+01
   6.4429190e+02   6.1050290e+01
   6.4477400e+02   6.7854980e+01
   6.4525620e+02   6.4698730e+01
   6.4573830e+02   6.1048340e+01
   6.4622040e+02   6.5189940e+01
   6.4670250e+02   8.6023440e+01
   6.4718460e+02   1.0201370e+02
   6.4766670e+02   1.0976170e+02
   6.4814890e+02   1.1410940e+02
   6.4863100e+02   1.2090190e+02
   6.4911310e+02   1.3057860e+02
   6.4959520e+02   1.4034180e+02
   6.5007730e+02   1.4967090e+02
   6.5055940e+02   1.5896190e+02
   6.5104160e+02   1.7039700e+02
   6.5152370e+02   1.8367290e+02
   6.5200580e+02   1.9481640e+02
   6.5248790e+02   1.9931740e+02
   6.5297000e+02   2.0282320e+02
   6.5345210e+02   2.1470750e+02
   6.5393430e+02   2.3359180e+02
   6.5441640e+02   2.5278470e+02
   6.5489850e+02   2.7062260e+02
   6.5538060e+02   2.8851950e+02
   6.5586270e+02   3.0564600e+02
   6.5634480e+02   3.2192330e+02
   6.5682700e+02   3.4199610e+02
   6.5730910e+02   3.6903370e+02
   6.5779120e+02   3.9871780e+02
   6.5827330e+02   4.2848630e+02
   6.5875540e+02   4.5842920e+02
   6.5923750e+02   4.8770020e+02
   6.5971970e+02   5.1559620e+02
   6.6020180e+02   5.4382130e+02
   6.6068390e+02   5.7279150e+02
   6.6116600e+02   6.0253660e+02
   6.6164810e+02   6.3920460e+02
   6.6213020e+02   6.8450390e+02
   6.6261240e+02   7.3476070e+02
   6.6309450e+02   7.8573100e+02
   6.6357660e+02   8.3762110e+02
   6.6405870e+02   8.9115330e+02
   6.6454080e+02   9.4537400e+02
   6.6502290e+02   1.0014760e+03
   6.6550510e+02   1.0577910e+03
   6.6598720e+02   1.1175020e+03
   6.6646930e+02   1.1864300e+03
   6.6695140e+02   1.2678980e+03
   6.6743350e+02   1.3572610e+03
   6.6791560e+02   1.4538530e+03
   6.6839780e+02   1.5571520e+03
   6.6887990e+02   1.6682050e+03
   6.6936200e+02   1.7875890e+03
   6.6984410e+02   1.9148210e+03
   6.7032620e+02   2.0528640e+03
   6.7080830e+02   2.2010680e+03
   6.7129050e+02   2.3478880e+03
   6.7177260e+02   2.4940740e+03
   6.7225470e+02   2.6327180e+03
   6.7273680e+02   2.7669170e+03
   6.7321890e+02   2.8853840e+03
   6.7370100e+02   2.9630760e+03
   6.7418320e+02   2.9971620e+03
   6.7466530e+02   2.9911880e+03
   6.7514740e+02   2.9454840e+03
   6.7562950e+02   2.8619970e+03
   6.7611160e+02   2.7414470e+03
   6.7659380e+02   2.5726270e+03
   6.7707590e+02   2.3883670e+03
   6.7755800e+02   2.1812830e+03
   6.7804010e+02   1.9683980e+03
   6.7852220e+02   1.7687390e+03
   6.7900430e+02   1.5826550e+03
   6.7948650e+02   1.4079470e+03
   6.7996860e+02   1.2402310e+03
   6.8045070e+02   1.0860550e+03
   6.8093280e+02   9.5172220e+02
   6.8141490e+02   8.3833790e+02
   6.8189700e+02   7.4460400e+02
   6.8237920e+02   6.7527340e+02
   6.8286130e+02   6.2117190e+02
   6.8334340e+02   5.6487350e+02
   6.8382550e+02   5.0893070e+02
   6.8430760e+02   4.5883940e+02
   6.8478970e+02   4.2256200e+02
   6.8527190e+02   3.9169430e+02
   6.8575400e+02   3.5978910e+02
   6.8623610e+02   3.2689940e+02
   6.8671820e+02   2.9703470e+02
   6.8720030e+02   2.6982620e+02
   6.8768240e+02   2.4752640e+02
   6.8816460e+02   2.3131300e+02
   6.8864670e+02   2.2229790e+02
   6.8912880e+02   2.1452150e+02
   6.8961090e+02   2.0873580e+02
   6.9009300e+02   2.0178760e+02
   6.9057510e+02   1.8907180e+02
   6.9105730e+02   1.7133200e+02
   6.9153940e+02   1.5983980e+02
   6.9202150e+02   1.5570510e+02
   6.9250360e+02   1.5543360e+02
   6.9298570e+02   1.5973730e+02
   6.9346780e+02   1.6425390e+02
   6.9395000e+02   1.6085600e+02
   6.9443210e+02   1.4551220e+02
   6.9491420e+02   1.2761670e+02
   6.9539630e+02   1.1039990e+02
   6.9587840e+02   9.4661130e+01
   6.9636050e+02   8.1542970e+01
   6.9684270e+02   7.2227050e+01
   6.9732480e+02   6.4692870e+01
   6.9780690e+02   6.0205570e+01
   6.9828900e+02   5.6896480e+01
   6.9877110e+02   5.0375490e+01
   6.9925320e+02   3.9374510e+01
   6.9973540e+02   3.0942380e+01
   7.0021750e+02   2.7648440e+01
   7.0069960e+02   2.7531740e+01
   7.0118170e+02   2.5932130e+01
   7.0166380e+02   2.3100100e+01
   7.0214590e+02   2.0197270e+01
   7.0262810e+02   1.7820800e+01
   7.0311020e+02   1.5647950e+01
   7.0359230e+02   1.3750490e+01
   7.0407440e+02   1.1896970e+01
   7.0455650e+02   8.9121090e+00
   7.0503860e+02   4.7460900e-01
   7.0552080e+02   6.0297850e+00
   7.0600290e+02   5.5854490e+00
   7.0648500e+02   2.9238280e+00
   7.0696710e+02   7.5556640e+00
   7.0744920e+02   5.0874020e+00
   7.0793130e+02   2.8491210e+00
   7.0841350e+02   5.9228520e+00
   7.0889560e+02   1.4826660e+01
   7.0937770e+02   1.7654790e+01
   7.0985980e+02   1.3699710e+01
   7.1034190e+02   8.6459960e+00
   7.1082400e+02   9.3593750e+00
   7.1130620e+02   1.3027340e+01
   7.1178830e+02   1.1357420e+01
   7.1227040e+02   2.5527340e+00
   7.1275250e+02   4.1127930e+00
   7.1323460e+02   2.6030270e+00
   7.1371670e+02   1.3151860e+01
   7.1419890e+02   1.7265620e+01
   7.1468100e+02   8.4125980e+00
   7.1516310e+02   1.1337890e+00
   7.1564520e+02   1.7382810e+00
   7.1612730e+02   1.8779300e+00
   7.1660940e+02   4.4775400e-01
   7.1709160e+02   3.8017580e+00
   7.1757370e+02   5.7890630e+00
   7.1805580e+02   4.2446290e+00
   7.1853790e+02   1.1113280e+00
   7.1902000e+02   7.6464800e-01
   7.1950210e+02   1.3608400e+00
   7.1998430e+02   7.4707001e-02
   7.2046640e+02   4.7197270e+00
   7.2094850e+02   9.6889650e+00
   7.2143060e+02   1.1237300e+01
   7.2191270e+02   1.0338870e+01
   7.2239480e+02   9.2011720e+00
   7.2287700e+02   7.3188480e+00
   7.2335910e+02   6.9394530e+00
   7.2384120e+02   1.0016110e+01
   7.2432330e+02   1.5414550e+01
   7.2480540e+02   2.0341800e+01
   7.2528750e+02   2.6067870e+01
   7.2576970e+02   2.9466310e+01
   7.2625180e+02   2.9254880e+01
   7.2673390e+02   2.5937500e+01
   7.2721600e+02   2.1325680e+01
   7.2769810e+02   1.5207030e+01
   7.2818020e+02   1.0416020e+01
   7.2866240e+02   8.6811520e+00
   7.2914450e+02   9.3100590e+00
   7.2962660e+02   1.2622560e+01
   7.3010870e+02   1.7914060e+01
   7.3059080e+02   1.9776370e+01
   7.3107290e+02   1.0088870e+01
   7.3155510e+02   4.6044900e-01
   7.3203720e+02   3.3500980e+00
   7.3251930e+02   2.7324220e+00
   7.3300140e+02   8.4243160e+00
   7.3348350e+02   1.1696290e+01
   7.3396560e+02   1.4733890e+01
   7.3444780e+02   1.8456050e+01
   7.3492990e+02   2.2920410e+01
   7.3541200e+02   2.7813480e+01
   7.3589410e+02   3.2765140e+01
   7.3637620e+02   3.9404790e+01
   7.3685830e+02   4.9942380e+01
   7.3734050e+02   6.3491700e+01
   7.3782260e+02   7.7229490e+01
   7.3830470e+02   9.1153810e+01
   7.3878680e+02   1.0231250e+02
   7.3926890e+02   1.0425980e+02
   7.3975100e+02   1.0381010e+02
   7.4023320e+02   1.0936620e+02
   7.4071530e+02   1.2543310e+02
   7.4119740e+02   1.3985010e+02
   7.4167950e+02   1.5269090e+02
   7.4216160e+02   1.5980520e+02
   7.4264370e+02   1.5642680e+02
   7.4312590e+02   1.3624900e+02
   7.4360800e+02   1.2139360e+02
   7.4409010e+02   1.1354150e+02
   7.4457220e+02   1.1037650e+02
   7.4505430e+02   1.1151420e+02
   7.4553640e+02   1.1593600e+02
   7.4601860e+02   1.1232420e+02
   7.4650070e+02   9.5132320e+01
   7.4698280e+02   7.8574220e+01
   7.4746490e+02   8.2643550e+01
   7.4794700e+02   9.7962890e+01
   7.4842910e+02   1.0816940e+02
   7.4891130e+02   1.0156740e+02
   7.4939340e+02   9.6315430e+01
   7.4987550e+02   9.9798830e+01
   7.5035760e+02   1.0864400e+02
   7.5083970e+02   1.1677000e+02
   7.5132180e+02   1.2749320e+02
   7.5180400e+02   1.3074800e+02
   7.5228610e+02   1.2176710e+02
   7.5276820e+02   1.0544240e+02
   7.5325030e+02   9.3848630e+01
   7.5373240e+02   8.7077150e+01
   7.5421450e+02   8.2935060e+01
   7.5469670e+02   8.3489260e+01
   7.5517880e+02   8.2757810e+01
   7.5566090e+02   6.9258300e+01
   7.5614300e+02   4.7821780e+01
   7.5662510e+02   3.0228030e+01
   7.5710720e+02   2.1460450e+01
   7.5758940e+02   1.6523440e+01
   7.5807150e+02   1.6214360e+01
   7.5855360e+02   1.9232420e+01
   7.5903570e+02   1.8038090e+01
   7.5951780e+02   7.5292970e+00
   7.5999990e+02   9.5312500e-01
   7.6048210e+02   4.2001950e+00
   7.6096420e+02   1.4194340e+01
   7.6144630e+02   1.4863770e+01
   7.6192840e+02   5.7753910e+00
   7.6241050e+02   2.1552730e+00
   7.6289260e+02   1.8671880e+00
   7.6337480e+02   2.2441410e+00
   7.6385690e+02   2.8286130e+00
   7.6433900e+02   7.5293000e-01
   7.6482110e+02   3.2373000e-01
   7.6530320e+02   4.2646480e+00
   7.6578530e+02   8.0869140e+00
   7.6626750e+02   6.4179690e+00
   7.6674960e+02   7.3437500e-01
   7.6723170e+02   4.4648440e+00
   7.6771380e+02   2.8969730e+00
   7.6819590e+02   3.8330100e-01
   7.6867800e+02   4.5937500e+00
   7.6916020e+02   9.6323240e+00
   7.6964230e+02   1.2208980e+01
   7.7012440e+02   1.2165530e+01
   7.7060650e+02   1.1801760e+01
   7.7108860e+02   1.3571290e+01
   7.7157070e+02   1.5934080e+01
   7.7205290e+02   1.5174320e+01
   7.7253500e+02   1.1440920e+01
   7.7301710e+02   9.7675780e+00
   7.7349920e+02   1.5181150e+01
   7.7398130e+02   2.1763670e+01
   7.7446340e+02   2.5526370e+01
   7.7494560e+02   2.5579590e+01
   7.7542770e+02   2.5313480e+01
   7.7590980e+02   2.5706540e+01
   7.7639190e+02   2.4582520e+01
   7.7687400e+02   1.9830080e+01
   7.7735610e+02   1.1452640e+01
   7.7783830e+02   7.3125000e+00
   7.7832040e+02   7.8408200e+00
   7.7880250e+02   9.9682620e+00
   7.7928460e+02   1.3687990e+01
   7.7976670e+02   1.6671390e+01
   7.8024880e+02   1.2797360e+01
   7.8073100e+02   1.5600590e+00
   7.8121310e+02   6.9423830e+00
   7.8169520e+02   6.3320310e+00
   7.8217730e+02   1.5551760e+00
   7.8265940e+02   4.9711910e+00
   7.8314150e+02   1.5078120e+01
   7.8362370e+02   1.8995610e+01
   7.8410580e+02   1.3438960e+01
   7.8458790e+02   6.1977540e+00
   7.8506990e+02   2.4038090e+00
   7.8555210e+02   1.9077150e+00
   7.8603420e+02   2.3671880e+00
   7.8651630e+02   3.6503910e+00
   7.8699840e+02   5.9121090e+00
   7.8748050e+02   1.0482910e+01
   7.8796260e+02   1.5729000e+01
   7.8844480e+02   1.9548830e+01
   7.8892690e+02   2.1716310e+01
   7.8940900e+02   2.2772460e+01
   7.8989110e+02   2.1259770e+01
   7.9037320e+02   2.0311040e+01
   7.9085530e+02   2.2879390e+01
   7.9133750e+02   3.2077640e+01
   7.9181960e+02   3.5540530e+01
   7.9230170e+02   3.0977540e+01
   7.9278380e+02   2.5378420e+01
   7.9326590e+02   2.4815920e+01
   7.9374800e+02   2.8841800e+01
   7.9423020e+02   3.3166020e+01
   7.9471230e+02   3.7552250e+01
   7.9519440e+02   4.0384280e+01
   7.9567650e+02   3.7898440e+01
   7.9615860e+02   3.4120610e+01
   7.9664070e+02   3.5255860e+01
   7.9712290e+02   4.3747560e+01
   7.9760500e+02   4.9470210e+01
   7.9808710e+02   4.7201170e+01
   7.9856920e+02   4.2099120e+01
   7.9905130e+02   3.8410160e+01
   7.9953340e+02   3.7426270e+01
   8.0001560e+02   3.4000490e+01
   8.0049770e+02   2.7193360e+01
   8.0097980e+02   2.0619630e+01
   8.0146190e+02   1.8305660e+01
   8.0194400e+02   1.9410640e+01
   8.0242610e+02   1.9409180e+01
   8.0290830e+02   1.7647460e+01
   8.0339040e+02   1.7360350e+01
   8.0387250e+02   2.4320310e+01
   8.0435460e+02   3.2370610e+01
   8.0483670e+02   3.4356450e+01
   8.0531880e+02   2.7108400e+01
   8.0580100e+02   2.0807620e+01
   8.0628310e+02   1.8750490e+01
   8.0676520e+02   1.7519530e+01
   8.0724730e+02   1.4990230e+01
   8.0772940e+02   1.1054200e+01
   8.0821150e+02   5.7392580e+00
   8.0869370e+02   1.6772460e+00
   8.0917580e+02   7.2705080e+00
   8.0965790e+02   5.7246090e+00
   8.1014000e+02   5.0878900e-01
   8.1062210e+02   5.2543950e+00
   8.1110420e+02   7.8779300e+00
   8.1158640e+02   9.5532230e+00
   8.1206850e+02   1.3303710e+01
   8.1255060e+02   1.5062500e+01
   8.1303270e+02   9.8354490e+00
   8.1351480e+02   7.9467770e+00
   8.1399690e+02   1.6689450e+01
   8.1447910e+02   1.1958980e+01
   8.1496120e+02   2.7280270e+00
   8.1544330e+02   4.9648440e+00
   8.1592540e+02   1.0933590e+01
   8.1640750e+02   1.8706050e+01
   8.1688960e+02   2.8871090e+01
   8.1737180e+02   3.5373050e+01
   8.1785390e+02   2.7933590e+01
   8.1833600e+02   1.5361330e+01
   8.1881810e+02   1.2179690e+01
   8.1930020e+02   2.0586910e+01
   8.1978230e+02   2.8024410e+01
   8.2026450e+02   2.6887700e+01
   8.2074660e+02   2.4175780e+01
   8.2122870e+02   2.5096680e+01
   8.2171080e+02   3.0579100e+01
   8.2219290e+02   3.5178710e+01
   8.2267500e+02   3.9609380e+01
   8.2315720e+02   4.1647460e+01
   8.2363930e+02   3.6744140e+01
   8.2412140e+02   2.7129880e+01
   8.2460350e+02   2.6272460e+01
   8.2508560e+02   3.4341800e+01
   8.2556770e+02   4.3204100e+01
   8.2604990e+02   4.7067380e+01
   8.2653200e+02   4.7709960e+01
   8.2701410e+02   4.5514650e+01
   8.2749620e+02   4.0194340e+01
   8.2797830e+02   3.7819340e+01
   8.2846040e+02   4.1371090e+01
   8.2894260e+02   4.6990230e+01
   8.2942470e+02   5.5438480e+01
   8.2990680e+02   6.7094730e+01
   8.3038890e+02   6.2779300e+01
   8.3087100e+02   4.0431640e+01
   8.3135310e+02   1.8757810e+01
   8.3183530e+02   1.2524410e+01
   8.3231740e+02   1.5038090e+01
   8.3279950e+02   1.4471680e+01
   8.3328160e+02   1.1166990e+01
   8.3376370e+02   9.2099610e+00
   8.3424580e+02   1.0209960e+01
   8.3472800e+02   1.3811520e+01
   8.3521010e+02   2.2527340e+01
   8.3569220e+02   3.6432620e+01
   8.3617430e+02   4.0708010e+01
   8.3665640e+02   3.0374020e+01
   8.3713850e+02   2.0233400e+01
   8.3762070e+02   1.7320310e+01
   8.3810280e+02   1.9759770e+01
   8.3858490e+02   1.9399410e+01
   8.3906700e+02   1.5823240e+01
   8.3954910e+02   1.0919920e+01
   8.4003130e+02   2.1250000e+00
   8.4051340e+02   4.6982420e+00
   8.4099550e+02   1.6318360e+00
   8.4147760e+02   9.0781250e+00
   8.4195970e+02   1.6708010e+01
   8.4244180e+02   1.4508790e+01
   8.4292400e+02   1.2721680e+01
   8.4340610e+02   1.5000980e+01
   8.4388820e+02   2.0052730e+01
   8.4437030e+02   2.2163090e+01
   8.4485240e+02   2.1085940e+01
   8.4533450e+02   1.9167970e+01
   8.4581670e+02   1.7090820e+01
   8.4629880e+02   1.4851560e+01
   8.4678090e+02   1.2947270e+01
   8.4726300e+02   1.1125980e+01
   8.4774510e+02   8.5273440e+00
   8.4822720e+02   1.5068360e+00
   8.4870940e+02   2.7900390e+00
   8.4919150e+02   2.3134770e+00
   8.4967360e+02   1.2433590e+01
   8.5015570e+02   1.5293950e+01
   8.5063780e+02   6.1904300e+00
   8.5111990e+02   1.4257800e-01
   8.5160210e+02   6.2402300e-01
   8.5208420e+02   5.0566410e+00
   8.5256630e+02   8.0078130e+00
   8.5304840e+02   9.5205080e+00
   8.5353050e+02   1.2208010e+01
   8.5401260e+02   1.6886720e+01
   8.5449480e+02   2.2875000e+01
   8.5497690e+02   3.0820310e+01
   8.5545900e+02   3.9059570e+01
   8.5594110e+02   4.5142580e+01
   8.5642320e+02   4.5660160e+01
   8.5690530e+02   4.7333010e+01
   8.5738750e+02   5.2121090e+01
   8.5786960e+02   5.6906250e+01
   8.5835170e+02   5.7530270e+01
   8.5883380e+02   5.3918950e+01
   8.5931590e+02   4.8508790e+01
   8.5979800e+02   4.1625000e+01
   8.6028020e+02   3.3639650e+01
   8.6076230e+02   2.1697270e+01
   8.6124440e+02   1.0220700e+01
   8.6172650e+02   6.8876950e+00
   8.6220860e+02   1.5876950e+01
   8.6269070e+02   2.5328120e+01
   8.6317290e+02   3.3308590e+01
   8.6365500e+02   3.8215820e+01
   8.6413710e+02   3.8048830e+01
   8.6461920e+02   3.0035160e+01
   8.6510130e+02   2.7571290e+01
   8.6558340e+02   3.1758790e+01
   8.6606560e+02   3.7334960e+01
   8.6654770e+02   3.9000000e+01
   8.6702980e+02   3.7880860e+01
   8.6751190e+02   3.8358400e+01
   8.6799400e+02   4.0865230e+01
   8.6847610e+02   4.2098630e+01
   8.6895830e+02   3.8611330e+01
   8.6944040e+02   3.3968750e+01
   8.6992250e+02   2.9514650e+01
   8.7040460e+02   2.4835940e+01
   8.7088670e+02   2.7488280e+01
   8.7136880e+02   4.2122070e+01
   8.7185100e+02   5.3436520e+01
   8.7233310e+02   5.3972660e+01
   8.7281520e+02   4.5545900e+01
   8.7329730e+02   3.2576170e+01
   8.7377940e+02   1.5645510e+01
   8.7426150e+02   3.9453130e+00
   8.7474370e+02   7.6171880e+00
   8.7522580e+02   1.5591800e+01
   8.7570790e+02   1.8542970e+01
   8.7619000e+02   1.7226560e+01
   8.7667210e+02   1.7718750e+01
   8.7715420e+02   2.4534180e+01
   8.7763640e+02   2.9513670e+01
   8.7811850e+02   3.0960940e+01
   8.7860060e+02   2.9059570e+01
   8.7908270e+02   2.2751950e+01
   8.7956480e+02   1.2113280e+01
   8.8004690e+02   4.7070310e+00
   8.8052910e+02   4.5322270e+00
   8.8101120e+02   7.2753910e+00
   8.8149330e+02   7.3339840e+00
   8.8197540e+02   6.1826170e+00
   8.8245750e+02   6.9013670e+00
   8.8293960e+02   1.1462890e+01
   8.8342180e+02   1.6966800e+01
   8.8390390e+02   2.4822270e+01
   8.8438600e+02   3.2148440e+01
   8.8486810e+02   3.4212890e+01
   8.8535020e+02   3.0067380e+01
   8.8583230e+02   2.7001950e+01
   8.8631450e+02   2.6521480e+01
   8.8679660e+02   2.5863280e+01
   8.8727870e+02   2.1065430e+01
   8.8776080e+02   1.3635740e+01
   8.8824290e+02   5.5292970e+00
   8.8872500e+02   4.1416020e+00
   8.8920720e+02   9.5751950e+00
   8.8968930e+02   5.3261720e+00
   8.9017140e+02   2.4648440e+00
   8.9065350e+02   8.4130860e+00
   8.9113560e+02   1.1979490e+01
   8.9161770e+02   1.5928710e+01
   8.9209990e+02   2.0841800e+01
   8.9258200e+02   2.4260740e+01
   8.9306410e+02   2.2610350e+01
   8.9354620e+02   1.8034180e+01
   8.9402830e+02   1.6662110e+01
   8.9451040e+02   1.8599610e+01
   8.9499260e+02   1.9433590e+01
   8.9547470e+02   1.4410160e+01
   8.9595680e+02   9.2265630e+00
   8.9643890e+02   8.2500000e+00
   8.9692100e+02   1.1611330e+01
   8.9740310e+02   1.1866210e+01
   8.9788530e+02   6.9931640e+00
   8.9836740e+02   3.7324220e+00
   8.9884950e+02   6.4882810e+00
   8.9933160e+02   1.3120120e+01
   8.9981370e+02   1.7602540e+01
   9.0029580e+02   2.0015620e+01
   9.0077800e+02   2.1126950e+01
   9.0126010e+02   2.1849610e+01
   9.0174220e+02   2.0930660e+01
   9.0222430e+02   1.4066410e+01
   9.0270640e+02   5.1074220e+00
   9.0318850e+02   4.7353520e+00
   9.0367070e+02   2.1190430e+01
   9.0415280e+02   3.1583010e+01
   9.0463490e+02   3.1220700e+01
   9.0511700e+02   2.5238280e+01
   9.0559910e+02   2.1619140e+01
   9.0608120e+02   2.0510740e+01
   9.0656340e+02   1.9988280e+01
   9.0704550e+02   2.0113280e+01
   9.0752760e+02   2.0832030e+01
   9.0800970e+02   2.5465820e+01
   9.0849180e+02   2.9109380e+01
   9.0897390e+02   2.5871090e+01
   9.0945610e+02   6.8427730e+00
   9.0993820e+02   3.2470700e+00
   9.1042030e+02   9.0234400e-01
   9.1090240e+02   6.0712890e+00
   9.1138450e+02   1.1867190e+01
   9.1186660e+02   1.6490230e+01
   9.1234880e+02   1.7838870e+01
   9.1283090e+02   1.6169920e+01
   9.1331300e+02   1.4744140e+01
   9.1379510e+02   1.6365230e+01
   9.1427720e+02   2.0193360e+01
   9.1475930e+02   2.6814450e+01
   9.1524150e+02   3.6032230e+01
   9.1572360e+02   4.1353520e+01
   9.1620570e+02   3.7783200e+01
   9.1668780e+02   3.5804690e+01
   9.1716990e+02   3.8815430e+01
   9.1765200e+02   4.6174800e+01
   9.1813420e+02   5.7406250e+01
   9.1861630e+02   7.1766600e+01
   9.1909840e+02   8.0655270e+01
   9.1958050e+02   7.5848630e+01
   9.2006260e+02   6.8234380e+01
   9.2054470e+02   6.6899410e+01
   9.2102690e+02   7.0901370e+01
   9.2150900e+02   7.7883790e+01
   9.2199110e+02   9.1639650e+01
   9.2247320e+02   1.0288480e+02
   9.2295530e+02   1.1026170e+02
   9.2343740e+02   1.1546580e+02
   9.2391960e+02   1.1993360e+02
   9.2440170e+02   1.2398730e+02
   9.2488380e+02   1.3186520e+02
   9.2536590e+02   1.4506050e+02
   9.2584800e+02   1.5831350e+02
   9.2633010e+02   1.6558890e+02
   9.2681230e+02   1.7062110e+02
   9.2729440e+02   1.7776070e+02
   9.2777650e+02   1.8817090e+02
   9.2825860e+02   1.9887010e+02
   9.2874070e+02   2.0952440e+02
   9.2922280e+02   2.2036820e+02
   9.2970500e+02   2.3214450e+02
   9.3018710e+02   2.4447950e+02
   9.3066920e+02   2.5485640e+02
   9.3115130e+02   2.6329690e+02
   9.3163340e+02   2.6603030e+02
   9.3211550e+02   2.5648630e+02
   9.3259770e+02   2.4344920e+02
   9.3307980e+02   2.3650680e+02
   9.3356190e+02   2.3396290e+02
   9.3404400e+02   2.2605080e+02
   9.3452610e+02   2.0438280e+02
   9.3500820e+02   1.8481540e+02
   9.3549040e+02   1.7082620e+02
   9.3597250e+02   1.6081050e+02
   9.3645460e+02   1.5178910e+02
   9.3693670e+02   1.4335450e+02
   9.3741880e+02   1.3106930e+02
   9.3790090e+02   1.1208010e+02
   9.3838310e+02   9.3357420e+01
   9.3886520e+02   8.0895510e+01
   9.3934730e+02   7.1883790e+01
   9.3982940e+02   6.2907230e+01
   9.4031150e+02   5.0973630e+01
   9.4079360e+02   4.4274410e+01
   9.4127580e+02   4.5243160e+01
   9.4175790e+02   4.8435550e+01
   9.4224000e+02   4.9267580e+01
   9.4272210e+02   4.7923830e+01
   9.4320420e+02   4.4884770e+01
   9.4368630e+02   4.0160160e+01
   9.4416850e+02   3.6599610e+01
   9.4465060e+02   3.6110350e+01
   9.4513270e+02   3.7745120e+01
   9.4561480e+02   4.0626950e+01
   9.4609690e+02   4.4644530e+01
   9.4657900e+02   5.0749020e+01
   9.4706120e+02   6.1817380e+01
   9.4754330e+02   6.9288090e+01
   9.4802540e+02   6.8669920e+01
   9.4850750e+02   6.2950200e+01
   9.4898960e+02   6.3540040e+01
   9.4947170e+02   6.8610350e+01
   9.4995390e+02   6.8771480e+01
   9.5043600e+02   5.8043950e+01
   9.5091810e+02   4.4416020e+01
   9.5140020e+02   2.9924800e+01
   9.5188230e+02   1.7211910e+01
   9.5236440e+02   1.0952150e+01
   9.5284660e+02   1.4255860e+01
   9.5332870e+02   1.8556640e+01
   9.5381080e+02   2.4628910e+01
   9.5429290e+02   2.9481450e+01
   9.5477500e+02   2.7800780e+01
   9.5525710e+02   2.2079100e+01
   9.5573930e+02   2.1225590e+01
   9.5622140e+02   2.6249020e+01
   9.5670350e+02   2.9762700e+01
   9.5718560e+02   2.5263670e+01
   9.5766770e+02   1.8944340e+01
   9.5814980e+02   1.4431640e+01
   9.5863200e+02   1.1888670e+01
   9.5911410e+02   1.2169920e+01
   9.5959620e+02   1.6594730e+01
   9.6007830e+02   1.8795900e+01
   9.6056040e+02   1.5238280e+01
   9.6104250e+02   8.1650390e+00
   9.6152470e+02   8.4960997e-02
   9.6200680e+02   7.4863280e+00
   9.6248890e+02   9.8662110e+00
   9.6297100e+02   1.0546880e+00
   9.6345310e+02   1.0543950e+01
   9.6393520e+02   1.2596680e+01
   9.6441740e+02   1.0224610e+01
   9.6489950e+02   8.1005860e+00
   9.6538160e+02   6.9794920e+00
   9.6586370e+02   1.4589840e+00
   9.6634580e+02   1.0440430e+01
   9.6682790e+02   1.9348630e+01
   9.6731010e+02   1.0945310e+01
   9.6779220e+02   5.5595700e+00
   9.6827430e+02   1.6773440e+01
   9.6875640e+02   2.1051760e+01
   9.6923850e+02   2.0450200e+01
   9.6972060e+02   6.4091800e+00
   9.7020280e+02   2.5761720e+00
   9.7068490e+02   3.6943360e+00
   9.7116700e+02   2.2906250e+01
   9.7164910e+02   3.6555660e+01
   9.7213120e+02   4.4294920e+01
   9.7261330e+02   4.9916020e+01
   9.7309550e+02   5.7815430e+01
   9.7357760e+02   6.1077150e+01
   9.7405970e+02   4.3554690e+01
   9.7454180e+02   1.6410160e+01
   9.7502390e+02   2.2968750e+00
   9.7550600e+02   2.1672850e+01
   9.7598820e+02   3.5880860e+01
   9.7647030e+02   4.1754880e+01
   9.7695240e+02   4.0188480e+01
   9.7743450e+02   2.8187500e+01
   9.7791660e+02   7.9003910e+00
   9.7839870e+02   5.1171900e-01
   9.7888090e+02   5.8027340e+00
   9.7936300e+02   1.4987300e+01
   9.7984510e+02   1.9666990e+01
   9.8032720e+02   2.1430660e+01
   9.8080930e+02   2.0273440e+01
   9.8129140e+02   1.6041990e+01
   9.8177360e+02   1.6321290e+01
   9.8225570e+02   2.3654300e+01
   9.8273770e+02   3.0208980e+01
   9.8321980e+02   3.3455080e+01
   9.8370200e+02   3.3028320e+01
   9.8418410e+02   2.3956050e+01
   9.8466620e+02   9.6406250e+00
   9.8514830e+02   2.7392580e+00
   9.8563040e+02   1.6923830e+01
   9.8611250e+02   2.8412110e+01
   9.8659470e+02   1.9580080e+01
   9.8707680e+02   3.7382810e+00
   9.8755890e+02   5.1074200e-01
   9.8804100e+02   1.4421880e+01
   9.8852310e+02   2.5558590e+01
   9.8900520e+02   3.3513670e+01
   9.8948740e+02   3.5831050e+01
   9.8996950e+02   2.5609380e+01
   9.9045160e+02   1.0050780e+01
   9.9093370e+02   5.3222700e-01
   9.9141580e+02   1.9658200e+00
   9.9189790e+02   7.8613300e-01
   9.9238010e+02   8.5000000e+00
   9.9286220e+02   1.5088870e+01
   9.9334430e+02   1.4286130e+01
   9.9382640e+02   7.8808590e+00
   9.9430850e+02   3.4169920e+00
   9.9479060e+02   9.6679700e-01
   9.9527280e+02   2.5136720e+00
   9.9575490e+02   9.5087890e+00
   9.9623700e+02   1.5114260e+01
   9.9671910e+02   1.2765620e+01
   9.9720120e+02   6.1923830e+00
   9.9768330e+02   7.7246100e-01
   9.9816550e+02   8.4570300e-01
   9.9864760e+02   3.3603520e+00
   9.9912970e+02   7.3398440e+00
   9.9961180e+02   1.1048830e+01
   1.0000940e+03   1.1687500e+01
   1.0005760e+03   1.0297850e+01
   1.0010580e+03   1.2852540e+01
   1.0015400e+03   1.9119140e+01
   1.0020220e+03   2.4564450e+01
   1.0025050e+03   2.4357420e+01
   1.0029870e+03   2.4028320e+01
   1.0034690e+03   2.7095700e+01
   1.0039510e+03   3.3054690e+01
   1.0044330e+03   3.9772460e+01
   1.0049150e+03   4.9591800e+01
   1.0053970e+03   5.0331050e+01
   1.0058790e+03   3.6320310e+01
   1.0063610e+03   1.9115230e+01
   1.0068440e+03   1.8233400e+01
   1.0073260e+03   2.6139650e+01
   1.0078080e+03   2.8046880e+01
   1.0082900e+03   1.7500980e+01
   1.0087720e+03   1.1116210e+01
   1.0092540e+03   1.6657230e+01
   1.0097360e+03   2.5959960e+01
   1.0102180e+03   3.5849610e+01
   1.0107010e+03   4.6276370e+01
   1.0111830e+03   4.8979490e+01
   1.0116650e+03   4.4291020e+01
   1.0121470e+03   4.4190430e+01
   1.0126290e+03   6.2202150e+01
   1.0131110e+03   8.2834960e+01
   1.0135930e+03   9.0829100e+01
   1.0140750e+03   8.9969730e+01
   1.0145570e+03   9.1141600e+01
   1.0150400e+03   9.6194340e+01
   1.0155220e+03   1.0280570e+02
   1.0160040e+03   1.1116990e+02
   1.0164860e+03   1.2007230e+02
   1.0169680e+03   1.2810940e+02
   1.0174500e+03   1.3539840e+02
   1.0179320e+03   1.4206930e+02
   1.0184140e+03   1.4809380e+02
   1.0188960e+03   1.5258200e+02
   1.0193790e+03   1.5109380e+02
   1.0198610e+03   1.5093460e+02
   1.0203430e+03   1.5780080e+02
   1.0208250e+03   1.7177340e+02
   1.0213070e+03   1.8571390e+02
   1.0217890e+03   1.9966890e+02
   1.0222710e+03   2.1254790e+02
   1.0227530e+03   2.2434380e+02
   1.0232360e+03   2.3454980e+02
   1.0237180e+03   2.3964750e+02
   1.0242000e+03   2.4274020e+02
   1.0246820e+03   2.5070210e+02
   1.0251640e+03   2.7258010e+02
   1.0256460e+03   2.9105080e+02
   1.0261280e+03   3.0049610e+02
   1.0266100e+03   3.1061910e+02
   1.0270930e+03   3.3260840e+02
   1.0275750e+03   3.6383300e+02
   1.0280570e+03   3.8699410e+02
   1.0285390e+03   4.0212010e+02
   1.0290210e+03   4.1506640e+02
   1.0295030e+03   4.2632130e+02
   1.0299850e+03   4.3915330e+02
   1.0304670e+03   4.6368460e+02
   1.0309490e+03   4.9146480e+02
   1.0314320e+03   4.9202340e+02
   1.0319140e+03   4.5988090e+02
   1.0323960e+03   4.2162210e+02
   1.0328780e+03   3.8181930e+02
   1.0333600e+03   3.4146480e+02
   1.0338420e+03   3.0027640e+02
   1.0343240e+03   2.6028710e+02
   1.0348060e+03   2.2323440e+02
   1.0352880e+03   1.8805960e+02
   1.0357710e+03   1.6331840e+02
   1.0362530e+03   1.5879200e+02
   1.0367350e+03   1.5610450e+02
   1.0372170e+03   1.4662010e+02
   1.0376990e+03   1.3137300e+02
   1.0381810e+03   1.1500490e+02
   1.0386630e+03   9.7990230e+01
   1.0391450e+03   8.4137700e+01
   1.0396280e+03   7.9144530e+01
   1.0401100e+03   7.3690430e+01
   1.0405920e+03   5.7054690e+01
   1.0410740e+03   3.7547850e+01
   1.0415560e+03   2.9639650e+01
   1.0420380e+03   3.8584960e+01
   1.0425200e+03   4.3329100e+01
   1.0430020e+03   4.2203120e+01
   1.0434840e+03   3.9068360e+01
   1.0439670e+03   3.8173830e+01
   1.0444490e+03   3.7251950e+01
   1.0449310e+03   2.8544920e+01
   1.0454130e+03   1.3371090e+01
   1.0458950e+03   8.5292970e+00
   1.0463770e+03   3.1442380e+01
   1.0468590e+03   5.1112300e+01
   1.0473410e+03   5.7542970e+01
   1.0478230e+03   5.5917970e+01
   1.0483060e+03   5.8319340e+01
   1.0487880e+03   6.4306640e+01
   1.0492700e+03   7.2040040e+01
   1.0497520e+03   8.2068360e+01
   1.0502340e+03   9.0580080e+01
   1.0507160e+03   9.2088870e+01
   1.0511980e+03   9.2043950e+01
   1.0516800e+03   9.6251950e+01
   1.0521630e+03   1.0554300e+02
   1.0526450e+03   1.1302640e+02
   1.0531270e+03   1.1932710e+02
   1.0536090e+03   1.2017190e+02
   1.0540910e+03   1.0607320e+02
   1.0545730e+03   9.2456050e+01
   1.0550550e+03   1.0962110e+02
   1.0555370e+03   1.4627730e+02
   1.0560200e+03   1.7670210e+02
   1.0565020e+03   1.8585350e+02
   1.0569840e+03   1.9691020e+02
   1.0574660e+03   2.1098140e+02
   1.0579480e+03   2.2952540e+02
   1.0584300e+03   2.5752250e+02
   1.0589120e+03   2.9230270e+02
   1.0593940e+03   3.1711820e+02
   1.0598760e+03   3.3100290e+02
   1.0603590e+03   3.4125100e+02
   1.0608410e+03   3.5308010e+02
   1.0613230e+03   3.6069340e+02
   1.0618050e+03   3.6005660e+02
   1.0622870e+03   3.5229000e+02
   1.0627690e+03   3.4022170e+02
   1.0632510e+03   3.2354490e+02
   1.0637330e+03   3.0565720e+02
   1.0642150e+03   2.8705570e+02
   1.0646980e+03   2.6844240e+02
   1.0651800e+03   2.4724320e+02
   1.0656620e+03   2.2805470e+02
   1.0661440e+03   2.1822850e+02
   1.0666260e+03   2.2109670e+02
   1.0671080e+03   2.2012790e+02
   1.0675900e+03   2.1086910e+02
   1.0680720e+03   2.0308010e+02
   1.0685550e+03   2.0012300e+02
   1.0690370e+03   2.0234380e+02
   1.0695190e+03   2.1703810e+02
   1.0700010e+03   2.3857230e+02
   1.0704830e+03   2.4872660e+02
   1.0709650e+03   2.3215720e+02
   1.0714470e+03   2.1661820e+02
   1.0719290e+03   2.2013090e+02
   1.0724110e+03   2.2402250e+02
   1.0728940e+03   2.0944140e+02
   1.0733760e+03   1.7450390e+02
   1.0738580e+03   1.4477440e+02
   1.0743400e+03   1.2105570e+02
   1.0748220e+03   1.0364360e+02
   1.0753040e+03   9.5345700e+01
   1.0757860e+03   9.0332030e+01
   1.0762680e+03   8.5761720e+01
   1.0767500e+03   8.1041020e+01
   1.0772330e+03   7.3791990e+01
   1.0777150e+03   6.3558590e+01
   1.0781970e+03   5.1979490e+01
   1.0786790e+03   3.8121090e+01
   1.0791610e+03   2.6378910e+01
   1.0796430e+03   2.4954100e+01
   1.0801250e+03   2.8051760e+01
   1.0806070e+03   2.4914060e+01
   1.0810900e+03   1.4176760e+01
   1.0815720e+03   9.8105470e+00
   1.0820540e+03   2.3586910e+01
   1.0825360e+03   3.5911130e+01
   1.0830180e+03   4.1748050e+01
   1.0835000e+03   4.1275390e+01
   1.0839820e+03   3.0313480e+01
   1.0844640e+03   1.2340820e+01
   1.0849460e+03   5.5693360e+00
   1.0854290e+03   1.9437500e+01
   1.0859110e+03   3.2573240e+01
   1.0863930e+03   3.0943360e+01
   1.0868750e+03   2.4294920e+01
   1.0873570e+03   2.0764650e+01
   1.0878390e+03   2.0575200e+01
   1.0883210e+03   2.3375980e+01
   1.0888030e+03   2.9586910e+01
   1.0892860e+03   3.1068360e+01
   1.0897680e+03   1.8648440e+01
   1.0902500e+03   4.3281250e+00
   1.0907320e+03   7.3144500e-01
   1.0912140e+03   1.4902340e+00
   1.0916960e+03   7.7216800e+00
   1.0921780e+03   2.2263670e+01
   1.0926600e+03   2.9895510e+01
   1.0931420e+03   2.8116210e+01
   1.0936250e+03   2.5768550e+01
   1.0941070e+03   3.4552730e+01
   1.0945890e+03   4.7086910e+01
   1.0950710e+03   4.5760740e+01
   1.0955530e+03   3.2725590e+01
   1.0960350e+03   2.4669920e+01
   1.0965170e+03   3.8114260e+01
   1.0969990e+03   4.3690430e+01
   1.0974810e+03   3.1135740e+01
   1.0979640e+03   1.1562500e+01
   1.0984460e+03   1.8281250e+00
   1.0989280e+03   1.2060550e+00
   1.0994100e+03   9.4746090e+00
   1.0998920e+03   2.7251950e+01
   1.1003740e+03   3.7861330e+01
   1.1008560e+03   2.2768550e+01
   1.1013380e+03   4.4794920e+00
   1.1018210e+03   2.7412110e+00
   1.1023030e+03   1.0029300e+00
   1.1027850e+03   4.1406300e-01
   1.1032670e+03   1.0234380e+00
   1.1037490e+03   1.7744140e+00
   1.1042310e+03   3.2021480e+00
   1.1047130e+03   1.9287110e+00
   1.1051950e+03   9.9775390e+00
   1.1056770e+03   2.3343750e+01
   1.1061600e+03   2.5651370e+01
   1.1066420e+03   1.1029300e+01
   1.1071240e+03   9.0195310e+00
   1.1076060e+03   2.2500980e+01
   1.1080880e+03   3.7332030e+01
   1.1085700e+03   4.8263670e+01
   1.1090520e+03   5.4155270e+01
   1.1095340e+03   5.1869140e+01
   1.1100160e+03   4.3474610e+01
   1.1104990e+03   3.3368160e+01
   1.1109810e+03   1.9327150e+01
   1.1114630e+03   9.4980470e+00
   1.1119450e+03   4.6035160e+00
   1.1124270e+03   3.4140630e+00
   1.1129090e+03   5.4775390e+00
   1.1133910e+03   1.0422850e+01
   1.1138730e+03   2.0608400e+01
   1.1143560e+03   3.4005860e+01
   1.1148380e+03   3.8792970e+01
   1.1153200e+03   1.8890620e+01
   1.1158020e+03   2.6093750e+00
   1.1162840e+03   2.1181640e+00
   1.1167660e+03   7.8896480e+00
   1.1172480e+03   4.4189450e+00
   1.1177300e+03   6.9804690e+00
   1.1182130e+03   2.4121090e+00
   1.1186950e+03   2.0313480e+01
   1.1191770e+03   4.0241210e+01
   1.1196590e+03   3.8777340e+01
   1.1201410e+03   3.1936520e+01
   1.1206230e+03   2.9713870e+01
   1.1211050e+03   3.1033200e+01
   1.1215870e+03   3.0612300e+01
   1.1220690e+03   2.8033200e+01
   1.1225520e+03   2.8393550e+01
   1.1230340e+03   3.3884770e+01
   1.1235160e+03   3.7286130e+01
   1.1239980e+03   2.6118160e+01
   1.1244800e+03   1.2249020e+01
   1.1249620e+03   1.0793950e+01
   1.1254440e+03   2.5037110e+01
   1.1259260e+03   2.5232420e+01
   1.1264080e+03   6.0566410e+00
   1.1268910e+03   8.7783200e+00
   1.1273730e+03   1.0077150e+01
   1.1278550e+03   3.8818360e+00
   1.1283370e+03   4.5937500e+00
   1.1288190e+03   1.2388670e+01
   1.1293010e+03   1.3463870e+01
   1.1297830e+03   2.1796880e+00
   1.1302650e+03   1.7031250e+00
   1.1307480e+03   8.4228520e+00
   1.1312300e+03   1.5629880e+01
   1.1317120e+03   7.6269530e+00
   1.1321940e+03   8.7050780e+00
   1.1326760e+03   1.3872070e+01
   1.1331580e+03   1.0444340e+01
   1.1336400e+03   6.0039060e+00
   1.1341220e+03   4.3232420e+00
   1.1346040e+03   2.6562500e-01
   1.1350870e+03   1.1760740e+01
   1.1355690e+03   2.1259770e+01
   1.1360510e+03   1.6330080e+01
   1.1365330e+03   2.8125000e-01
   1.1370150e+03   6.1816410e+00
   1.1374970e+03   2.1250000e+00
   1.1379790e+03   4.5517580e+00
   1.1384610e+03   1.4326170e+01
   1.1389430e+03   2.0744140e+01
   1.1394260e+03   1.7692380e+01
   1.1399080e+03   1.1241210e+01
   1.1403900e+03   8.4902340e+00
   1.1408720e+03   9.4179690e+00
   1.1413540e+03   1.4498050e+01
   1.1418360e+03   2.3737300e+01
   1.1423180e+03   2.8378910e+01
   1.1428000e+03   1.4401370e+01
   1.1432830e+03   5.7324200e-01
   1.1437650e+03   2.6953130e+00
   1.1442470e+03   1.5608400e+01
   1.1447290e+03   2.2530270e+01
   1.1452110e+03   2.3083010e+01
   1.1456930e+03   2.1858400e+01
   1.1461750e+03   1.9483400e+01
   1.1466570e+03   1.6168950e+01
   1.1471400e+03   6.5751950e+00
   1.1476220e+03   1.1132800e-01
   1.1481040e+03   9.8876950e+00
   1.1485860e+03   3.4862300e+01
   1.1490680e+03   4.9241210e+01
   1.1495500e+03   5.1240230e+01
   1.1500320e+03   4.5329100e+01
   1.1505140e+03   2.9328120e+01
   1.1509960e+03   1.5589840e+01
   1.1514790e+03   2.7581050e+01
   1.1519610e+03   4.8052730e+01
   1.1524430e+03   5.2856450e+01
   1.1529250e+03   3.6138670e+01
   1.1534070e+03   2.6122070e+01
   1.1538890e+03   2.6747070e+01
   1.1543710e+03   2.8951170e+01
   1.1548530e+03   3.0667970e+01
   1.1553350e+03   3.0343750e+01
   1.1558180e+03   1.9793950e+01
   1.1563000e+03   6.6914060e+00
   1.1567820e+03   6.1503910e+00
   1.1572640e+03   2.7190430e+01
   1.1577460e+03   4.4199220e+01
   1.1582280e+03   5.6379880e+01
   1.1587100e+03   6.0089840e+01
   1.1591920e+03   5.0122070e+01
   1.1596750e+03   3.2351560e+01
   1.1601570e+03   2.2249020e+01
   1.1606390e+03   1.7651370e+01
   1.1611210e+03   1.2517580e+01
   1.1616030e+03   2.2753900e-01
   1.1620850e+03   3.5566410e+00
   1.1625670e+03   1.0179690e+01
   1.1630490e+03   2.5045900e+01
   1.1635310e+03   2.8492190e+01
   1.1640140e+03   2.3450200e+01
   1.1644960e+03   2.3459960e+01
   1.1649780e+03   2.7699220e+01
   1.1654600e+03   3.2571290e+01
   1.1659420e+03   4.1302730e+01
   1.1664240e+03   4.3707030e+01
   1.1669060e+03   3.0031250e+01
   1.1673880e+03   1.5837890e+01
   1.1678700e+03   1.8233400e+01
   1.1683530e+03   3.4622070e+01
   1.1688350e+03   4.1500980e+01
   1.1693170e+03   3.8969730e+01
   1.1697990e+03   3.4820310e+01
   1.1702810e+03   3.2221680e+01
   1.1707630e+03   3.0284180e+01
   1.1712450e+03   2.7637700e+01
   1.1717270e+03   2.5980470e+01
   1.1722100e+03   2.8085940e+01
   1.1726920e+03   3.3661130e+01
   1.1731740e+03   3.9635740e+01
   1.1736560e+03   4.5554690e+01
   1.1741380e+03   4.9542970e+01
   1.1746200e+03   5.3272460e+01
   1.1751020e+03   5.1710940e+01
   1.1755840e+03   3.5295900e+01
   1.1760670e+03   1.4492190e+01
   1.1765490e+03   8.0332030e+00
   1.1770310e+03   1.5995120e+01
   1.1775130e+03   2.1658200e+01
   1.1779950e+03   2.3021480e+01
   1.1784770e+03   2.3495120e+01
   1.1789590e+03   2.8209960e+01
   1.1794410e+03   3.0673830e+01
   1.1799230e+03   2.0797850e+01
   1.1804060e+03   5.5947270e+00
   1.1808880e+03   1.1121090e+01
   1.1813700e+03   3.8858400e+01
   1.1818520e+03   4.7366210e+01
   1.1823340e+03   2.6444340e+01
   1.1828160e+03   5.8027340e+00
   1.1832980e+03   1.4622070e+01
   1.1837800e+03   3.2182620e+01
   1.1842620e+03   4.3363280e+01
   1.1847450e+03   4.6953120e+01
   1.1852270e+03   4.4611330e+01
   1.1857090e+03   3.6102540e+01
   1.1861910e+03   2.9646480e+01
   1.1866730e+03   2.7471680e+01
   1.1871550e+03   2.6148440e+01
   1.1876370e+03   2.2345700e+01
   1.1881190e+03   1.7844730e+01
   1.1886020e+03   1.4374020e+01
   1.1890840e+03   1.2153320e+01
   1.1895660e+03   1.3154300e+01
   1.1900480e+03   1.7489260e+01
   1.1905300e+03   2.0092770e+01
   1.1910120e+03   1.9812500e+01
   1.1914940e+03   1.8289060e+01
   1.1919760e+03   1.6388670e+01
   1.1924580e+03   1.4428710e+01
   1.1929410e+03   1.1927730e+01
   1.1934230e+03   8.5859380e+00
   1.1939050e+03   8.5859380e+00
   1.1943870e+03   1.2412110e+01
   1.1948690e+03   1.4050780e+01
   1.1953510e+03   1.0317380e+01
   1.1958330e+03   6.3310550e+00
   1.1963150e+03   7.6259770e+00
   1.1967970e+03   1.2072270e+01
   1.1972800e+03   1.7847660e+01
   1.1977620e+03   2.5276370e+01
   1.1982440e+03   3.0007810e+01
   1.1987260e+03   3.2017580e+01
   1.1992080e+03   3.1689450e+01
   1.1996900e+03   2.8453120e+01
   1.2001720e+03   2.4287110e+01
   1.2006540e+03   1.8772460e+01
   1.2011370e+03   1.5166020e+01
   1.2016190e+03   1.9693360e+01
   1.2021010e+03   3.6852540e+01
   1.2025830e+03   4.3693360e+01
   1.2030650e+03   3.8815430e+01
   1.2035470e+03   3.3419920e+01
   1.2040290e+03   3.3534180e+01
   1.2045110e+03   3.6330080e+01
   1.2049940e+03   4.0596680e+01
   1.2054760e+03   4.4486330e+01
   1.2059580e+03   4.4256840e+01
   1.2064400e+03   3.6899410e+01
   1.2069220e+03   3.4961910e+01
   1.2074040e+03   3.8915040e+01
   1.2078860e+03   4.4581050e+01
   1.2083680e+03   5.0128910e+01
   1.2088500e+03   5.5058590e+01
   1.2093330e+03   6.0917970e+01
   1.2098150e+03   6.5048830e+01
   1.2102970e+03   6.1403320e+01
   1.2107790e+03   4.6908200e+01
   1.2112610e+03   3.4053710e+01
   1.2117430e+03   2.2911130e+01
   1.2122250e+03   1.3232420e+01
   1.2127070e+03   3.1220700e+00
   1.2131890e+03   4.0751950e+00
   1.2136720e+03   5.5507810e+00
   1.2141540e+03   1.1757810e+00
   1.2146360e+03   1.0951170e+01
   1.2151180e+03   3.7530270e+01
   1.2156000e+03   4.7059570e+01
   1.2160820e+03   3.6992190e+01
   1.2165640e+03   2.4546880e+01
   1.2170460e+03   2.1642580e+01
   1.2175290e+03   2.3901370e+01
   1.2180110e+03   2.8791990e+01
   1.2184930e+03   3.5084960e+01
   1.2189750e+03   4.0339840e+01
   1.2194570e+03   4.4414060e+01
   1.2199390e+03   4.6658200e+01
   1.2204210e+03   4.7053710e+01
   1.2209030e+03   4.7638670e+01
   1.2213850e+03   4.9476560e+01
   1.2218680e+03   5.2627930e+01
   1.2223500e+03   5.8841800e+01
   1.2228320e+03   6.6347660e+01
   1.2233140e+03   6.9635740e+01
   1.2237960e+03   6.8256840e+01
   1.2242780e+03   6.6699220e+01
   1.2247600e+03   6.5528320e+01
   1.2252420e+03   6.1708010e+01
   1.2257240e+03   4.6749020e+01
   1.2262070e+03   3.4233400e+01
   1.2266890e+03   4.0120120e+01
   1.2271710e+03   5.6791020e+01
   1.2276530e+03   6.4374020e+01
   1.2281350e+03   6.2349610e+01
   1.2286170e+03   5.3041020e+01
   1.2290990e+03   3.6244140e+01
   1.2295810e+03   2.3461910e+01
   1.2300640e+03   2.7141600e+01
   1.2305460e+03   3.5098630e+01
   1.2310280e+03   3.9477540e+01
   1.2315100e+03   4.0575200e+01
   1.2319920e+03   3.9210940e+01
   1.2324740e+03   3.4750980e+01
   1.2329560e+03   3.5015620e+01
   1.2334380e+03   4.0676760e+01
   1.2339210e+03   4.5435550e+01
   1.2344030e+03   4.2405270e+01
   1.2348850e+03   3.8754880e+01
   1.2353670e+03   3.9497070e+01
   1.2358490e+03   4.3121090e+01
   1.2363310e+03   4.8524410e+01
   1.2368130e+03   5.5910160e+01
   1.2372950e+03   5.1538090e+01
   1.2377770e+03   3.4345700e+01
   1.2382600e+03   2.1311520e+01
   1.2387420e+03   3.4095700e+01
   1.2392240e+03   4.4862300e+01
   1.2397060e+03   3.1349610e+01
   1.2401880e+03   8.6201170e+00
   1.2406700e+03   2.7929690e+00
   1.2411520e+03   1.2211910e+01
   1.2416340e+03   1.6162110e+01
   1.2421160e+03   1.2604490e+01
   1.2425990e+03   1.2311520e+01
   1.2430810e+03   2.9041990e+01
   1.2435630e+03   4.1777340e+01
   1.2440450e+03   3.8645510e+01
   1.2445270e+03   2.8266600e+01
   1.2450090e+03   2.4030270e+01
   1.2454910e+03   2.5224610e+01
   1.2459730e+03   3.0041990e+01
   1.2464560e+03   3.7891600e+01
   1.2469380e+03   4.3455080e+01
   1.2474200e+03   4.2960940e+01
   1.2479020e+03   4.0988280e+01
   1.2483840e+03   3.9027340e+01
   1.2488660e+03   3.7041020e+01
   1.2493480e+03   3.5566410e+01
   1.2498300e+03   3.4053710e+01
   1.2503130e+03   2.8323240e+01
   1.2507950e+03   1.8736330e+01
   1.2512770e+03   1.4571290e+01
   1.2517590e+03   2.7868160e+01
   1.2522410e+03   3.5439450e+01
   1.2527230e+03   2.9313480e+01
   1.2532050e+03   2.0815430e+01
   1.2536870e+03   2.9397460e+01
   1.2541690e+03   4.6454100e+01
   1.2546510e+03   5.3182620e+01
   1.2551340e+03   4.8514650e+01
   1.2556160e+03   3.9689450e+01
   1.2560980e+03   2.1807620e+01
   1.2565800e+03   1.2066410e+01
   1.2570620e+03   1.5027340e+01
   1.2575440e+03   2.2696290e+01
   1.2580260e+03   2.4906250e+01
   1.2585080e+03   2.4647460e+01
   1.2589910e+03   2.7640620e+01
   1.2594730e+03   3.3435550e+01
   1.2599550e+03   3.4391600e+01
   1.2604370e+03   2.5820310e+01
   1.2609190e+03   2.3139650e+01
   1.2614010e+03   3.0152340e+01
   1.2618830e+03   3.7825200e+01
   1.2623650e+03   3.7202150e+01
   1.2628480e+03   3.1054690e+01
   1.2633300e+03   1.8121090e+01
   1.2638120e+03   1.8525390e+00
   1.2642940e+03   5.7031300e-01
   1.2647760e+03   2.0332030e+01
   1.2652580e+03   3.1889650e+01
   1.2657400e+03   3.0953120e+01
   1.2662220e+03   2.4871090e+01
   1.2667040e+03   1.7674800e+01
   1.2671870e+03   1.1131840e+01
   1.2676690e+03   5.9648440e+00
   1.2681510e+03   2.9023440e+00
   1.2686330e+03   3.7343750e+00
   1.2691150e+03   8.5097660e+00
   1.2695970e+03   1.3700200e+01
   1.2700790e+03   1.8676760e+01
   1.2705610e+03   2.4927730e+01
   1.2710430e+03   3.5713870e+01
   1.2715260e+03   4.5894530e+01
   1.2720080e+03   5.1727540e+01
   1.2724900e+03   5.4307620e+01
   1.2729720e+03   5.5104490e+01
   1.2734540e+03   5.4197270e+01
   1.2739360e+03   5.4345700e+01
   1.2744180e+03   5.5744140e+01
   1.2749000e+03   5.3206050e+01
   1.2753830e+03   3.6649410e+01
   1.2758650e+03   2.4869140e+01
   1.2763470e+03   2.8757810e+01
   1.2768290e+03   3.7577150e+01
   1.2773110e+03   3.4697270e+01
   1.2777930e+03   2.3355470e+01
   1.2782750e+03   1.6686520e+01
   1.2787570e+03   1.5197270e+01
   1.2792390e+03   1.2359380e+01
   1.2797220e+03   1.2402300e-01
   1.2802040e+03   5.5292970e+00
   1.2806860e+03   9.3066400e-01
   1.2811680e+03   9.9560550e+00
   1.2816500e+03   7.5566410e+00
   1.2821320e+03   1.2207000e-01
   1.2826140e+03   2.5937500e+00
   1.2830960e+03   1.3743160e+01
   1.2835780e+03   2.2900390e+01
   1.2840610e+03   2.5848630e+01
   1.2845430e+03   2.9787110e+01
   1.2850250e+03   3.6249020e+01
   1.2855070e+03   4.0159180e+01
   1.2859890e+03   2.9681640e+01
   1.2864710e+03   1.9907230e+01
   1.2869530e+03   1.6143550e+01
   1.2874350e+03   1.8007810e+01
   1.2879170e+03   1.4661130e+01
   1.2884000e+03   1.8945310e+00
   1.2888820e+03   2.9300000e-03
   1.2893640e+03   1.1231450e+01
   1.2898460e+03   2.0625980e+01
   1.2903280e+03   1.1391600e+01
   1.2908100e+03   0.0000000e+00
   1.5000000e+03   0.0000000e+00
