   1.0000000e+02   0.0000000e+00
   1.5592930e+02   0.0000000e+00
   1.5641150e+02   2.4014160e+01
   1.5689360e+02   3.5441410e+01
   1.5737570e+02   5.5126950e+00
   1.5785780e+02   4.8930660e+00
   1.5833990e+02   3.6960450e+01
   1.5882210e+02   8.4737790e+01
   1.5930420e+02   1.0872460e+02
   1.5978630e+02   7.5867680e+01
   1.6026840e+02   4.3099120e+01
   1.6075050e+02   3.1066410e+01
   1.6123260e+02   3.7202150e+01
   1.6171480e+02   4.2080570e+01
   1.6219690e+02   3.5730960e+01
   1.6267900e+02   2.4805660e+01
   1.6316110e+02   1.5647460e+01
   1.6364320e+02   1.0185550e+01
   1.6412530e+02   7.1044920e+00
   1.6460750e+02   5.3359380e+00
   1.6508960e+02   4.7973630e+00
   1.6557170e+02   7.2275390e+00
   1.6605380e+02   1.4497560e+01
   1.6653590e+02   2.5187010e+01
   1.6701800e+02   3.7278810e+01
   1.6750020e+02   4.7624020e+01
   1.6798230e+02   6.0645020e+01
   1.6846440e+02   8.2701660e+01
   1.6894650e+02   1.1607860e+02
   1.6942860e+02   1.4572360e+02
   1.6991070e+02   1.5879690e+02
   1.7039290e+02   1.5979790e+02
   1.7087500e+02   1.5880910e+02
   1.7135710e+02   1.5707710e+02
   1.7183920e+02   1.5748340e+02
   1.7232130e+02   1.6557710e+02
   1.7280340e+02   1.8493990e+02
   1.7328560e+02   2.0181150e+02
   1.7376770e+02   1.9519730e+02
   1.7424980e+02   1.7276660e+02
   1.7473190e+02   1.6069040e+02
   1.7521400e+02   1.9190480e+02
   1.7569610e+02   2.3955220e+02
   1.7617830e+02   2.5979740e+02
   1.7666040e+02   2.3649510e+02
   1.7714250e+02   1.9775150e+02
   1.7762460e+02   1.6997070e+02
   1.7810670e+02   1.5398880e+02
   1.7858880e+02   1.5417580e+02
   1.7907100e+02   1.8845210e+02
   1.7955310e+02   2.4114750e+02
   1.8003520e+02   2.7549370e+02
   1.8051730e+02   2.7549510e+02
   1.8099940e+02   2.6003760e+02
   1.8148150e+02   2.6006010e+02
   1.8196370e+02   2.7519820e+02
   1.8244580e+02   2.9180270e+02
   1.8292790e+02   2.9492430e+02
   1.8341000e+02   2.8896190e+02
   1.8389210e+02   2.9084620e+02
   1.8437420e+02   3.0733790e+02
   1.8485640e+02   3.3394090e+02
   1.8533850e+02   3.6202540e+02
   1.8582060e+02   3.9232960e+02
   1.8630270e+02   4.1886520e+02
   1.8678480e+02   4.2975680e+02
   1.8726690e+02   4.2804980e+02
   1.8774910e+02   4.3766160e+02
   1.8823120e+02   4.7291060e+02
   1.8871330e+02   5.2602050e+02
   1.8919540e+02   5.6863960e+02
   1.8967750e+02   5.9911520e+02
   1.9015960e+02   6.2501860e+02
   1.9064180e+02   6.5872270e+02
   1.9112390e+02   6.9965920e+02
   1.9160600e+02   7.3276320e+02
   1.9208810e+02   7.4014990e+02
   1.9257020e+02   7.2776030e+02
   1.9305240e+02   7.5140920e+02
   1.9353450e+02   8.1640330e+02
   1.9401660e+02   9.0316360e+02
   1.9449870e+02   9.8478080e+02
   1.9498080e+02   1.0613330e+03
   1.9546290e+02   1.1317940e+03
   1.9594510e+02   1.1870360e+03
   1.9642720e+02   1.2285100e+03
   1.9690930e+02   1.2933550e+03
   1.9739140e+02   1.3863250e+03
   1.9787350e+02   1.4970930e+03
   1.9835560e+02   1.6112050e+03
   1.9883780e+02   1.7301800e+03
   1.9931990e+02   1.8403190e+03
   1.9980200e+02   1.9315100e+03
   2.0028410e+02   2.0018130e+03
   2.0076620e+02   2.0703320e+03
   2.0124830e+02   2.1405140e+03
   2.0173050e+02   2.2073220e+03
   2.0221260e+02   2.2565860e+03
   2.0269470e+02   2.2854320e+03
   2.0317680e+02   2.3075640e+03
   2.0365890e+02   2.3283510e+03
   2.0414100e+02   2.3460780e+03
   2.0462320e+02   2.3719140e+03
   2.0510530e+02   2.4053160e+03
   2.0558740e+02   2.4481400e+03
   2.0606950e+02   2.5075600e+03
   2.0655160e+02   2.5856600e+03
   2.0703370e+02   2.6748610e+03
   2.0751590e+02   2.7751320e+03
   2.0799800e+02   2.8891360e+03
   2.0848010e+02   2.9921800e+03
   2.0896220e+02   3.0808420e+03
   2.0944430e+02   3.1561690e+03
   2.0992640e+02   3.2293280e+03
   2.1040860e+02   3.3140370e+03
   2.1089070e+02   3.3690670e+03
   2.1137280e+02   3.3580940e+03
   2.1185490e+02   3.2678190e+03
   2.1233700e+02   3.1556230e+03
   2.1281910e+02   3.0241440e+03
   2.1330130e+02   2.8763150e+03
   2.1378340e+02   2.7232440e+03
   2.1426550e+02   2.5596940e+03
   2.1474760e+02   2.4019760e+03
   2.1522970e+02   2.2642740e+03
   2.1571180e+02   2.1443370e+03
   2.1619400e+02   2.0482830e+03
   2.1667610e+02   1.9807890e+03
   2.1715820e+02   1.9404660e+03
   2.1764030e+02   1.9030310e+03
   2.1812240e+02   1.8662150e+03
   2.1860450e+02   1.8357340e+03
   2.1908670e+02   1.8170910e+03
   2.1956880e+02   1.8111100e+03
   2.2005090e+02   1.8163870e+03
   2.2053300e+02   1.8390960e+03
   2.2101510e+02   1.8805090e+03
   2.2149720e+02   1.8967220e+03
   2.2197940e+02   1.8824900e+03
   2.2246150e+02   1.8492130e+03
   2.2294360e+02   1.8090650e+03
   2.2342570e+02   1.7646290e+03
   2.2390780e+02   1.7072690e+03
   2.2438990e+02   1.6364950e+03
   2.2487210e+02   1.5516760e+03
   2.2535420e+02   1.4487500e+03
   2.2583630e+02   1.3151290e+03
   2.2631840e+02   1.1745690e+03
   2.2680050e+02   1.0531470e+03
   2.2728270e+02   9.5651710e+02
   2.2776480e+02   8.7238720e+02
   2.2824690e+02   7.9835550e+02
   2.2872900e+02   7.3437210e+02
   2.2921110e+02   6.7403560e+02
   2.2969320e+02   6.1919380e+02
   2.3017540e+02   5.6904980e+02
   2.3065750e+02   5.2101420e+02
   2.3113960e+02   4.7301860e+02
   2.3162170e+02   4.3100730e+02
   2.3210380e+02   3.9685210e+02
   2.3258590e+02   3.7116020e+02
   2.3306810e+02   3.5036180e+02
   2.3355020e+02   3.3704740e+02
   2.3403230e+02   3.2695310e+02
   2.3451440e+02   3.1428320e+02
   2.3499650e+02   3.0033060e+02
   2.3547860e+02   2.8211620e+02
   2.3596080e+02   2.5544820e+02
   2.3644290e+02   2.1420120e+02
   2.3692500e+02   1.8942820e+02
   2.3740710e+02   1.8900340e+02
   2.3788920e+02   2.0163770e+02
   2.3837130e+02   2.0906540e+02
   2.3885350e+02   2.0795070e+02
   2.3933560e+02   2.0607570e+02
   2.3981770e+02   2.0621340e+02
   2.4029980e+02   2.0949170e+02
   2.4078190e+02   2.1029640e+02
   2.4126400e+02   2.1074410e+02
   2.4174620e+02   2.0782230e+02
   2.4222830e+02   1.9470900e+02
   2.4271040e+02   1.6226760e+02
   2.4319250e+02   1.3632810e+02
   2.4367460e+02   1.2611280e+02
   2.4415670e+02   1.3601460e+02
   2.4463890e+02   1.4232130e+02
   2.4512100e+02   1.4392680e+02
   2.4560310e+02   1.4320410e+02
   2.4608520e+02   1.4440230e+02
   2.4656730e+02   1.5113430e+02
   2.4704940e+02   1.5584860e+02
   2.4753160e+02   1.5366260e+02
   2.4801370e+02   1.3904490e+02
   2.4849580e+02   1.3171140e+02
   2.4897790e+02   1.3536820e+02
   2.4946000e+02   1.4674610e+02
   2.4994210e+02   1.5833010e+02
   2.5042430e+02   1.6996480e+02
   2.5090640e+02   1.7432710e+02
   2.5138850e+02   1.6874070e+02
   2.5187060e+02   1.4917240e+02
   2.5235270e+02   1.3771440e+02
   2.5283480e+02   1.3526030e+02
   2.5331700e+02   1.4186470e+02
   2.5379910e+02   1.5738330e+02
   2.5428120e+02   1.8809960e+02
   2.5476330e+02   2.0995700e+02
   2.5524540e+02   2.1123880e+02
   2.5572750e+02   1.8410210e+02
   2.5620970e+02   1.6847610e+02
   2.5669180e+02   1.6903860e+02
   2.5717390e+02   1.7816700e+02
   2.5765600e+02   1.8084280e+02
   2.5813810e+02   1.7200830e+02
   2.5862020e+02   1.6771190e+02
   2.5910240e+02   1.7687300e+02
   2.5958450e+02   2.0485940e+02
   2.6006660e+02   2.1741360e+02
   2.6054870e+02   2.0731880e+02
   2.6103080e+02   1.8764750e+02
   2.6151290e+02   1.8360350e+02
   2.6199510e+02   2.0120950e+02
   2.6247720e+02   2.1997360e+02
   2.6295930e+02   2.3020070e+02
   2.6344140e+02   2.2843410e+02
   2.6392350e+02   2.3808350e+02
   2.6440560e+02   2.6902730e+02
   2.6488780e+02   3.0231300e+02
   2.6536990e+02   3.0065090e+02
   2.6585200e+02   2.5077980e+02
   2.6633410e+02   2.0395560e+02
   2.6681620e+02   1.8220260e+02
   2.6729830e+02   1.9073730e+02
   2.6778050e+02   1.9088330e+02
   2.6826260e+02   1.7918750e+02
   2.6874470e+02   1.6286430e+02
   2.6922680e+02   1.5526030e+02
   2.6970890e+02   1.5896920e+02
   2.7019100e+02   1.6211720e+02
   2.7067320e+02   1.6084420e+02
   2.7115530e+02   1.5510300e+02
   2.7163740e+02   1.4265480e+02
   2.7211950e+02   1.1891550e+02
   2.7260160e+02   9.5193850e+01
   2.7308370e+02   9.4897950e+01
   2.7356590e+02   1.2400050e+02
   2.7404800e+02   1.4596630e+02
   2.7453010e+02   1.4204640e+02
   2.7501220e+02   1.1085400e+02
   2.7549430e+02   9.5707520e+01
   2.7597640e+02   1.0171090e+02
   2.7645860e+02   1.1415920e+02
   2.7694070e+02   1.0760550e+02
   2.7742280e+02   7.9104490e+01
   2.7790490e+02   5.7146480e+01
   2.7838700e+02   5.5734860e+01
   2.7886910e+02   7.3800290e+01
   2.7935130e+02   8.7413090e+01
   2.7983340e+02   9.6772950e+01
   2.8031550e+02   1.0115770e+02
   2.8079760e+02   9.6899410e+01
   2.8127980e+02   8.3478030e+01
   2.8176190e+02   7.3340820e+01
   2.8224400e+02   7.6352050e+01
   2.8272610e+02   8.8971680e+01
   2.8320820e+02   8.0904790e+01
   2.8369030e+02   4.8367190e+01
   2.8417250e+02   9.0781250e+00
   2.8465460e+02   1.7986330e+01
   2.8513670e+02   3.2745120e+01
   2.8561880e+02   3.6700200e+01
   2.8610090e+02   2.5030760e+01
   2.8658300e+02   2.4414060e+00
   2.8706520e+02   9.9824220e+00
   2.8754730e+02   1.1007320e+01
   2.8802940e+02   8.2075200e+00
   2.8851150e+02   8.6171880e+00
   2.8899360e+02   1.2187990e+01
   2.8947570e+02   1.8339360e+01
   2.8995790e+02   2.9720210e+01
   2.9044000e+02   4.2903320e+01
   2.9092210e+02   4.9090820e+01
   2.9140420e+02   4.8155270e+01
   2.9188630e+02   4.1789060e+01
   2.9236840e+02   2.6826170e+01
   2.9285060e+02   6.2729490e+00
   2.9333270e+02   6.5805660e+00
   2.9381480e+02   3.1650390e+00
   2.9429690e+02   7.9418950e+00
   2.9477900e+02   9.2846680e+00
   2.9526110e+02   8.6523400e-01
   2.9574330e+02   8.8671880e+00
   2.9622540e+02   1.3016600e+01
   2.9670750e+02   1.2636230e+01
   2.9718960e+02   1.0723140e+01
   2.9767170e+02   6.9443360e+00
   2.9815380e+02   2.9130860e+00
   2.9863600e+02   4.1992200e-01
   2.9911810e+02   5.0927700e-01
   2.9960020e+02   1.5385740e+00
   3.0008230e+02   1.2826660e+01
   3.0056440e+02   2.7229980e+01
   3.0104650e+02   3.2613280e+01
   3.0152870e+02   2.2371580e+01
   3.0201080e+02   6.1713870e+00
   3.0249290e+02   9.1362300e+00
   3.0297500e+02   2.2618160e+01
   3.0345710e+02   2.7593750e+01
   3.0393920e+02   1.1449220e+01
   3.0442140e+02   1.3337890e+01
   3.0490350e+02   2.9080080e+01
   3.0538560e+02   2.6466310e+01
   3.0586770e+02   2.1720700e+01
   3.0634980e+02   3.6297850e+01
   3.0683190e+02   6.2961430e+01
   3.0731410e+02   7.6095210e+01
   3.0779620e+02   4.6182620e+01
   3.0827830e+02   2.0776370e+00
   3.0876040e+02   2.9215820e+01
   3.0924250e+02   4.1184570e+01
   3.0972460e+02   4.0230470e+01
   3.1020680e+02   1.9810060e+01
   3.1068890e+02   1.1695800e+01
   3.1117100e+02   3.2722170e+01
   3.1165310e+02   2.6612790e+01
   3.1213520e+02   9.8808590e+00
   3.1261730e+02   6.2890630e+00
   3.1309950e+02   2.0454100e+01
   3.1358160e+02   3.2202640e+01
   3.1406370e+02   4.4740720e+01
   3.1454580e+02   5.4602540e+01
   3.1502790e+02   5.5525390e+01
   3.1551000e+02   3.1502440e+01
   3.1599220e+02   8.1533200e+00
   3.1647430e+02   1.4209000e-01
   3.1695640e+02   1.2062010e+01
   3.1743850e+02   2.7258300e+01
   3.1792060e+02   4.3922360e+01
   3.1840270e+02   5.9746090e+01
   3.1888490e+02   7.1503420e+01
   3.1936700e+02   7.9076660e+01
   3.1984910e+02   8.1778320e+01
   3.2033120e+02   7.6287110e+01
   3.2081330e+02   5.9808590e+01
   3.2129540e+02   5.1154790e+01
   3.2177760e+02   5.9237790e+01
   3.2225970e+02   7.4861330e+01
   3.2274180e+02   8.8223140e+01
   3.2322390e+02   9.3892580e+01
   3.2370600e+02   1.0119140e+02
   3.2418810e+02   1.1413670e+02
   3.2467030e+02   1.3366600e+02
   3.2515240e+02   1.4809670e+02
   3.2563450e+02   1.5612010e+02
   3.2611660e+02   1.5874710e+02
   3.2659870e+02   1.5683300e+02
   3.2708080e+02   1.4226860e+02
   3.2756300e+02   1.3265430e+02
   3.2804510e+02   1.2826370e+02
   3.2852720e+02   1.2934960e+02
   3.2900930e+02   1.4199320e+02
   3.2949140e+02   1.7255080e+02
   3.2997350e+02   2.0833690e+02
   3.3045570e+02   2.4152050e+02
   3.3093780e+02   2.7372270e+02
   3.3141990e+02   3.0048140e+02
   3.3190200e+02   3.2067190e+02
   3.3238410e+02   3.3517380e+02
   3.3286620e+02   3.4660060e+02
   3.3334840e+02   3.4750200e+02
   3.3383050e+02   3.5634670e+02
   3.3431260e+02   3.8550980e+02
   3.3479470e+02   4.4190330e+02
   3.3527680e+02   4.9636130e+02
   3.3575890e+02   5.4790620e+02
   3.3624110e+02   5.9634860e+02
   3.3672320e+02   6.4252930e+02
   3.3720530e+02   6.8552730e+02
   3.3768740e+02   7.2780860e+02
   3.3816950e+02   7.6669240e+02
   3.3865160e+02   7.9897360e+02
   3.3913380e+02   8.5525880e+02
   3.3961590e+02   9.4165920e+02
   3.4009800e+02   1.0424920e+03
   3.4058010e+02   1.1266800e+03
   3.4106220e+02   1.1925000e+03
   3.4154430e+02   1.2659500e+03
   3.4202650e+02   1.3615080e+03
   3.4250860e+02   1.4758110e+03
   3.4299070e+02   1.5944360e+03
   3.4347280e+02   1.7168270e+03
   3.4395490e+02   1.8394310e+03
   3.4443700e+02   1.9570500e+03
   3.4491920e+02   2.0698020e+03
   3.4540130e+02   2.1816890e+03
   3.4588340e+02   2.2884700e+03
   3.4636550e+02   2.3953700e+03
   3.4684760e+02   2.5107910e+03
   3.4732970e+02   2.6341910e+03
   3.4781190e+02   2.7671440e+03
   3.4829400e+02   2.9117990e+03
   3.4877610e+02   3.0665790e+03
   3.4925820e+02   3.2237320e+03
   3.4974030e+02   3.3872420e+03
   3.5022250e+02   3.5499960e+03
   3.5070460e+02   3.7050870e+03
   3.5118670e+02   3.8530390e+03
   3.5166880e+02   3.9888910e+03
   3.5215090e+02   4.1340820e+03
   3.5263310e+02   4.2583650e+03
   3.5311520e+02   4.3138690e+03
   3.5359730e+02   4.2792320e+03
   3.5407940e+02   4.1936920e+03
   3.5456150e+02   4.0879580e+03
   3.5504360e+02   3.9593170e+03
   3.5552580e+02   3.7994320e+03
   3.5600790e+02   3.5926040e+03
   3.5649000e+02   3.3585490e+03
   3.5697210e+02   3.1075940e+03
   3.5745420e+02   2.8321640e+03
   3.5793630e+02   2.5697280e+03
   3.5841850e+02   2.3434470e+03
   3.5890060e+02   2.1447190e+03
   3.5938270e+02   1.9586290e+03
   3.5986480e+02   1.7819890e+03
   3.6034690e+02   1.6145670e+03
   3.6082900e+02   1.4538570e+03
   3.6131120e+02   1.2975010e+03
   3.6179330e+02   1.1575230e+03
   3.6227540e+02   1.0365540e+03
   3.6275750e+02   9.3241310e+02
   3.6323960e+02   8.4306640e+02
   3.6372170e+02   7.7352440e+02
   3.6420390e+02   7.1323540e+02
   3.6468600e+02   6.6614160e+02
   3.6516810e+02   6.3292680e+02
   3.6565020e+02   5.8790920e+02
   3.6613230e+02   5.1154690e+02
   3.6661440e+02   4.3187210e+02
   3.6709660e+02   3.6799220e+02
   3.6757870e+02   3.2919240e+02
   3.6806080e+02   2.9610160e+02
   3.6854290e+02   2.6670410e+02
   3.6902500e+02   2.4114840e+02
   3.6950710e+02   2.2158110e+02
   3.6998930e+02   2.1629000e+02
   3.7047140e+02   2.0870020e+02
   3.7095350e+02   1.8677930e+02
   3.7143560e+02   1.3041800e+02
   3.7191770e+02   1.0782420e+02
   3.7239980e+02   1.3938280e+02
   3.7288200e+02   1.9529690e+02
   3.7336410e+02   2.0408200e+02
   3.7384620e+02   1.4617290e+02
   3.7432830e+02   9.0593750e+01
   3.7481040e+02   6.8583980e+01
   3.7529250e+02   8.3209960e+01
   3.7577470e+02   8.9325200e+01
   3.7625680e+02   8.4792970e+01
   3.7673890e+02   7.6235350e+01
   3.7722100e+02   7.3020510e+01
   3.7770310e+02   7.5622070e+01
   3.7818520e+02   7.6414060e+01
   3.7866740e+02   7.0472660e+01
   3.7914950e+02   6.0993160e+01
   3.7963160e+02   6.3318360e+01
   3.8011370e+02   7.8254880e+01
   3.8059580e+02   9.6994140e+01
   3.8107790e+02   1.1089450e+02
   3.8156010e+02   1.2136720e+02
   3.8204220e+02   1.3384570e+02
   3.8252430e+02   1.5039260e+02
   3.8300640e+02   1.6905760e+02
   3.8348850e+02   1.8779980e+02
   3.8397060e+02   2.0655080e+02
   3.8445280e+02   2.2298730e+02
   3.8493490e+02   2.3208110e+02
   3.8541700e+02   2.3890040e+02
   3.8589910e+02   2.5444340e+02
   3.8638120e+02   2.8400780e+02
   3.8686330e+02   3.1112600e+02
   3.8734550e+02   3.1494340e+02
   3.8782760e+02   3.0430270e+02
   3.8830970e+02   2.9964160e+02
   3.8879180e+02   3.1993750e+02
   3.8927390e+02   3.4475490e+02
   3.8975600e+02   3.6175680e+02
   3.9023820e+02   3.7082910e+02
   3.9072030e+02   3.6169820e+02
   3.9120240e+02   3.1331930e+02
   3.9168450e+02   2.4906150e+02
   3.9216660e+02   1.9530270e+02
   3.9264870e+02   1.6161130e+02
   3.9313090e+02   1.3963670e+02
   3.9361300e+02   1.3370610e+02
   3.9409510e+02   1.4152340e+02
   3.9457720e+02   1.3910450e+02
   3.9505930e+02   1.1061720e+02
   3.9554140e+02   7.6132810e+01
   3.9602360e+02   4.8405270e+01
   3.9650570e+02   3.7498050e+01
   3.9698780e+02   2.3464840e+01
   3.9746990e+02   1.7177730e+00
   3.9795200e+02   3.2104490e+01
   3.9843410e+02   4.8610350e+01
   3.9891630e+02   3.4791020e+01
   3.9939840e+02   2.4260740e+01
   3.9988050e+02   3.2997070e+01
   4.0036260e+02   7.6701170e+01
   4.0084470e+02   9.1554690e+01
   4.0132680e+02   6.4476560e+01
   4.0180900e+02   1.8184570e+01
   4.0229110e+02   1.7037110e+01
   4.0277320e+02   3.9435550e+01
   4.0325530e+02   5.4104490e+01
   4.0373740e+02   6.0762700e+01
   4.0421950e+02   5.9848630e+01
   4.0470170e+02   5.6295900e+01
   4.0518380e+02   4.5634770e+01
   4.0566590e+02   4.4667970e+01
   4.0614800e+02   7.6814450e+01
   4.0663010e+02   1.4294140e+02
   4.0711220e+02   1.9308010e+02
   4.0759440e+02   2.1602050e+02
   4.0807650e+02   2.2024900e+02
   4.0855860e+02   2.2004590e+02
   4.0904070e+02   2.1562790e+02
   4.0952280e+02   2.1928610e+02
   4.1000490e+02   2.4504590e+02
   4.1048710e+02   2.8512300e+02
   4.1096920e+02   3.1700390e+02
   4.1145130e+02   3.3694820e+02
   4.1193340e+02   3.5504590e+02
   4.1241550e+02   3.8246680e+02
   4.1289760e+02   4.1797850e+02
   4.1337980e+02   4.5647750e+02
   4.1386190e+02   5.0558890e+02
   4.1434400e+02   5.5153420e+02
   4.1482610e+02   5.7299120e+02
   4.1530820e+02   5.6996000e+02
   4.1579030e+02   5.7651760e+02
   4.1627250e+02   6.2552640e+02
   4.1675460e+02   6.9257620e+02
   4.1723670e+02   7.5073540e+02
   4.1771880e+02   7.7216890e+02
   4.1820090e+02   8.0277340e+02
   4.1868300e+02   8.6787500e+02
   4.1916520e+02   9.6071580e+02
   4.1964730e+02   1.0538480e+03
   4.2012940e+02   1.1309550e+03
   4.2061150e+02   1.2119230e+03
   4.2109370e+02   1.3100610e+03
   4.2157580e+02   1.4323470e+03
   4.2205790e+02   1.5561840e+03
   4.2254000e+02   1.6851310e+03
   4.2302210e+02   1.8128100e+03
   4.2350420e+02   1.9309520e+03
   4.2398640e+02   2.0055690e+03
   4.2446850e+02   2.1070840e+03
   4.2495060e+02   2.2578760e+03
   4.2543270e+02   2.4594370e+03
   4.2591480e+02   2.6660250e+03
   4.2639690e+02   2.8796510e+03
   4.2687910e+02   3.0958980e+03
   4.2736120e+02   3.3078540e+03
   4.2784330e+02   3.5121150e+03
   4.2832540e+02   3.7208390e+03
   4.2880750e+02   3.9351690e+03
   4.2928960e+02   4.1547280e+03
   4.2977180e+02   4.3697150e+03
   4.3025390e+02   4.5768000e+03
   4.3073600e+02   4.7980330e+03
   4.3121810e+02   5.0562830e+03
   4.3170020e+02   5.3473750e+03
   4.3218230e+02   5.6096380e+03
   4.3266450e+02   5.8379100e+03
   4.3314660e+02   6.0441610e+03
   4.3362870e+02   6.2510660e+03
   4.3411080e+02   6.4524450e+03
   4.3459290e+02   6.6139240e+03
   4.3507500e+02   6.7093320e+03
   4.3555720e+02   6.7588070e+03
   4.3603930e+02   6.8074350e+03
   4.3652140e+02   6.8531270e+03
   4.3700350e+02   6.8506430e+03
   4.3748560e+02   6.7634530e+03
   4.3796770e+02   6.6089070e+03
   4.3844990e+02   6.4056220e+03
   4.3893200e+02   6.1385210e+03
   4.3941410e+02   5.8575510e+03
   4.3989620e+02   5.6020850e+03
   4.4037830e+02   5.3619850e+03
   4.4086040e+02   5.1036360e+03
   4.4134260e+02   4.7896100e+03
   4.4182470e+02   4.4739030e+03
   4.4230680e+02   4.1887710e+03
   4.4278890e+02   3.9422580e+03
   4.4327100e+02   3.7045090e+03
   4.4375310e+02   3.4496780e+03
   4.4423530e+02   3.2071870e+03
   4.4471740e+02   3.0051950e+03
   4.4519950e+02   2.8927930e+03
   4.4568160e+02   2.7749980e+03
   4.4616370e+02   2.6308540e+03
   4.4664580e+02   2.4646810e+03
   4.4712800e+02   2.3080620e+03
   4.4761010e+02   2.1534810e+03
   4.4809220e+02   2.0163420e+03
   4.4857430e+02   1.9095340e+03
   4.4905640e+02   1.8462110e+03
   4.4953850e+02   1.7745690e+03
   4.5002070e+02   1.6884670e+03
   4.5050280e+02   1.5980640e+03
   4.5098490e+02   1.5251200e+03
   4.5146700e+02   1.4738410e+03
   4.5194910e+02   1.4217380e+03
   4.5243120e+02   1.3579110e+03
   4.5291340e+02   1.2849590e+03
   4.5339550e+02   1.2223830e+03
   4.5387760e+02   1.1714160e+03
   4.5435970e+02   1.1234050e+03
   4.5484180e+02   1.0682440e+03
   4.5532390e+02   1.0084280e+03
   4.5580610e+02   9.5599410e+02
   4.5628820e+02   9.1353220e+02
   4.5677030e+02   8.8033010e+02
   4.5725240e+02   8.5468850e+02
   4.5773450e+02   8.3574610e+02
   4.5821660e+02   8.2038380e+02
   4.5869880e+02   8.1407810e+02
   4.5918090e+02   8.1058890e+02
   4.5966300e+02   7.9973340e+02
   4.6014510e+02   7.7842480e+02
   4.6062720e+02   7.6109670e+02
   4.6110930e+02   7.5984570e+02
   4.6159150e+02   7.6590040e+02
   4.6207360e+02   7.6836430e+02
   4.6255570e+02   7.5749220e+02
   4.6303780e+02   7.4891500e+02
   4.6351990e+02   7.5378420e+02
   4.6400200e+02   7.6913870e+02
   4.6448420e+02   7.7354690e+02
   4.6496630e+02   7.4533400e+02
   4.6544840e+02   7.1789840e+02
   4.6593050e+02   7.0888770e+02
   4.6641260e+02   7.3721580e+02
   4.6689470e+02   7.5407030e+02
   4.6737690e+02   7.5845800e+02
   4.6785900e+02   7.5196970e+02
   4.6834110e+02   7.3579100e+02
   4.6882320e+02   7.0464550e+02
   4.6930530e+02   6.7395510e+02
   4.6978740e+02   6.4516800e+02
   4.7026960e+02   6.1885350e+02
   4.7075170e+02   6.1055960e+02
   4.7123380e+02   6.2753610e+02
   4.7171590e+02   6.4035250e+02
   4.7219800e+02   6.1492770e+02
   4.7268010e+02   5.5247460e+02
   4.7316230e+02   5.1321290e+02
   4.7364440e+02   5.1110840e+02
   4.7412650e+02   5.2360160e+02
   4.7460860e+02   5.1511230e+02
   4.7509070e+02   4.8774120e+02
   4.7557280e+02   4.5449900e+02
   4.7605500e+02   4.2010350e+02
   4.7653710e+02   3.8482710e+02
   4.7701920e+02   3.4919820e+02
   4.7750130e+02   3.1307710e+02
   4.7798340e+02   2.7765430e+02
   4.7846550e+02   2.3787890e+02
   4.7894770e+02   2.0114160e+02
   4.7942980e+02   1.7814060e+02
   4.7991190e+02   1.8104690e+02
   4.8039400e+02   1.8660060e+02
   4.8087610e+02   1.8529000e+02
   4.8135820e+02   1.7744340e+02
   4.8184040e+02   1.6386230e+02
   4.8232250e+02   1.3816700e+02
   4.8280460e+02   1.1227640e+02
   4.8328670e+02   9.0052730e+01
   4.8376880e+02   6.9992190e+01
   4.8425090e+02   6.0026370e+01
   4.8473310e+02   7.1345700e+01
   4.8521520e+02   8.7677730e+01
   4.8569730e+02   9.3634770e+01
   4.8617940e+02   8.1125980e+01
   4.8666150e+02   7.2660160e+01
   4.8714360e+02   7.5578120e+01
   4.8762580e+02   8.5139650e+01
   4.8810790e+02   7.5474610e+01
   4.8859000e+02   3.8681640e+01
   4.8907210e+02   4.6103520e+00
   4.8955420e+02   6.2070310e+00
   4.9003630e+02   6.4355470e+00
   4.9051850e+02   5.6435550e+00
   4.9100060e+02   1.2669920e+01
   4.9148270e+02   3.4393550e+01
   4.9196480e+02   3.9746090e+01
   4.9244700e+02   3.1429690e+01
   4.9292910e+02   2.4929690e+01
   4.9341120e+02   3.2947270e+01
   4.9389330e+02   3.9294920e+01
   4.9437540e+02   1.0501950e+01
   4.9485750e+02   4.7949220e+01
   4.9533970e+02   9.9769530e+01
   4.9582180e+02   1.1854000e+02
   4.9630390e+02   1.2006050e+02
   4.9678600e+02   1.2041210e+02
   4.9726810e+02   1.2169140e+02
   4.9775020e+02   1.2343160e+02
   4.9823240e+02   1.2575200e+02
   4.9871450e+02   1.2829100e+02
   4.9919660e+02   1.3062890e+02
   4.9967870e+02   1.3187700e+02
   5.0016080e+02   1.3365230e+02
   5.0064290e+02   1.3622850e+02
   5.0112510e+02   1.3965140e+02
   5.0160720e+02   1.4453710e+02
   5.0208930e+02   1.4196090e+02
   5.0257140e+02   1.4816890e+02
   5.0305350e+02   1.7611130e+02
   5.0353560e+02   2.5156640e+02
   5.0401780e+02   2.8516110e+02
   5.0449990e+02   2.5604880e+02
   5.0498200e+02   2.0411040e+02
   5.0546410e+02   1.9596480e+02
   5.0594620e+02   2.4335160e+02
   5.0642830e+02   2.7077640e+02
   5.0691050e+02   2.4644920e+02
   5.0739260e+02   1.8649020e+02
   5.0787470e+02   1.6051460e+02
   5.0835680e+02   1.7040820e+02
   5.0883890e+02   1.8589450e+02
   5.0932100e+02   1.8457230e+02
   5.0980320e+02   1.7157520e+02
   5.1028530e+02   1.6192380e+02
   5.1076740e+02   1.5895800e+02
   5.1124950e+02   1.5455180e+02
   5.1173160e+02   1.3379690e+02
   5.1221370e+02   1.0554690e+02
   5.1269590e+02   8.8083980e+01
   5.1317800e+02   1.0211230e+02
   5.1366010e+02   1.1498540e+02
   5.1414220e+02   9.9959960e+01
   5.1462430e+02   6.2889650e+01
   5.1510640e+02   3.9750980e+01
   5.1558860e+02   6.7041990e+01
   5.1607070e+02   9.5922850e+01
   5.1655280e+02   9.3947270e+01
   5.1703490e+02   3.5205080e+01
   5.1751700e+02   8.0361330e+00
   5.1799910e+02   2.2934570e+01
   5.1848130e+02   2.1128910e+01
   5.1896340e+02   1.5724610e+01
   5.1944550e+02   4.9296880e+00
   5.1992760e+02   7.3378910e+00
   5.2040970e+02   2.5517580e+01
   5.2089180e+02   4.5997070e+01
   5.2137400e+02   3.8295900e+01
   5.2185610e+02   8.2919920e+00
   5.2233820e+02   4.9553710e+01
   5.2282030e+02   5.3108400e+01
   5.2330240e+02   2.1102540e+01
   5.2378450e+02   1.1434570e+01
   5.2426670e+02   4.4945310e+01
   5.2474880e+02   7.0977540e+01
   5.2523090e+02   7.6768550e+01
   5.2571300e+02   6.6266600e+01
   5.2619510e+02   5.3145510e+01
   5.2667720e+02   3.9791020e+01
   5.2715940e+02   3.1041990e+01
   5.2764150e+02   3.1654300e+01
   5.2812360e+02   3.7383790e+01
   5.2860570e+02   4.1651370e+01
   5.2908780e+02   3.9713870e+01
   5.2956990e+02   3.4374020e+01
   5.3005210e+02   2.5594730e+01
   5.3053420e+02   1.0916990e+01
   5.3101630e+02   5.7070310e+00
   5.3149840e+02   1.9708980e+01
   5.3198050e+02   4.1655270e+01
   5.3246260e+02   5.9969730e+01
   5.3294480e+02   7.4415040e+01
   5.3342690e+02   8.3916020e+01
   5.3390900e+02   8.8162110e+01
   5.3439110e+02   8.7402340e+01
   5.3487320e+02   8.1610350e+01
   5.3535530e+02   6.7153320e+01
   5.3583750e+02   5.4130860e+01
   5.3631960e+02   4.5925780e+01
   5.3680170e+02   4.2284180e+01
   5.3728380e+02   4.9251950e+01
   5.3776590e+02   6.9970700e+01
   5.3824800e+02   9.1352540e+01
   5.3873020e+02   9.9736330e+01
   5.3921230e+02   9.6172850e+01
   5.3969440e+02   8.5511720e+01
   5.4017650e+02   6.4752930e+01
   5.4065860e+02   4.4845700e+01
   5.4114070e+02   4.1831050e+01
   5.4162290e+02   5.2898440e+01
   5.4210500e+02   6.7668950e+01
   5.4258710e+02   9.0791020e+01
   5.4306920e+02   1.0847460e+02
   5.4355130e+02   1.0141890e+02
   5.4403340e+02   6.9055660e+01
   5.4451560e+02   4.5142580e+01
   5.4499770e+02   5.5011720e+01
   5.4547980e+02   7.4373050e+01
   5.4596190e+02   8.3943360e+01
   5.4644400e+02   7.3724610e+01
   5.4692610e+02   6.3108400e+01
   5.4740830e+02   4.6824220e+01
   5.4789040e+02   3.3538090e+01
   5.4837250e+02   4.0191410e+01
   5.4885460e+02   8.7400390e+01
   5.4933670e+02   1.1907130e+02
   5.4981880e+02   1.1817480e+02
   5.5030100e+02   8.8416990e+01
   5.5078310e+02   6.5166990e+01
   5.5126520e+02   4.7489260e+01
   5.5174730e+02   3.7080080e+01
   5.5222940e+02   4.0104490e+01
   5.5271150e+02   5.4181640e+01
   5.5319370e+02   6.3057620e+01
   5.5367580e+02   6.5264650e+01
   5.5415790e+02   6.3233400e+01
   5.5464000e+02   5.6308590e+01
   5.5512210e+02   4.7204100e+01
   5.5560420e+02   4.3961910e+01
   5.5608640e+02   5.2426760e+01
   5.5656850e+02   6.4891600e+01
   5.5705060e+02   8.0017580e+01
   5.5753270e+02   9.4500980e+01
   5.5801480e+02   9.5514650e+01
   5.5849690e+02   5.9497070e+01
   5.5897910e+02   2.1048830e+01
   5.5946120e+02   4.0166020e+00
   5.5994330e+02   1.5922850e+01
   5.6042540e+02   2.2782230e+01
   5.6090750e+02   1.5377930e+01
   5.6138960e+02   1.9570310e+00
   5.6187180e+02   1.0386720e+01
   5.6235390e+02   2.3059570e+01
   5.6283600e+02   3.2527340e+01
   5.6331810e+02   3.9775390e+01
   5.6380020e+02   4.3028320e+01
   5.6428230e+02   3.6895510e+01
   5.6476450e+02   1.9927730e+01
   5.6524660e+02   6.3477002e-02
   5.6572870e+02   2.2046880e+01
   5.6621080e+02   4.4579100e+01
   5.6669290e+02   5.9041990e+01
   5.6717500e+02   6.5381840e+01
   5.6765720e+02   6.1870120e+01
   5.6813930e+02   3.9957030e+01
   5.6862140e+02   8.2714840e+00
   5.6910350e+02   1.7094730e+01
   5.6958560e+02   3.5244140e+01
   5.7006770e+02   4.1128910e+01
   5.7054990e+02   1.8647460e+01
   5.7103200e+02   1.6318360e+01
   5.7151410e+02   3.8825200e+01
   5.7199620e+02   2.6788090e+01
   5.7247830e+02   1.3456050e+01
   5.7296040e+02   1.3354490e+01
   5.7344260e+02   2.3953120e+01
   5.7392470e+02   3.1515620e+01
   5.7440680e+02   2.8163090e+01
   5.7488890e+02   2.6571290e+01
   5.7537100e+02   3.2134770e+01
   5.7585310e+02   4.7517580e+01
   5.7633530e+02   5.6713870e+01
   5.7681740e+02   5.9875000e+01
   5.7729950e+02   5.7190430e+01
   5.7778160e+02   4.5011720e+01
   5.7826370e+02   2.1227540e+01
   5.7874580e+02   7.2675780e+00
   5.7922800e+02   7.4169920e+00
   5.7971010e+02   1.5701170e+01
   5.8019220e+02   2.5863280e+01
   5.8067430e+02   3.8400390e+01
   5.8115640e+02   4.6829100e+01
   5.8163850e+02   4.2801760e+01
   5.8212070e+02   3.3034180e+01
   5.8260280e+02   3.0166020e+01
   5.8308490e+02   3.2752930e+01
   5.8356700e+02   2.9506840e+01
   5.8404910e+02   4.8623050e+00
   5.8453130e+02   3.5833010e+01
   5.8501340e+02   2.9991210e+01
   5.8549550e+02   3.4524410e+01
   5.8597760e+02   8.0227540e+01
   5.8645970e+02   7.5620120e+01
   5.8694180e+02   4.6741210e+01
   5.8742400e+02   2.2362300e+01
   5.8790610e+02   2.5214840e+00
   5.8838820e+02   1.3382810e+01
   5.8887030e+02   3.2324220e+00
   5.8935240e+02   2.1204100e+01
   5.8983450e+02   3.8571290e+01
   5.9031670e+02   4.8355470e+01
   5.9079880e+02   5.2597660e+01
   5.9128090e+02   4.9970700e+01
   5.9176300e+02   4.2181640e+01
   5.9224510e+02   3.8232420e+01
   5.9272720e+02   3.8219730e+01
   5.9320940e+02   3.9256840e+01
   5.9369150e+02   3.5242190e+01
   5.9417360e+02   3.1293950e+01
   5.9465570e+02   4.0495120e+01
   5.9513780e+02   6.8574220e+01
   5.9561990e+02   9.3123050e+01
   5.9610210e+02   9.2242190e+01
   5.9658420e+02   7.8469730e+01
   5.9706630e+02   6.9686520e+01
   5.9754850e+02   7.6213870e+01
   5.9803060e+02   8.4170900e+01
   5.9851270e+02   8.7807620e+01
   5.9899480e+02   8.8872070e+01
   5.9947690e+02   9.5648440e+01
   5.9995900e+02   1.2088480e+02
   6.0044120e+02   1.3701950e+02
   6.0092330e+02   1.3057620e+02
   6.0140540e+02   9.9062500e+01
   6.0188750e+02   8.6097660e+01
   6.0236960e+02   9.7373050e+01
   6.0285170e+02   1.1342770e+02
   6.0333390e+02   1.1538480e+02
   6.0381600e+02   1.0483010e+02
   6.0429810e+02   1.0274610e+02
   6.0478020e+02   1.1269240e+02
   6.0526230e+02   1.2712010e+02
   6.0574440e+02   1.3475590e+02
   6.0622660e+02   1.3902340e+02
   6.0670870e+02   1.4861430e+02
   6.0719080e+02   1.7527930e+02
   6.0767290e+02   1.9995120e+02
   6.0815500e+02   2.0360840e+02
   6.0863710e+02   1.9209080e+02
   6.0911930e+02   1.8464750e+02
   6.0960140e+02   1.9802250e+02
   6.1008350e+02   2.0946880e+02
   6.1056560e+02   1.9972560e+02
   6.1104770e+02   1.6081350e+02
   6.1152980e+02   1.5817190e+02
   6.1201200e+02   2.2340140e+02
   6.1249410e+02   2.9552050e+02
   6.1297620e+02   3.3290230e+02
   6.1345830e+02   3.2591500e+02
   6.1394040e+02   3.1849800e+02
   6.1442250e+02   3.1248240e+02
   6.1490470e+02   3.0606930e+02
   6.1538680e+02   2.9215720e+02
   6.1586890e+02   2.7210550e+02
   6.1635100e+02   2.6658590e+02
   6.1683310e+02   2.8677340e+02
   6.1731520e+02   3.1659860e+02
   6.1779740e+02   3.3587300e+02
   6.1827950e+02   3.4505660e+02
   6.1876160e+02   3.4800200e+02
   6.1924370e+02   3.3606840e+02
   6.1972580e+02   3.2602250e+02
   6.2020790e+02   3.3430370e+02
   6.2069010e+02   3.6166410e+02
   6.2117220e+02   3.8467970e+02
   6.2165430e+02   3.9898630e+02
   6.2213640e+02   4.0466500e+02
   6.2261850e+02   4.0009280e+02
   6.2310060e+02   3.7592580e+02
   6.2358280e+02   3.6258790e+02
   6.2406490e+02   3.5971580e+02
   6.2454700e+02   3.6671880e+02
   6.2502910e+02   3.8811520e+02
   6.2551120e+02   4.2963180e+02
   6.2599330e+02   4.5278320e+02
   6.2647550e+02   4.4507230e+02
   6.2695760e+02   4.2034470e+02
   6.2743970e+02   4.0991020e+02
   6.2792180e+02   4.1241800e+02
   6.2840390e+02   4.1344430e+02
   6.2888600e+02   4.0074510e+02
   6.2936820e+02   3.8351760e+02
   6.2985030e+02   3.7161520e+02
   6.3033240e+02   3.6570800e+02
   6.3081450e+02   3.7209280e+02
   6.3129660e+02   4.1748340e+02
   6.3177870e+02   4.6044820e+02
   6.3226090e+02   4.6487010e+02
   6.3274300e+02   4.1208200e+02
   6.3322510e+02   3.7717090e+02
   6.3370720e+02   3.8831640e+02
   6.3418930e+02   4.1511820e+02
   6.3467140e+02   4.3378910e+02
   6.3515360e+02   4.4564840e+02
   6.3563570e+02   4.4467290e+02
   6.3611780e+02   4.2410160e+02
   6.3659990e+02   3.9649610e+02
   6.3708200e+02   3.8917380e+02
   6.3756410e+02   4.0355860e+02
   6.3804630e+02   4.0865720e+02
   6.3852840e+02   3.8663380e+02
   6.3901050e+02   3.5571780e+02
   6.3949260e+02   3.5901270e+02
   6.3997470e+02   3.9037600e+02
   6.4045680e+02   4.1442870e+02
   6.4093900e+02   4.1019820e+02
   6.4142110e+02   3.8868950e+02
   6.4190320e+02   3.5104000e+02
   6.4238530e+02   2.9672070e+02
   6.4286740e+02   2.5855370e+02
   6.4334950e+02   2.6847560e+02
   6.4383170e+02   2.8695210e+02
   6.4431380e+02   2.8657710e+02
   6.4479590e+02   2.4307710e+02
   6.4527800e+02   2.2284180e+02
   6.4576010e+02   2.3994240e+02
   6.4624220e+02   2.6727730e+02
   6.4672440e+02   2.7320020e+02
   6.4720650e+02   2.5304100e+02
   6.4768860e+02   2.3509770e+02
   6.4817070e+02   2.2547560e+02
   6.4865280e+02   2.1865230e+02
   6.4913490e+02   1.9553610e+02
   6.4961710e+02   1.6064060e+02
   6.5009920e+02   1.4514750e+02
   6.5058130e+02   1.8684180e+02
   6.5106340e+02   2.4151560e+02
   6.5154550e+02   2.5009180e+02
   6.5202760e+02   2.2001760e+02
   6.5250980e+02   1.9079690e+02
   6.5299190e+02   1.8559670e+02
   6.5347400e+02   1.8597560e+02
   6.5395610e+02   1.8075390e+02
   6.5443820e+02   1.6799120e+02
   6.5492030e+02   1.5472750e+02
   6.5540250e+02   1.3533300e+02
   6.5588460e+02   1.2096780e+02
   6.5636670e+02   1.2164160e+02
   6.5684880e+02   1.4689360e+02
   6.5733090e+02   1.5617680e+02
   6.5781300e+02   1.4198930e+02
   6.5829520e+02   1.2278910e+02
   6.5877730e+02   1.2934080e+02
   6.5925940e+02   1.5892090e+02
   6.5974150e+02   1.7694920e+02
   6.6022360e+02   1.7070900e+02
   6.6070570e+02   1.5501860e+02
   6.6118790e+02   1.4849610e+02
   6.6167000e+02   1.4967380e+02
   6.6215210e+02   1.5463180e+02
   6.6263420e+02   1.7358890e+02
   6.6311630e+02   1.8521580e+02
   6.6359840e+02   1.7141310e+02
   6.6408060e+02   1.3514260e+02
   6.6456270e+02   1.0241990e+02
   6.6504480e+02   7.3756840e+01
   6.6552690e+02   5.6084960e+01
   6.6600900e+02   5.3623050e+01
   6.6649110e+02   6.8319340e+01
   6.6697330e+02   8.5577150e+01
   6.6745540e+02   1.1037300e+02
   6.6793750e+02   1.2788090e+02
   6.6841960e+02   1.2183980e+02
   6.6890170e+02   9.3107420e+01
   6.6938390e+02   6.7645510e+01
   6.6986600e+02   4.6283200e+01
   6.7034810e+02   3.5410160e+01
   6.7083020e+02   5.0899410e+01
   6.7131230e+02   8.1908200e+01
   6.7179440e+02   1.0476760e+02
   6.7227660e+02   1.0851760e+02
   6.7275870e+02   1.0774020e+02
   6.7324080e+02   1.1514060e+02
   6.7372290e+02   1.2444140e+02
   6.7420500e+02   1.2361330e+02
   6.7468710e+02   9.1929690e+01
   6.7516930e+02   7.1799800e+01
   6.7565140e+02   7.7167970e+01
   6.7613350e+02   1.0268160e+02
   6.7661560e+02   1.2653710e+02
   6.7709770e+02   1.5587790e+02
   6.7757980e+02   1.6697460e+02
   6.7806200e+02   1.4042290e+02
   6.7854410e+02   8.1690430e+01
   6.7902620e+02   4.9120120e+01
   6.7950830e+02   4.4680660e+01
   6.7999040e+02   5.4195310e+01
   6.8047250e+02   7.8151370e+01
   6.8095470e+02   1.0392380e+02
   6.8143680e+02   1.0462600e+02
   6.8191890e+02   7.4379880e+01
   6.8240100e+02   4.5614260e+01
   6.8288310e+02   3.6155270e+01
   6.8336520e+02   4.1328120e+01
   6.8384740e+02   5.7569340e+01
   6.8432950e+02   9.6116210e+01
   6.8481160e+02   1.2669240e+02
   6.8529370e+02   1.4659470e+02
   6.8577580e+02   1.5631150e+02
   6.8625790e+02   1.4913280e+02
   6.8674010e+02   1.1358590e+02
   6.8722220e+02   9.7730470e+01
   6.8770430e+02   1.1759570e+02
   6.8818640e+02   1.5506450e+02
   6.8866850e+02   1.6453710e+02
   6.8915060e+02   1.4796580e+02
   6.8963280e+02   1.3078710e+02
   6.9011490e+02   1.1865230e+02
   6.9059700e+02   1.1415140e+02
   6.9107910e+02   1.2683980e+02
   6.9156120e+02   1.5249120e+02
   6.9204330e+02   1.6962300e+02
   6.9252550e+02   1.5470210e+02
   6.9300760e+02   1.4007130e+02
   6.9348970e+02   1.5145120e+02
   6.9397180e+02   1.9390330e+02
   6.9445390e+02   2.2215040e+02
   6.9493600e+02   2.2869140e+02
   6.9541820e+02   2.2131740e+02
   6.9590030e+02   1.9750000e+02
   6.9638240e+02   1.4666020e+02
   6.9686450e+02   1.4394040e+02
   6.9734660e+02   2.0390920e+02
   6.9782870e+02   2.7373730e+02
   6.9831090e+02   2.9550880e+02
   6.9879300e+02   2.7623730e+02
   6.9927510e+02   2.4888670e+02
   6.9975720e+02   2.1757910e+02
   7.0023930e+02   1.9605570e+02
   7.0072140e+02   2.0403320e+02
   7.0120360e+02   2.3182030e+02
   7.0168570e+02   2.5843650e+02
   7.0216780e+02   2.7702150e+02
   7.0264990e+02   2.9272270e+02
   7.0313200e+02   3.0714650e+02
   7.0361410e+02   3.1944430e+02
   7.0409630e+02   3.2928810e+02
   7.0457840e+02   3.3770510e+02
   7.0506050e+02   3.4296190e+02
   7.0554260e+02   3.4389260e+02
   7.0602470e+02   3.4167970e+02
   7.0650680e+02   3.4257420e+02
   7.0698900e+02   3.4829880e+02
   7.0747110e+02   3.4575200e+02
   7.0795320e+02   3.2008500e+02
   7.0843530e+02   2.8294630e+02
   7.0891740e+02   2.6942770e+02
   7.0939950e+02   2.7695900e+02
   7.0988170e+02   2.8089940e+02
   7.1036380e+02   2.5266990e+02
   7.1084590e+02   2.2069820e+02
   7.1132800e+02   2.1296680e+02
   7.1181010e+02   2.3515330e+02
   7.1229220e+02   2.5548730e+02
   7.1277440e+02   2.6798140e+02
   7.1325650e+02   2.7341500e+02
   7.1373860e+02   2.7231740e+02
   7.1422070e+02   2.6150880e+02
   7.1470280e+02   2.5348930e+02
   7.1518490e+02   2.5192770e+02
   7.1566710e+02   2.4667480e+02
   7.1614920e+02   2.1754100e+02
   7.1663130e+02   1.6832710e+02
   7.1711340e+02   1.4653120e+02
   7.1759550e+02   1.6657420e+02
   7.1807760e+02   1.9608790e+02
   7.1855980e+02   1.9441800e+02
   7.1904190e+02   1.7338960e+02
   7.1952400e+02   1.5572850e+02
   7.2000610e+02   1.4800680e+02
   7.2048820e+02   1.4723440e+02
   7.2097030e+02   1.6078030e+02
   7.2145250e+02   1.7971580e+02
   7.2193460e+02   1.8373050e+02
   7.2241670e+02   1.5628320e+02
   7.2289880e+02   1.3157620e+02
   7.2338090e+02   1.1438770e+02
   7.2386300e+02   1.0477730e+02
   7.2434520e+02   1.0461620e+02
   7.2482730e+02   1.1503520e+02
   7.2530940e+02   1.2681250e+02
   7.2579150e+02   1.4039940e+02
   7.2627360e+02   1.5043550e+02
   7.2675570e+02   1.3827050e+02
   7.2723790e+02   1.0656450e+02
   7.2772000e+02   7.6157230e+01
   7.2820210e+02   6.2869140e+01
   7.2868420e+02   5.4991210e+01
   7.2916630e+02   4.0550780e+01
   7.2964840e+02   1.8270510e+01
   7.3013060e+02   4.8876950e+00
   7.3061270e+02   2.0986330e+01
   7.3109480e+02   3.3923830e+01
   7.3157690e+02   2.3239260e+01
   7.3205900e+02   2.0735350e+01
   7.3254110e+02   4.7274410e+01
   7.3302330e+02   5.2741210e+01
   7.3350540e+02   4.8948240e+01
   7.3398750e+02   4.4484380e+01
   7.3446960e+02   3.9696290e+01
   7.3495170e+02   4.0643550e+01
   7.3543380e+02   5.0234380e+01
   7.3591600e+02   5.1943360e+01
   7.3639810e+02   1.4673830e+01
   7.3688020e+02   3.6875980e+01
   7.3736230e+02   6.4335940e+01
   7.3784440e+02   4.4182620e+01
   7.3832660e+02   2.4680660e+01
   7.3880870e+02   2.8826170e+01
   7.3929080e+02   4.3060550e+01
   7.3977290e+02   4.6786130e+01
   7.4025510e+02   2.7489260e+01
   7.4073720e+02   2.0442380e+01
   7.4121930e+02   3.7275390e+01
   7.4170140e+02   6.2068360e+01
   7.4218350e+02   5.3809570e+01
   7.4266560e+02   1.2030270e+01
   7.4314780e+02   1.2349610e+01
   7.4362990e+02   3.0107420e+00
   7.4411200e+02   3.6840820e+01
   7.4459410e+02   6.6009770e+01
   7.4507620e+02   8.6708010e+01
   7.4555830e+02   8.8157230e+01
   7.4604050e+02   4.0973630e+01
   7.4652260e+02   4.7207030e+00
   7.4700470e+02   1.6619140e+01
   7.4748680e+02   3.3886700e-01
   7.4796890e+02   8.6005860e+00
   7.4845100e+02   9.5214840e+00
   7.4893320e+02   1.4980470e+01
   7.4941530e+02   1.3342770e+01
   7.4989740e+02   7.0024410e+01
   7.5037950e+02   9.0024410e+01
   7.5086160e+02   7.0247070e+01
   7.5134380e+02   3.7966800e+01
   7.5182590e+02   6.2919920e+00
   7.5230800e+02   4.6985350e+01
   7.5279010e+02   3.4116210e+01
   7.5327220e+02   3.0004880e+01
   7.5375430e+02   8.2326170e+01
   7.5423650e+02   6.4626950e+01
   7.5471860e+02   2.8886720e+01
   7.5520070e+02   2.1866210e+01
   7.5568280e+02   5.7516600e+01
   7.5616490e+02   6.8787110e+01
   7.5664700e+02   1.1146480e+01
   7.5712920e+02   4.4362300e+01
   7.5761130e+02   4.9486330e+01
   7.5809340e+02   1.3915040e+01
   7.5857550e+02   4.3348630e+01
   7.5905760e+02   3.2879880e+01
   7.5953970e+02   8.9638670e+00
   7.6002190e+02   5.4941410e+00
   7.6050400e+02   1.0934570e+01
   7.6098610e+02   5.1191410e+00
   7.6146820e+02   1.4992190e+01
   7.6195030e+02   3.0895510e+01
   7.6243240e+02   1.8938480e+01
   7.6291460e+02   1.5585940e+00
   7.6339670e+02   7.2861330e+00
   7.6387880e+02   1.8402340e+01
   7.6436090e+02   4.1182620e+01
   7.6484300e+02   6.0613280e+01
   7.6532510e+02   7.1256840e+01
   7.6580730e+02   6.3329100e+01
   7.6628940e+02   2.9261720e+01
   7.6677150e+02   5.9960940e+00
   7.6725360e+02   1.7099610e+00
   7.6773570e+02   4.2734380e+00
   7.6821780e+02   3.1078120e+01
   7.6870000e+02   7.1494140e+01
   7.6918210e+02   9.3790040e+01
   7.6966420e+02   7.9977540e+01
   7.7014630e+02   5.7456050e+01
   7.7062840e+02   4.9294920e+01
   7.7111050e+02   4.9513670e+01
   7.7159270e+02   4.6575200e+01
   7.7207480e+02   2.0916990e+01
   7.7255690e+02   1.0910160e+01
   7.7303900e+02   3.7055660e+01
   7.7352110e+02   8.2598630e+01
   7.7400320e+02   1.0383590e+02
   7.7448540e+02   9.4542970e+01
   7.7496750e+02   8.4250980e+01
   7.7544960e+02   8.1961910e+01
   7.7593170e+02   8.4152340e+01
   7.7641380e+02   7.8893550e+01
   7.7689590e+02   6.8676760e+01
   7.7737810e+02   6.6841800e+01
   7.7786020e+02   9.4677730e+01
   7.7834230e+02   1.2233590e+02
   7.7882440e+02   1.1865430e+02
   7.7930650e+02   9.1333010e+01
   7.7978860e+02   7.3924800e+01
   7.8027080e+02   8.2557620e+01
   7.8075290e+02   9.7041990e+01
   7.8123500e+02   1.1465820e+02
   7.8171710e+02   1.3380470e+02
   7.8219920e+02   1.3679490e+02
   7.8268130e+02   1.1933010e+02
   7.8316350e+02   1.0262790e+02
   7.8364560e+02   9.7176760e+01
   7.8412770e+02   1.0085640e+02
   7.8460980e+02   1.0611820e+02
   7.8509190e+02   1.1336230e+02
   7.8557400e+02   1.2646880e+02
   7.8605620e+02   1.5743550e+02
   7.8653830e+02   1.8866410e+02
   7.8702040e+02   2.0302540e+02
   7.8750250e+02   1.9979790e+02
   7.8798460e+02   1.9793260e+02
   7.8846670e+02   2.0521680e+02
   7.8894890e+02   2.1176370e+02
   7.8943100e+02   2.1377250e+02
   7.8991310e+02   2.0964160e+02
   7.9039520e+02   2.0205470e+02
   7.9087730e+02   1.9295800e+02
   7.9135940e+02   1.7947950e+02
   7.9184160e+02   1.5083400e+02
   7.9232370e+02   1.1700880e+02
   7.9280580e+02   1.0735350e+02
   7.9328790e+02   1.2241800e+02
   7.9377000e+02   1.4086130e+02
   7.9425210e+02   1.5168160e+02
   7.9473430e+02   1.5952340e+02
   7.9521640e+02   1.6990920e+02
   7.9569850e+02   1.8710160e+02
   7.9618060e+02   1.8991890e+02
   7.9666270e+02   1.6011130e+02
   7.9714480e+02   1.3365620e+02
   7.9762700e+02   1.3834770e+02
   7.9810910e+02   1.8044820e+02
   7.9859120e+02   2.0053320e+02
   7.9907330e+02   1.9550000e+02
   7.9955540e+02   1.8408200e+02
   8.0003750e+02   1.8477640e+02
   8.0051970e+02   1.9201860e+02
   8.0100180e+02   1.9438480e+02
   8.0148390e+02   1.9184570e+02
   8.0196600e+02   1.8734570e+02
   8.0244810e+02   1.6917190e+02
   8.0293020e+02   1.5863670e+02
   8.0341240e+02   1.7730080e+02
   8.0389450e+02   2.5457420e+02
   8.0437660e+02   2.9924120e+02
   8.0485870e+02   2.9482910e+02
   8.0534080e+02   2.8038180e+02
   8.0582290e+02   2.9238770e+02
   8.0630510e+02   3.2987010e+02
   8.0678720e+02   3.5441700e+02
   8.0726930e+02   3.6391310e+02
   8.0775140e+02   3.6155080e+02
   8.0823350e+02   3.3871480e+02
   8.0871560e+02   3.1148440e+02
   8.0919780e+02   3.0536520e+02
   8.0967990e+02   3.2911430e+02
   8.1016200e+02   3.5862600e+02
   8.1064410e+02   4.0121680e+02
   8.1112620e+02   4.4235840e+02
   8.1160830e+02   4.6243650e+02
   8.1209050e+02   4.4486910e+02
   8.1257260e+02   4.4596390e+02
   8.1305470e+02   4.7203030e+02
   8.1353680e+02   5.0664060e+02
   8.1401890e+02   5.3040620e+02
   8.1450100e+02   5.4522660e+02
   8.1498320e+02   5.6280270e+02
   8.1546530e+02   5.9067290e+02
   8.1594740e+02   6.1184960e+02
   8.1642950e+02   5.9622460e+02
   8.1691160e+02   5.6370410e+02
   8.1739370e+02   5.3814650e+02
   8.1787590e+02   5.2306150e+02
   8.1835800e+02   5.1931050e+02
   8.1884010e+02   5.3079690e+02
   8.1932220e+02   5.5241800e+02
   8.1980430e+02   5.8130370e+02
   8.2028640e+02   6.1930270e+02
   8.2076860e+02   6.5908110e+02
   8.2125070e+02   7.0348540e+02
   8.2173280e+02   7.3785640e+02
   8.2221490e+02   7.3728220e+02
   8.2269700e+02   7.1071390e+02
   8.2317910e+02   6.7828030e+02
   8.2366130e+02   6.4163180e+02
   8.2414340e+02   6.1024900e+02
   8.2462550e+02   5.9298240e+02
   8.2510760e+02   5.8348930e+02
   8.2558970e+02   5.7512210e+02
   8.2607180e+02   5.5874120e+02
   8.2655400e+02   5.5724510e+02
   8.2703610e+02   5.8408300e+02
   8.2751820e+02   6.1041700e+02
   8.2800030e+02   5.9475490e+02
   8.2848240e+02   5.3789060e+02
   8.2896450e+02   4.9703120e+02
   8.2944670e+02   4.8203610e+02
   8.2992880e+02   4.7936620e+02
   8.3041090e+02   4.7717090e+02
   8.3089300e+02   4.7597070e+02
   8.3137510e+02   4.7746680e+02
   8.3185720e+02   4.8572750e+02
   8.3233940e+02   4.8823340e+02
   8.3282150e+02   4.7464450e+02
   8.3330360e+02   4.5631050e+02
   8.3378570e+02   4.4614160e+02
   8.3426780e+02   4.4764840e+02
   8.3474990e+02   4.4718160e+02
   8.3523210e+02   4.4345800e+02
   8.3571420e+02   4.3866990e+02
   8.3619630e+02   4.3444630e+02
   8.3667840e+02   4.3135940e+02
   8.3716050e+02   4.3244630e+02
   8.3764260e+02   4.3937010e+02
   8.3812480e+02   4.4552540e+02
   8.3860690e+02   4.4862890e+02
   8.3908900e+02   4.4681640e+02
   8.3957110e+02   4.3792580e+02
   8.4005320e+02   4.2134470e+02
   8.4053530e+02   3.9719920e+02
   8.4101750e+02   3.5617480e+02
   8.4149960e+02   3.1978910e+02
   8.4198170e+02   3.1979590e+02
   8.4246380e+02   3.5900000e+02
   8.4294590e+02   3.5687790e+02
   8.4342800e+02   2.9895020e+02
   8.4391020e+02   2.3540720e+02
   8.4439230e+02   2.2887010e+02
   8.4487440e+02   2.5118750e+02
   8.4535650e+02   2.5642290e+02
   8.4583860e+02   2.2953910e+02
   8.4632070e+02   2.0360160e+02
   8.4680290e+02   1.8809960e+02
   8.4728500e+02   1.8434180e+02
   8.4776710e+02   1.9649320e+02
   8.4824920e+02   2.4102440e+02
   8.4873130e+02   2.5229690e+02
   8.4921340e+02   2.2296680e+02
   8.4969560e+02   1.8347950e+02
   8.5017770e+02   1.5201660e+02
   8.5065980e+02   1.2594530e+02
   8.5114190e+02   1.1523340e+02
   8.5162400e+02   1.2646880e+02
   8.5210610e+02   1.3849410e+02
   8.5258830e+02   1.2942190e+02
   8.5307040e+02   1.1723340e+02
   8.5355250e+02   1.1871000e+02
   8.5403460e+02   1.3843750e+02
   8.5451670e+02   1.7140920e+02
   8.5499880e+02   2.2708690e+02
   8.5548100e+02   2.7747750e+02
   8.5596310e+02   3.0707130e+02
   8.5644520e+02   3.1659670e+02
   8.5692730e+02   3.1089750e+02
   8.5740940e+02   2.8918070e+02
   8.5789150e+02   2.6593260e+02
   8.5837370e+02   2.4718260e+02
   8.5885580e+02   2.3684280e+02
   8.5933790e+02   2.4470610e+02
   8.5982000e+02   2.7376560e+02
   8.6030210e+02   3.0258980e+02
   8.6078420e+02   3.3838670e+02
   8.6126640e+02   3.5567380e+02
   8.6174850e+02   3.3243550e+02
   8.6223060e+02   2.6039550e+02
   8.6271270e+02   2.3465230e+02
   8.6319480e+02   2.6481350e+02
   8.6367690e+02   3.0121970e+02
   8.6415910e+02   2.9682320e+02
   8.6464120e+02   2.7063770e+02
   8.6512330e+02   2.7608400e+02
   8.6560540e+02   3.1264160e+02
   8.6608750e+02   3.5006050e+02
   8.6656960e+02   3.7903320e+02
   8.6705180e+02   3.9720900e+02
   8.6753390e+02   3.9908300e+02
   8.6801600e+02   3.8163770e+02
   8.6849810e+02   3.6378120e+02
   8.6898020e+02   3.4394730e+02
   8.6946230e+02   3.2721580e+02
   8.6994450e+02   3.1951860e+02
   8.7042660e+02   3.1881050e+02
   8.7090870e+02   3.1193160e+02
   8.7139080e+02   2.9719240e+02
   8.7187290e+02   2.8553810e+02
   8.7235500e+02   2.9027540e+02
   8.7283720e+02   2.9929490e+02
   8.7331930e+02   3.0249800e+02
   8.7380140e+02   3.0009280e+02
   8.7428350e+02   2.9983890e+02
   8.7476560e+02   3.0398050e+02
   8.7524770e+02   3.1513960e+02
   8.7572990e+02   3.3941800e+02
   8.7621200e+02   3.6472170e+02
   8.7669410e+02   3.4461520e+02
   8.7717620e+02   2.7933980e+02
   8.7765830e+02   2.2346190e+02
   8.7814040e+02   1.9941600e+02
   8.7862260e+02   1.9227250e+02
   8.7910470e+02   1.8232910e+02
   8.7958690e+02   1.7516700e+02
   8.8006900e+02   1.8491600e+02
   8.8055110e+02   2.5468460e+02
   8.8103320e+02   2.9801270e+02
   8.8151530e+02   2.6550290e+02
   8.8199740e+02   1.9812210e+02
   8.8247960e+02   1.8377150e+02
   8.8296170e+02   2.3484080e+02
   8.8344380e+02   2.6847070e+02
   8.8392590e+02   2.6297170e+02
   8.8440800e+02   2.3537210e+02
   8.8489010e+02   2.0931250e+02
   8.8537230e+02   1.8237300e+02
   8.8585440e+02   1.4657520e+02
   8.8633650e+02   8.0337890e+01
   8.8681860e+02   3.6239260e+01
   8.8730070e+02   5.4512700e+01
   8.8778280e+02   1.0233400e+02
   8.8826500e+02   1.3491700e+02
   8.8874710e+02   1.5165140e+02
   8.8922920e+02   1.4807520e+02
   8.8971130e+02   1.1537990e+02
   8.9019340e+02   8.1383790e+01
   8.9067550e+02   9.2739260e+01
   8.9115770e+02   1.3269530e+02
   8.9163980e+02   1.4407030e+02
   8.9212190e+02   1.0986720e+02
   8.9260400e+02   7.9223630e+01
   8.9308610e+02   9.7419920e+01
   8.9356820e+02   1.2891700e+02
   8.9405040e+02   1.3873440e+02
   8.9453250e+02   1.0870310e+02
   8.9501460e+02   9.3140620e+01
   8.9549670e+02   1.0202930e+02
   8.9597880e+02   1.0698830e+02
   8.9646090e+02   7.2159180e+01
   8.9694310e+02   8.1298830e+00
   8.9742520e+02   1.2218750e+01
   8.9790730e+02   1.5431640e+01
   8.9838940e+02   4.8252930e+01
   8.9887150e+02   5.3005860e+01
   8.9935360e+02   4.9738280e+01
   8.9983580e+02   5.8800780e+01
   9.0031790e+02   8.3883790e+01
   9.0080000e+02   9.4126950e+01
   9.0128210e+02   8.2462890e+01
   9.0176420e+02   6.1608400e+01
   9.0224630e+02   3.0454100e+01
   9.0272850e+02   6.4384770e+00
   9.0321060e+02   1.0588870e+01
   9.0369270e+02   1.6651370e+01
   9.0417480e+02   3.8761720e+01
   9.0465690e+02   2.4904300e+01
   9.0513900e+02   1.5371090e+00
   9.0562120e+02   1.3867190e+00
   9.0610330e+02   1.7163090e+01
   9.0658540e+02   1.5159180e+01
   9.0706750e+02   5.6173830e+01
   9.0754960e+02   9.2916990e+01
   9.0803170e+02   5.3683590e+01
   9.0851390e+02   2.9860350e+01
   9.0899600e+02   5.6394530e+01
   9.0947810e+02   2.5499020e+01
   9.0996020e+02   7.5585900e-01
   9.1044230e+02   4.2636720e+00
   9.1092440e+02   1.6453120e+01
   9.1140660e+02   2.7929700e-01
   9.1188870e+02   2.9673830e+01
   9.1237080e+02   4.1876950e+01
   9.1285290e+02   7.4560550e+00
   9.1333500e+02   2.0756840e+01
   9.1381710e+02   3.5161130e+01
   9.1429930e+02   3.7578120e+01
   9.1478140e+02   2.5443360e+01
   9.1526350e+02   3.2412110e+00
   9.1574560e+02   1.8319340e+01
   9.1622770e+02   1.3520510e+01
   9.1670980e+02   3.2519530e+00
   9.1719200e+02   4.4785160e+00
   9.1767410e+02   1.1000980e+01
   9.1815620e+02   1.3661130e+01
   9.1863830e+02   9.8017580e+00
   9.1912040e+02   4.9199220e+00
   9.1960250e+02   4.5156250e+00
   9.2008470e+02   1.0001950e+01
   9.2056680e+02   1.2998050e+00
   9.2104890e+02   2.7295900e+01
   9.2153100e+02   2.2056640e+01
   9.2201310e+02   2.1410160e+01
   9.2249520e+02   6.1807620e+01
   9.2297740e+02   6.1595700e+01
   9.2345950e+02   3.8966800e+01
   9.2394160e+02   1.2547850e+01
   9.2442370e+02   1.4478520e+01
   9.2490580e+02   2.1023440e+01
   9.2538790e+02   3.6770510e+01
   9.2587010e+02   7.9754880e+01
   9.2635220e+02   6.9541020e+01
   9.2683430e+02   1.3719730e+01
   9.2731640e+02   2.9859380e+01
   9.2779850e+02   6.2604490e+01
   9.2828060e+02   7.1332030e+01
   9.2876280e+02   3.4954100e+01
   9.2924490e+02   1.4754880e+01
   9.2972700e+02   2.5686520e+01
   9.3020910e+02   8.7412110e+00
   9.3069120e+02   6.1621090e+00
   9.3117330e+02   1.5908200e+00
   9.3165550e+02   3.0253910e+00
   9.3213760e+02   2.6669920e+01
   9.3261970e+02   6.1028320e+01
   9.3310180e+02   4.4694340e+01
   9.3358390e+02   3.4398440e+01
   9.3406600e+02   6.7954100e+01
   9.3454820e+02   2.5352540e+01
   9.3503030e+02   3.3087890e+01
   9.3551240e+02   2.2451170e+01
   9.3599450e+02   2.5115230e+01
   9.3647660e+02   5.0475590e+01
   9.3695870e+02   2.7999020e+01
   9.3744090e+02   1.6766600e+01
   9.3792300e+02   4.8183590e+01
   9.3840510e+02   8.8961910e+01
   9.3888720e+02   1.1393550e+02
   9.3936930e+02   1.2084470e+02
   9.3985140e+02   1.2578610e+02
   9.4033360e+02   1.2854100e+02
   9.4081570e+02   1.3079100e+02
   9.4129780e+02   1.3910350e+02
   9.4177990e+02   1.4519140e+02
   9.4226200e+02   1.3021780e+02
   9.4274410e+02   9.5271480e+01
   9.4322630e+02   7.4272460e+01
   9.4370840e+02   8.2618160e+01
   9.4419050e+02   1.0724120e+02
   9.4467260e+02   1.4967870e+02
   9.4515470e+02   2.0434570e+02
   9.4563680e+02   2.3483200e+02
   9.4611900e+02   2.4047170e+02
   9.4660110e+02   2.3646680e+02
   9.4708320e+02   2.2364550e+02
   9.4756530e+02   2.1149020e+02
   9.4804740e+02   2.1380860e+02
   9.4852950e+02   2.2663180e+02
   9.4901170e+02   2.4082030e+02
   9.4949380e+02   2.5353420e+02
   9.4997590e+02   2.6669240e+02
   9.5045800e+02   2.7786720e+02
   9.5094010e+02   2.9174220e+02
   9.5142220e+02   3.2164550e+02
   9.5190440e+02   3.6841410e+02
   9.5238650e+02   3.8503810e+02
   9.5286860e+02   3.5764750e+02
   9.5335070e+02   3.2967380e+02
   9.5383280e+02   3.5291500e+02
   9.5431490e+02   4.0050780e+02
   9.5479710e+02   4.3812890e+02
   9.5527920e+02   4.5343950e+02
   9.5576130e+02   4.7593850e+02
   9.5624340e+02   5.0920210e+02
   9.5672550e+02   5.4896390e+02
   9.5720760e+02   5.9205080e+02
   9.5768980e+02   6.3888380e+02
   9.5817190e+02   6.9685250e+02
   9.5865400e+02   7.6631840e+02
   9.5913610e+02   8.3916110e+02
   9.5961820e+02   9.1624900e+02
   9.6010030e+02   9.8998440e+02
   9.6058250e+02   1.0397330e+03
   9.6106460e+02   1.0749530e+03
   9.6154670e+02   1.1517280e+03
   9.6202880e+02   1.3083890e+03
   9.6251090e+02   1.4601660e+03
   9.6299300e+02   1.5809320e+03
   9.6347520e+02   1.6864830e+03
   9.6395730e+02   1.8171030e+03
   9.6443940e+02   1.9668570e+03
   9.6492150e+02   2.1016940e+03
   9.6540360e+02   2.2025420e+03
   9.6588570e+02   2.3135000e+03
   9.6636790e+02   2.4645760e+03
   9.6685000e+02   2.6431790e+03
   9.6733210e+02   2.8413720e+03
   9.6781420e+02   3.0804140e+03
   9.6829630e+02   3.2938650e+03
   9.6877840e+02   3.4763440e+03
   9.6926060e+02   3.6392340e+03
   9.6974270e+02   3.8133420e+03
   9.7022480e+02   3.9764050e+03
   9.7070690e+02   4.0395780e+03
   9.7118900e+02   3.9953920e+03
   9.7167110e+02   3.9005820e+03
   9.7215330e+02   3.7611820e+03
   9.7263540e+02   3.6105000e+03
   9.7311750e+02   3.4782150e+03
   9.7359960e+02   3.3633320e+03
   9.7408170e+02   3.2066040e+03
   9.7456380e+02   2.9910190e+03
   9.7504600e+02   2.7962290e+03
   9.7552810e+02   2.6621850e+03
   9.7601020e+02   2.5611630e+03
   9.7649230e+02   2.4237620e+03
   9.7697440e+02   2.2675370e+03
   9.7745650e+02   2.1440130e+03
   9.7793870e+02   2.0975370e+03
   9.7842080e+02   2.0606100e+03
   9.7890290e+02   1.9937730e+03
   9.7938500e+02   1.9315620e+03
   9.7986710e+02   1.9263120e+03
   9.8034920e+02   1.9892400e+03
   9.8083140e+02   2.0313200e+03
   9.8131350e+02   2.0399700e+03
   9.8179560e+02   2.0403000e+03
   9.8227770e+02   2.0554200e+03
   9.8275980e+02   2.0812770e+03
   9.8324190e+02   2.1081720e+03
   9.8372410e+02   2.1296500e+03
   9.8420620e+02   2.1799850e+03
   9.8468830e+02   2.2806720e+03
   9.8517040e+02   2.4009400e+03
   9.8565250e+02   2.5302230e+03
   9.8613460e+02   2.6703050e+03
   9.8661680e+02   2.8280240e+03
   9.8709890e+02   3.0033530e+03
   9.8758100e+02   3.1928870e+03
   9.8806310e+02   3.3853010e+03
   9.8854520e+02   3.6009800e+03
   9.8902730e+02   3.8554430e+03
   9.8950950e+02   4.1477580e+03
   9.8999160e+02   4.4723420e+03
   9.9047370e+02   4.7973790e+03
   9.9095580e+02   5.2115620e+03
   9.9143790e+02   5.7339770e+03
   9.9192000e+02   6.3313550e+03
   9.9240220e+02   6.9332550e+03
   9.9288430e+02   7.5575320e+03
   9.9336640e+02   8.3295320e+03
   9.9384850e+02   9.2765020e+03
   9.9433060e+02   1.0297270e+04
   9.9481270e+02   1.1310970e+04
   9.9529490e+02   1.2379420e+04
   9.9577700e+02   1.3553120e+04
   9.9625910e+02   1.4831940e+04
   9.9674120e+02   1.6174130e+04
   9.9722330e+02   1.7562470e+04
   9.9770540e+02   1.9036380e+04
   9.9818760e+02   2.0642460e+04
   9.9866970e+02   2.2334810e+04
   9.9915180e+02   2.4056870e+04
   9.9963390e+02   2.5807230e+04
   1.0001160e+03   2.7593590e+04
   1.0005980e+03   2.9586200e+04
   1.0010800e+03   3.1438650e+04
   1.0015620e+03   3.3130090e+04
   1.0020440e+03   3.4581080e+04
   1.0025270e+03   3.5711670e+04
   1.0030090e+03   3.6530150e+04
   1.0034910e+03   3.6784280e+04
   1.0039730e+03   3.6428630e+04
   1.0044550e+03   3.5480480e+04
   1.0049370e+03   3.3797040e+04
   1.0054190e+03   3.1611870e+04
   1.0059010e+03   2.9172370e+04
   1.0063840e+03   2.6436190e+04
   1.0068660e+03   2.3840880e+04
   1.0073480e+03   2.1412830e+04
   1.0078300e+03   1.9180790e+04
   1.0083120e+03   1.7163170e+04
   1.0087940e+03   1.5362470e+04
   1.0092760e+03   1.3748200e+04
   1.0097580e+03   1.2325920e+04
   1.0102400e+03   1.1074450e+04
   1.0107230e+03   1.0012460e+04
   1.0112050e+03   9.0871880e+03
   1.0116870e+03   8.2952260e+03
   1.0121690e+03   7.6159310e+03
   1.0126510e+03   6.9865840e+03
   1.0131330e+03   6.3934720e+03
   1.0136150e+03   5.8684830e+03
   1.0140970e+03   5.4231990e+03
   1.0145800e+03   5.0265720e+03
   1.0150620e+03   4.6392480e+03
   1.0155440e+03   4.2742710e+03
   1.0160260e+03   3.9569000e+03
   1.0165080e+03   3.6971080e+03
   1.0169900e+03   3.4662790e+03
   1.0174720e+03   3.2744320e+03
   1.0179540e+03   3.0889400e+03
   1.0184360e+03   2.8883880e+03
   1.0189190e+03   2.6756080e+03
   1.0194010e+03   2.4764400e+03
   1.0198830e+03   2.2908820e+03
   1.0203650e+03   2.1226460e+03
   1.0208470e+03   1.9809190e+03
   1.0213290e+03   1.8517160e+03
   1.0218110e+03   1.7140530e+03
   1.0222930e+03   1.5789320e+03
   1.0227760e+03   1.4714560e+03
   1.0232580e+03   1.4241470e+03
   1.0237400e+03   1.3571360e+03
   1.0242220e+03   1.2558220e+03
   1.0247040e+03   1.1433310e+03
   1.0251860e+03   1.0485220e+03
   1.0256680e+03   9.6981350e+02
   1.0261500e+03   9.0533300e+02
   1.0266320e+03   8.5528320e+02
   1.0271150e+03   8.1183790e+02
   1.0275970e+03   7.7674320e+02
   1.0280790e+03   7.4110740e+02
   1.0285610e+03   6.9447950e+02
   1.0290430e+03   6.3788870e+02
   1.0295250e+03   6.0225000e+02
   1.0300070e+03   5.9112700e+02
   1.0304890e+03   5.7569730e+02
   1.0309720e+03   5.3821780e+02
   1.0314540e+03   4.9438380e+02
   1.0319360e+03   4.6504790e+02
   1.0324180e+03   4.4587210e+02
   1.0329000e+03   4.2791890e+02
   1.0333820e+03   4.1527930e+02
   1.0338640e+03   3.9208690e+02
   1.0343460e+03   3.5284180e+02
   1.0348280e+03   3.1528320e+02
   1.0353110e+03   3.0538380e+02
   1.0357930e+03   3.1532810e+02
   1.0362750e+03   2.9469530e+02
   1.0367570e+03   2.3955760e+02
   1.0372390e+03   1.9740530e+02
   1.0377210e+03   2.1846970e+02
   1.0382030e+03   2.5020120e+02
   1.0386850e+03   2.5234860e+02
   1.0391670e+03   2.2762400e+02
   1.0396500e+03   2.2158200e+02
   1.0401320e+03   2.4129390e+02
   1.0406140e+03   2.4879980e+02
   1.0410960e+03   2.2816410e+02
   1.0415780e+03   1.9404790e+02
   1.0420600e+03   1.6694820e+02
   1.0425420e+03   1.4420310e+02
   1.0430240e+03   1.2083200e+02
   1.0435070e+03   9.0342770e+01
   1.0439890e+03   7.1193360e+01
   1.0444710e+03   7.4080080e+01
   1.0449530e+03   8.1034180e+01
   1.0454350e+03   7.2624020e+01
   1.0459170e+03   5.0815430e+01
   1.0463990e+03   5.7913090e+01
   1.0468810e+03   9.3828120e+01
   1.0473640e+03   1.2244430e+02
   1.0478460e+03   1.0959470e+02
   1.0483280e+03   9.0105470e+01
   1.0488100e+03   9.3412110e+01
   1.0492920e+03   1.1121290e+02
   1.0497740e+03   1.0395800e+02
   1.0502560e+03   6.2469730e+01
   1.0507380e+03   2.8466800e+01
   1.0512200e+03   1.1766600e+01
   1.0517030e+03   2.8925780e+00
   1.0521850e+03   1.6553710e+01
   1.0526670e+03   3.7768550e+01
   1.0531490e+03   4.3675780e+01
   1.0536310e+03   2.7257810e+01
   1.0541130e+03   8.2617200e-01
   1.0545950e+03   6.3483400e+01
   1.0550770e+03   1.0712210e+02
   1.0555590e+03   9.7817380e+01
   1.0560420e+03   4.4014650e+01
   1.0565240e+03   1.9853520e+00
   1.0570060e+03   3.8779300e+01
   1.0574880e+03   5.6518550e+01
   1.0579700e+03   3.1097660e+01
   1.0584520e+03   4.0957030e+00
   1.0589340e+03   5.7255860e+00
   1.0594160e+03   2.2054690e+01
   1.0598990e+03   2.7166990e+01
   1.0603810e+03   1.9484380e+01
   1.0608630e+03   2.3115230e+00
   1.0613450e+03   2.7612300e+01
   1.0618270e+03   5.2052730e+01
   1.0623090e+03   4.6504880e+01
   1.0627910e+03   2.7933590e+01
   1.0632730e+03   2.2383790e+01
   1.0637550e+03   2.8558590e+01
   1.0642380e+03   2.7100590e+01
   1.0647200e+03   9.3955080e+00
   1.0652020e+03   6.1806640e+00
   1.0656840e+03   1.7040040e+01
   1.0661660e+03   2.0148440e+01
   1.0666480e+03   4.6943360e+00
   1.0671300e+03   4.8055660e+01
   1.0676120e+03   6.4899410e+01
   1.0680940e+03   2.8452150e+01
   1.0685770e+03   8.0996090e+00
   1.0690590e+03   1.0637700e+01
   1.0695410e+03   8.8769500e-01
   1.0700230e+03   6.2021480e+00
   1.0705050e+03   2.8496090e+00
   1.0709870e+03   7.1582030e+00
   1.0714690e+03   2.0408200e+01
   1.0719510e+03   3.0059570e+01
   1.0724340e+03   1.5528320e+01
   1.0729160e+03   1.2646480e+00
   1.0733980e+03   3.1750980e+01
   1.0738800e+03   8.9342770e+01
   1.0743620e+03   1.1052250e+02
   1.0748440e+03   4.6466800e+01
   1.0753260e+03   6.1806640e+00
   1.0758080e+03   8.1494140e+00
   1.0762910e+03   2.8732420e+01
   1.0767730e+03   3.7422850e+01
   1.0772550e+03   3.7340820e+01
   1.0777370e+03   3.5108400e+01
   1.0782190e+03   3.1176760e+01
   1.0787010e+03   3.3580080e+01
   1.0791830e+03   5.0139650e+01
   1.0796650e+03   7.1035160e+01
   1.0801470e+03   9.7771480e+01
   1.0806300e+03   1.2504980e+02
   1.0811120e+03   1.1610450e+02
   1.0815940e+03   7.2217770e+01
   1.0820760e+03   3.2708980e+01
   1.0825580e+03   7.7656250e+00
   1.0830400e+03   1.6748050e+00
   1.0835220e+03   2.6845700e+01
   1.0840040e+03   6.9414060e+01
   1.0844860e+03   1.1314750e+02
   1.0849690e+03   1.6636230e+02
   1.0854510e+03   1.9103610e+02
   1.0859330e+03   1.8221680e+02
   1.0864150e+03   1.6258300e+02
   1.0868970e+03   1.4717770e+02
   1.0873790e+03   1.3365530e+02
   1.0878610e+03   1.1693750e+02
   1.0883430e+03   9.8225590e+01
   1.0888260e+03   8.2454100e+01
   1.0893080e+03   7.0593750e+01
   1.0897900e+03   6.4313480e+01
   1.0902720e+03   7.2271480e+01
   1.0907540e+03   7.6013670e+01
   1.0912360e+03   2.9864260e+01
   1.0917180e+03   4.9273440e+01
   1.0922000e+03   7.9101560e+01
   1.0926820e+03   4.4994140e+01
   1.0931650e+03   3.4296880e+00
   1.0936470e+03   5.8066410e+01
   1.0941290e+03   9.5744140e+01
   1.0946110e+03   9.5001950e+01
   1.0950930e+03   6.3072270e+01
   1.0955750e+03   4.9753910e+01
   1.0960570e+03   5.5956050e+01
   1.0965390e+03   5.7810550e+01
   1.0970220e+03   4.4395510e+01
   1.0975040e+03   2.7260740e+01
   1.0979860e+03   1.5455080e+01
   1.0984680e+03   8.6093750e+00
   1.0989500e+03   6.0214840e+00
   1.0994320e+03   5.7226560e+00
   1.0999140e+03   1.7463870e+01
   1.1003960e+03   4.7459960e+01
   1.1008790e+03   6.9215820e+01
   1.1013610e+03   5.5573240e+01
   1.1018430e+03   2.4079100e+01
   1.1023250e+03   4.0429690e+00
   1.1028070e+03   4.1933590e+00
   1.1032890e+03   5.4394500e-01
   1.1037710e+03   2.8917970e+01
   1.1042530e+03   5.1925780e+01
   1.1047350e+03   6.3410160e+01
   1.1052180e+03   6.5909180e+01
   1.1057000e+03   5.7536130e+01
   1.1061820e+03   4.2508790e+01
   1.1066640e+03   4.4663090e+01
   1.1071460e+03   6.4858400e+01
   1.1076280e+03   7.7220700e+01
   1.1081100e+03   6.2890620e+01
   1.1085920e+03   3.7950200e+01
   1.1090740e+03   1.6591800e+00
   1.1095570e+03   3.7218750e+01
   1.1100390e+03   3.6037110e+01
   1.1105210e+03   5.3505860e+00
   1.1110030e+03   3.6850590e+01
   1.1114850e+03   4.3831050e+01
   1.1119670e+03   3.9403320e+01
   1.1124490e+03   2.5000000e+01
   1.1129310e+03   1.0832030e+01
   1.1134140e+03   9.1738280e+00
   1.1138960e+03   2.3606450e+01
   1.1143780e+03   4.0101560e+01
   1.1148600e+03   6.0279300e+01
   1.1153420e+03   6.8590820e+01
   1.1158240e+03   5.1403320e+01
   1.1163060e+03   2.4459960e+01
   1.1167880e+03   9.8437500e+00
   1.1172710e+03   4.4082030e+00
   1.1177530e+03   2.5107420e+00
   1.1182350e+03   5.6572270e+00
   1.1187170e+03   1.0274410e+01
   1.1191990e+03   1.9242190e+01
   1.1196810e+03   2.2365230e+01
   1.1201630e+03   3.9980470e+00
   1.1206450e+03   4.2295900e+01
   1.1211270e+03   3.2209960e+01
   1.1216090e+03   2.3634770e+01
   1.1220920e+03   7.4524410e+01
   1.1225740e+03   9.8622070e+01
   1.1230560e+03   1.0765230e+02
   1.1235380e+03   1.0319140e+02
   1.1240200e+03   8.9929690e+01
   1.1245020e+03   7.2955080e+01
   1.1249840e+03   5.3029300e+01
   1.1254660e+03   4.6150390e+01
   1.1259490e+03   5.6831050e+01
   1.1264310e+03   6.7139650e+01
   1.1269130e+03   6.2088870e+01
   1.1273950e+03   5.5191410e+01
   1.1278770e+03   5.7131840e+01
   1.1283590e+03   6.6206050e+01
   1.1288410e+03   6.5860350e+01
   1.1293230e+03   5.5459960e+01
   1.1298060e+03   5.1567380e+01
   1.1302880e+03   6.3167970e+01
   1.1307700e+03   7.7312500e+01
   1.1312520e+03   8.0238280e+01
   1.1317340e+03   7.8023440e+01
   1.1322160e+03   7.8559570e+01
   1.1326980e+03   8.3262700e+01
   1.1331800e+03   9.0023440e+01
   1.1336620e+03   1.0031050e+02
   1.1341450e+03   1.0617480e+02
   1.1346270e+03   9.3296880e+01
   1.1351090e+03   7.9145510e+01
   1.1355910e+03   1.0600100e+02
   1.1360730e+03   1.5339360e+02
   1.1365550e+03   1.6872460e+02
   1.1370370e+03   9.7414060e+01
   1.1375190e+03   5.2529300e+01
   1.1380010e+03   4.3578120e+01
   1.1384840e+03   5.5830080e+01
   1.1389660e+03   8.3847660e+01
   1.1394480e+03   1.1880570e+02
   1.1399300e+03   1.4197360e+02
   1.1404120e+03   1.5162600e+02
   1.1408940e+03   1.4245410e+02
   1.1413760e+03   8.8381840e+01
   1.1418580e+03   4.6997070e+01
   1.1423410e+03   3.4041990e+01
   1.1428230e+03   4.0364260e+01
   1.1433050e+03   5.4406250e+01
   1.1437870e+03   7.3477540e+01
   1.1442690e+03   8.7302730e+01
   1.1447510e+03   9.4575200e+01
   1.1452330e+03   9.2057620e+01
   1.1457150e+03   6.0405270e+01
   1.1461980e+03   3.6940430e+01
   1.1466800e+03   4.7419920e+01
   1.1471620e+03   8.1752930e+01
   1.1476440e+03   8.9772460e+01
   1.1481260e+03   7.3429690e+01
   1.1486080e+03   5.7401370e+01
   1.1490900e+03   4.6516600e+01
   1.1495720e+03   4.1972660e+01
   1.1500540e+03   5.4556640e+01
   1.1505360e+03   7.9500980e+01
   1.1510190e+03   1.0986430e+02
   1.1515010e+03   1.4617090e+02
   1.1519830e+03   1.6602640e+02
   1.1524650e+03   1.6931930e+02
   1.1529470e+03   1.6238960e+02
   1.1534290e+03   1.4053610e+02
   1.1539110e+03   1.1919530e+02
   1.1543930e+03   1.2153810e+02
   1.1548760e+03   1.3218070e+02
   1.1553580e+03   1.2079880e+02
   1.1558400e+03   6.9751950e+01
   1.1563220e+03   4.7850590e+01
   1.1568040e+03   6.0070310e+01
   1.1572860e+03   8.4503910e+01
   1.1577680e+03   1.0859670e+02
   1.1582500e+03   1.3173540e+02
   1.1587330e+03   1.5921290e+02
   1.1592150e+03   1.8551270e+02
   1.1596970e+03   1.8987110e+02
   1.1601790e+03   1.6000390e+02
   1.1606610e+03   1.2556540e+02
   1.1611430e+03   8.6550780e+01
   1.1616250e+03   5.9286130e+01
   1.1621070e+03   8.3804690e+01
   1.1625890e+03   1.2461620e+02
   1.1630720e+03   1.0503120e+02
   1.1635540e+03   2.5840820e+01
   1.1640360e+03   4.1982420e+00
   1.1645180e+03   8.8235350e+01
   1.1650000e+03   1.5099800e+02
   1.1654820e+03   1.4022660e+02
   1.1659640e+03   9.5380860e+01
   1.1664460e+03   8.3651370e+01
   1.1669280e+03   9.5352540e+01
   1.1674110e+03   1.0487400e+02
   1.1678930e+03   1.1081840e+02
   1.1683750e+03   1.1631250e+02
   1.1688570e+03   1.1832710e+02
   1.1693390e+03   1.1963480e+02
   1.1698210e+03   1.2341990e+02
   1.1703030e+03   1.2565620e+02
   1.1707850e+03   1.1230760e+02
   1.1712680e+03   8.7625980e+01
   1.1717500e+03   6.2748050e+01
   1.1722320e+03   3.4086910e+01
   1.1727140e+03   2.2897460e+01
   1.1731960e+03   5.5609380e+01
   1.1736780e+03   9.1824220e+01
   1.1741600e+03   1.0486820e+02
   1.1746420e+03   9.9461910e+01
   1.1751250e+03   1.1019820e+02
   1.1756070e+03   1.3328520e+02
   1.1760890e+03   1.4642870e+02
   1.1765710e+03   1.3174120e+02
   1.1770530e+03   1.1473930e+02
   1.1775350e+03   1.0556450e+02
   1.1780170e+03   9.8562500e+01
   1.1784990e+03   8.6628910e+01
   1.1789810e+03   7.2952150e+01
   1.1794640e+03   8.2434570e+01
   1.1799460e+03   1.1055660e+02
   1.1804280e+03   1.2251950e+02
   1.1809100e+03   6.9435550e+01
   1.1813920e+03   2.4245120e+01
   1.1818740e+03   4.2187500e+01
   1.1823560e+03   8.4522460e+01
   1.1828380e+03   8.9236330e+01
   1.1833200e+03   5.4657230e+01
   1.1838030e+03   2.9161130e+01
   1.1842850e+03   1.6609380e+01
   1.1847670e+03   1.3678710e+01
   1.1852490e+03   1.3375000e+01
   1.1857310e+03   2.3298830e+01
   1.1862130e+03   6.7028320e+01
   1.1866950e+03   1.2386820e+02
   1.1871770e+03   1.3017480e+02
   1.1876600e+03   8.1486330e+01
   1.1881420e+03   5.2211910e+01
   1.1886240e+03   5.5249020e+01
   1.1891060e+03   7.3671880e+01
   1.1895880e+03   1.0794340e+02
   1.1900700e+03   1.3665330e+02
   1.1905520e+03   1.3346680e+02
   1.1910340e+03   1.0555760e+02
   1.1915160e+03   1.1234960e+02
   1.1919990e+03   1.5964550e+02
   1.1924810e+03   1.8582710e+02
   1.1929630e+03   1.7359180e+02
   1.1934450e+03   1.4334380e+02
   1.1939270e+03   1.0047170e+02
   1.1944090e+03   5.9908200e+01
   1.1948910e+03   3.8937500e+01
   1.1953730e+03   3.8653320e+01
   1.1958550e+03   3.9344730e+01
   1.1963380e+03   4.1376950e+01
   1.1968200e+03   4.2795900e+01
   1.1973020e+03   4.1653320e+01
   1.1977840e+03   4.1890620e+01
   1.1982660e+03   5.2645510e+01
   1.1987480e+03   6.3791990e+01
   1.1992300e+03   5.9852540e+01
   1.1997120e+03   3.5647460e+01
   1.2001950e+03   2.0397460e+01
   1.2006770e+03   1.4393550e+01
   1.2011590e+03   1.7187500e+01
   1.2016410e+03   3.2253910e+01
   1.2021230e+03   5.1059570e+01
   1.2026050e+03   6.7069340e+01
   1.2030870e+03   7.8710940e+01
   1.2035690e+03   8.2216800e+01
   1.2040520e+03   6.9397460e+01
   1.2045340e+03   7.6905270e+01
   1.2050160e+03   1.0944920e+02
   1.2054980e+03   1.3514840e+02
   1.2059800e+03   1.3409860e+02
   1.2064620e+03   1.1270410e+02
   1.2069440e+03   5.5524410e+01
   1.2074260e+03   1.2468750e+01
   1.2079080e+03   2.6926760e+01
   1.2083910e+03   4.4500000e+01
   1.2088730e+03   8.5274410e+01
   1.2093550e+03   8.8033200e+01
   1.2098370e+03   7.5777340e+01
   1.2103190e+03   5.9875980e+01
   1.2108010e+03   4.6016600e+01
   1.2112830e+03   4.6744140e+01
   1.2117650e+03   5.5644530e+01
   1.2122470e+03   4.7290040e+01
   1.2127300e+03   8.6689450e+00
   1.2132120e+03   9.2070310e+00
   1.2136940e+03   1.0439450e+00
   1.2141760e+03   2.1589840e+01
   1.2146580e+03   3.8366210e+01
   1.2151400e+03   5.4173830e+01
   1.2156220e+03   7.2689450e+01
   1.2161040e+03   9.3479490e+01
   1.2165870e+03   1.1556540e+02
   1.2170690e+03   1.5044340e+02
   1.2175510e+03   1.3888770e+02
   1.2180330e+03   5.9099610e+01
   1.2185150e+03   1.6107420e+01
   1.2189970e+03   1.6691410e+01
   1.2194790e+03   8.3529300e+01
   1.2199610e+03   9.8416990e+01
   1.2204430e+03   5.7647460e+01
   1.2209260e+03   2.5243160e+01
   1.2214080e+03   1.0820310e+00
   1.2218900e+03   6.2822270e+00
   1.2223720e+03   6.8138670e+01
   1.2228540e+03   1.2381450e+02
   1.2233360e+03   8.1802730e+01
   1.2238180e+03   6.3642580e+00
   1.2243000e+03   3.1107420e+01
   1.2247820e+03   1.9805660e+01
   1.2252650e+03   5.4824220e+00
   1.2257470e+03   4.9500980e+01
   1.2262290e+03   8.3158200e+01
   1.2267110e+03   9.7182620e+01
   1.2271930e+03   9.8458980e+01
   1.2276750e+03   9.0906250e+01
   1.2281570e+03   7.6867190e+01
   1.2286390e+03   5.4048830e+01
   1.2291220e+03   2.0119140e+01
   1.2296040e+03   1.4908200e+01
   1.2300860e+03   4.3743160e+01
   1.2305680e+03   6.3582030e+01
   1.2310500e+03   5.1681640e+01
   1.2315320e+03   3.7493160e+01
   1.2320140e+03   5.9992190e+01
   1.2324960e+03   9.7179690e+01
   1.2329790e+03   1.2666700e+02
   1.2334610e+03   1.4912600e+02
   1.2339430e+03   1.3020310e+02
   1.2344250e+03   6.4008790e+01
   1.2349070e+03   1.8245120e+01
   1.2353890e+03   3.7666990e+01
   1.2358710e+03   7.0292970e+01
   1.2363530e+03   6.0542970e+01
   1.2368350e+03   3.5142580e+01
   1.2373180e+03   3.1990230e+01
   1.2378000e+03   5.7114260e+01
   1.2382820e+03   6.6697270e+01
   1.2387640e+03   6.0216800e+01
   1.2392460e+03   4.6265620e+01
   1.2397280e+03   2.1167970e+01
   1.2402100e+03   2.0156250e+00
   1.2406920e+03   1.4360350e+01
   1.2411750e+03   3.5469730e+01
   1.2416570e+03   3.0291990e+01
   1.2421390e+03   1.0433590e+01
   1.2426210e+03   1.3121090e+01
   1.2431030e+03   2.2651370e+01
   1.2435850e+03   5.3557620e+01
   1.2440670e+03   4.9918950e+01
   1.2445490e+03   3.6190430e+01
   1.2450310e+03   2.5933590e+01
   1.2455140e+03   1.7378910e+01
   1.2459960e+03   5.7597660e+00
   1.2464780e+03   1.0055660e+01
   1.2469600e+03   9.0000000e+00
   1.2474420e+03   8.4609380e+00
   1.2479240e+03   2.9454100e+01
   1.2484060e+03   5.7932620e+01
   1.2488880e+03   7.3553710e+01
   1.2493700e+03   5.2613280e+01
   1.2498530e+03   1.9381840e+01
   1.2503350e+03   3.8906250e+00
   1.2508170e+03   6.3701170e+00
   1.2512990e+03   2.2029300e+01
   1.2517810e+03   4.9152340e+01
   1.2522630e+03   6.9369140e+01
   1.2527450e+03   7.0999020e+01
   1.2532270e+03   6.3181640e+01
   1.2537100e+03   4.4395510e+01
   1.2541920e+03   2.2604490e+01
   1.2546740e+03   5.4033200e+00
   1.2551560e+03   5.7753910e+00
   1.2556380e+03   4.0722700e-01
   1.2561200e+03   2.2867190e+01
   1.2566020e+03   4.2939450e+01
   1.2570840e+03   4.4450200e+01
   1.2575670e+03   5.0293950e+01
   1.2580490e+03   7.0251950e+01
   1.2585310e+03   9.3954100e+01
   1.2590130e+03   8.8149410e+01
   1.2594950e+03   6.2469730e+01
   1.2599770e+03   5.3000000e+01
   1.2604590e+03   6.1190430e+01
   1.2609410e+03   7.1266600e+01
   1.2614230e+03   9.1409180e+01
   1.2619060e+03   9.2663090e+01
   1.2623880e+03   5.6966800e+01
   1.2628700e+03   1.9637700e+01
   1.2633520e+03   4.7228520e+01
   1.2638340e+03   1.0882320e+02
   1.2643160e+03   1.1620210e+02
   1.2647980e+03   6.6239260e+01
   1.2652800e+03   3.4389650e+01
   1.2657620e+03   5.3971680e+01
   1.2662450e+03   7.5269530e+01
   1.2667270e+03   1.0006840e+02
   1.2672090e+03   1.1548730e+02
   1.2676910e+03   8.3799800e+01
   1.2681730e+03   3.5321290e+01
   1.2686550e+03   2.7760740e+01
   1.2691370e+03   6.2686520e+01
   1.2696190e+03   7.1904300e+01
   1.2701020e+03   3.2964840e+01
   1.2705840e+03   9.5976560e+00
   1.2710660e+03   1.6209960e+01
   1.2715480e+03   3.8108400e+01
   1.2720300e+03   7.2400390e+01
   1.2725120e+03   1.0124710e+02
   1.2729940e+03   9.4330080e+01
   1.2734760e+03   5.3346680e+01
   1.2739580e+03   4.0025390e+01
   1.2744410e+03   6.2993160e+01
   1.2749230e+03   7.6603520e+01
   1.2754050e+03   6.5149410e+01
   1.2758870e+03   5.4973630e+01
   1.2763690e+03   7.5469730e+01
   1.2768510e+03   9.7167970e+01
   1.2773330e+03   8.1562500e+01
   1.2778150e+03   3.8386720e+01
   1.2782970e+03   3.4100590e+01
   1.2787800e+03   7.0191410e+01
   1.2792620e+03   7.8416020e+01
   1.2797440e+03   3.7845700e+01
   1.2802260e+03   4.5878910e+00
   1.2807080e+03   3.9549800e+01
   1.2811900e+03   8.3337890e+01
   1.2816720e+03   8.7062500e+01
   1.2821540e+03   6.5813480e+01
   1.2826370e+03   7.6012700e+01
   1.2831190e+03   1.1129790e+02
   1.2836010e+03   1.0651950e+02
   1.2840830e+03   3.9975590e+01
   1.2845650e+03   7.9648440e+00
   1.2850470e+03   3.8004880e+01
   1.2855290e+03   8.5371090e+01
   1.2860110e+03   8.7030270e+01
   1.2864940e+03   5.9070310e+01
   1.2869760e+03   4.2634770e+01
   1.2874580e+03   3.5841800e+01
   1.2879400e+03   3.0161130e+01
   1.2884220e+03   2.2161130e+01
   1.2889040e+03   3.0163090e+01
   1.2893860e+03   8.4188480e+01
   1.2898680e+03   1.2230180e+02
   1.2903500e+03   1.1714360e+02
   1.2908330e+03   9.4128910e+01
   1.2913150e+03   1.1136820e+02
   1.2917970e+03   1.4659380e+02
   1.2922790e+03   1.5340330e+02
   1.2927610e+03   1.1985450e+02
   1.2932430e+03   8.8175780e+01
   1.2937250e+03   5.9023440e+01
   1.2942070e+03   4.3341800e+01
   1.2946890e+03   4.5112300e+01
   1.2951720e+03   6.1783200e+01
   1.2956540e+03   1.1461230e+02
   1.2961360e+03   1.6625000e+02
   1.2966180e+03   1.5009470e+02
   1.2971000e+03   5.1441410e+01
   1.2975820e+03   3.2510740e+01
   1.2980640e+03   1.1059280e+02
   1.2985460e+03   1.5214450e+02
   1.2990290e+03   1.0273540e+02
   1.2995110e+03   4.4304690e+01
   1.2999930e+03   8.1616210e+01
   1.3004750e+03   1.3831350e+02
   1.3009570e+03   1.2872270e+02
   1.3014390e+03   6.4189450e+01
   1.3019210e+03   3.2491210e+01
   1.3024030e+03   3.2464840e+01
   1.3028850e+03   2.9370120e+01
   1.3033680e+03   1.1634770e+01
   1.3038500e+03   2.7441410e+00
   1.3043320e+03   4.8632800e-01
   1.3048140e+03   9.1074220e+00
   1.3052960e+03   1.8406250e+01
   1.3057780e+03   2.9469730e+01
   1.3062600e+03   4.6496090e+01
   1.3067420e+03   8.4032230e+01
   1.3072240e+03   7.6061520e+01
   1.3077070e+03   0.0000000e+00
   1.5000000e+03   0.0000000e+00
