   1.0000000e+02   0.0000000e+00
   1.6319870e+02   0.0000000e+00
   1.6368080e+02   1.8185550e+01
   1.6416300e+02   2.6076170e+01
   1.6464510e+02   3.9501950e+00
   1.6512720e+02   6.8666990e+00
   1.6560930e+02   7.6406250e+00
   1.6609140e+02   3.3005860e+01
   1.6657350e+02   5.6005860e+01
   1.6705570e+02   6.7917480e+01
   1.6753780e+02   8.1165530e+01
   1.6801990e+02   1.0591940e+02
   1.6850200e+02   1.4085740e+02
   1.6898410e+02   1.7505130e+02
   1.6946620e+02   1.9700150e+02
   1.6994840e+02   2.1472360e+02
   1.7043050e+02   2.3964010e+02
   1.7091260e+02   2.8344780e+02
   1.7139470e+02   3.3213180e+02
   1.7187680e+02   3.7197560e+02
   1.7235890e+02   4.0304540e+02
   1.7284110e+02   4.3021630e+02
   1.7332320e+02   4.5287010e+02
   1.7380530e+02   4.7452640e+02
   1.7428740e+02   5.0305180e+02
   1.7476950e+02   5.4538430e+02
   1.7525160e+02   5.9569140e+02
   1.7573380e+02   6.4686230e+02
   1.7621590e+02   6.9752250e+02
   1.7669800e+02   7.4844340e+02
   1.7718010e+02   8.0496730e+02
   1.7766220e+02   8.6466260e+02
   1.7814430e+02   9.1673580e+02
   1.7862640e+02   9.4551420e+02
   1.7910860e+02   9.6379980e+02
   1.7959070e+02   9.9911470e+02
   1.8007280e+02   1.0594610e+03
   1.8055490e+02   1.1292650e+03
   1.8103700e+02   1.1886910e+03
   1.8151910e+02   1.2386360e+03
   1.8200130e+02   1.2879290e+03
   1.8248340e+02   1.3413590e+03
   1.8296550e+02   1.3982310e+03
   1.8344760e+02   1.4598050e+03
   1.8392970e+02   1.5282390e+03
   1.8441180e+02   1.5991320e+03
   1.8489400e+02   1.6624830e+03
   1.8537610e+02   1.7197580e+03
   1.8585820e+02   1.7831510e+03
   1.8634030e+02   1.8517320e+03
   1.8682240e+02   1.9241790e+03
   1.8730460e+02   1.9915070e+03
   1.8778670e+02   2.0534100e+03
   1.8826880e+02   2.1020740e+03
   1.8875090e+02   2.1328450e+03
   1.8923300e+02   2.1498880e+03
   1.8971510e+02   2.1533640e+03
   1.9019730e+02   2.1434290e+03
   1.9067940e+02   2.1200310e+03
   1.9116150e+02   2.0835930e+03
   1.9164360e+02   2.0349350e+03
   1.9212570e+02   1.9733050e+03
   1.9260780e+02   1.8934790e+03
   1.9309000e+02   1.7923960e+03
   1.9357210e+02   1.6787310e+03
   1.9405420e+02   1.5583310e+03
   1.9453630e+02   1.4307200e+03
   1.9501840e+02   1.3135230e+03
   1.9550050e+02   1.2220820e+03
   1.9598260e+02   1.1558930e+03
   1.9646480e+02   1.0760830e+03
   1.9694690e+02   9.7762550e+02
   1.9742900e+02   8.7330030e+02
   1.9791110e+02   7.8688920e+02
   1.9839320e+02   7.2565280e+02
   1.9887530e+02   6.8141890e+02
   1.9935750e+02   6.3495750e+02
   1.9983960e+02   5.8479100e+02
   2.0032170e+02   5.3843600e+02
   2.0080380e+02   5.0168550e+02
   2.0128590e+02   4.7364650e+02
   2.0176800e+02   4.3356590e+02
   2.0225020e+02   3.8150340e+02
   2.0273230e+02   3.2903910e+02
   2.0321440e+02   2.8212940e+02
   2.0369650e+02   2.4082080e+02
   2.0417860e+02   2.0520460e+02
   2.0466070e+02   1.7733740e+02
   2.0514290e+02   1.5510600e+02
   2.0562500e+02   1.2880860e+02
   2.0610710e+02   9.7157710e+01
   2.0658920e+02   6.5038090e+01
   2.0707130e+02   3.4599120e+01
   2.0755340e+02   3.8364260e+00
   2.0803560e+02   1.6364260e+01
   2.0851770e+02   2.1427250e+01
   2.0899980e+02   1.2884770e+01
   2.0948190e+02   7.0742190e+00
   2.0996400e+02   4.0346680e+00
   2.1044610e+02   3.6508790e+00
   2.1092820e+02   7.2241210e+00
   2.1141040e+02   1.7337890e+01
   2.1189250e+02   2.3446780e+01
   2.1237460e+02   2.3508300e+01
   2.1285670e+02   1.7520510e+01
   2.1333880e+02   5.3388670e+00
   2.1382090e+02   1.3144530e+01
   2.1430310e+02   3.7804200e+01
   2.1478520e+02   6.8302730e+01
   2.1526730e+02   1.0340920e+02
   2.1574940e+02   1.4689650e+02
   2.1623150e+02   2.0514750e+02
   2.1671360e+02   2.8315230e+02
   2.1719580e+02   3.3830620e+02
   2.1767790e+02   3.6474610e+02
   2.1816000e+02   3.7401660e+02
   2.1864210e+02   3.8247170e+02
   2.1912420e+02   3.8642720e+02
   2.1960630e+02   3.9724560e+02
   2.2008850e+02   4.2357470e+02
   2.2057060e+02   4.7535940e+02
   2.2105270e+02   5.0463570e+02
   2.2153480e+02   5.1285300e+02
   2.2201690e+02   4.9825200e+02
   2.2249900e+02   4.5308110e+02
   2.2298120e+02   3.6023100e+02
   2.2346330e+02   2.6667090e+02
   2.2394540e+02   1.9075050e+02
   2.2442750e+02   1.3402830e+02
   2.2490960e+02   8.9237300e+01
   2.2539170e+02   5.4888670e+01
   2.2587390e+02   3.2385250e+01
   2.2635600e+02   2.7785640e+01
   2.2683810e+02   5.4725100e+01
   2.2732020e+02   7.9005860e+01
   2.2780230e+02   8.2683110e+01
   2.2828440e+02   5.1770510e+01
   2.2876650e+02   3.1464360e+01
   2.2924870e+02   2.7407710e+01
   2.2973080e+02   3.5108400e+01
   2.3021290e+02   3.8263180e+01
   2.3069500e+02   3.4811520e+01
   2.3117710e+02   2.9442870e+01
   2.3165920e+02   2.6046880e+01
   2.3214140e+02   3.1772460e+01
   2.3262350e+02   2.3617680e+01
   2.3310560e+02   7.2548830e+00
   2.3358770e+02   5.5157710e+01
   2.3406980e+02   8.5740230e+01
   2.3455190e+02   9.2517090e+01
   2.3503410e+02   8.9958500e+01
   2.3551620e+02   8.7219240e+01
   2.3599830e+02   8.6656740e+01
   2.3648040e+02   8.1005370e+01
   2.3696250e+02   6.6179200e+01
   2.3744460e+02   4.4044920e+01
   2.3792680e+02   3.1493160e+01
   2.3840890e+02   3.4995120e+01
   2.3889100e+02   4.0740230e+01
   2.3937310e+02   3.7846190e+01
   2.3985520e+02   2.0806640e+01
   2.4033730e+02   5.5332030e+00
   2.4081950e+02   5.3452150e+00
   2.4130160e+02   1.1907230e+01
   2.4178370e+02   1.8777340e+01
   2.4226580e+02   2.2069820e+01
   2.4274790e+02   2.9759280e+01
   2.4323000e+02   5.0758300e+01
   2.4371220e+02   9.7840330e+01
   2.4419430e+02   1.3382710e+02
   2.4467640e+02   1.4935300e+02
   2.4515850e+02   1.4395700e+02
   2.4564060e+02   1.4439450e+02
   2.4612270e+02   1.5408740e+02
   2.4660480e+02   1.6627340e+02
   2.4708700e+02   1.7387400e+02
   2.4756910e+02   1.7256150e+02
   2.4805120e+02   1.7455620e+02
   2.4853330e+02   1.8070650e+02
   2.4901540e+02   1.9061620e+02
   2.4949750e+02   2.1318900e+02
   2.4997970e+02   2.5547560e+02
   2.5046180e+02   3.0374850e+02
   2.5094390e+02   3.4317720e+02
   2.5142600e+02   3.7096530e+02
   2.5190810e+02   3.9497950e+02
   2.5239020e+02   4.1386470e+02
   2.5287240e+02   4.2583500e+02
   2.5335450e+02   4.5383540e+02
   2.5383660e+02   5.0464940e+02
   2.5431870e+02   5.6458300e+02
   2.5480080e+02   6.1768850e+02
   2.5528290e+02   6.6318550e+02
   2.5576510e+02   7.0360160e+02
   2.5624720e+02   7.3997900e+02
   2.5672930e+02   7.7260160e+02
   2.5721140e+02   7.9895510e+02
   2.5769350e+02   8.1628470e+02
   2.5817560e+02   8.3008200e+02
   2.5865770e+02   8.4969380e+02
   2.5913990e+02   8.8462400e+02
   2.5962200e+02   9.0483540e+02
   2.6010410e+02   9.0253320e+02
   2.6058620e+02   8.7686080e+02
   2.6106830e+02   8.3080180e+02
   2.6155040e+02   7.5376610e+02
   2.6203260e+02   6.6769240e+02
   2.6251470e+02   6.0355080e+02
   2.6299680e+02   5.7017920e+02
   2.6347890e+02   5.3789840e+02
   2.6396100e+02   4.9750540e+02
   2.6444310e+02   4.4727340e+02
   2.6492530e+02   3.9903120e+02
   2.6540740e+02   3.4979980e+02
   2.6588950e+02   3.0451030e+02
   2.6637160e+02   2.7327980e+02
   2.6685370e+02   2.6110790e+02
   2.6733580e+02   2.5212990e+02
   2.6781800e+02   2.4068310e+02
   2.6830010e+02   2.2599170e+02
   2.6878220e+02   2.1378520e+02
   2.6926430e+02   2.0178810e+02
   2.6974640e+02   1.9458350e+02
   2.7022850e+02   2.0002590e+02
   2.7071070e+02   2.2047310e+02
   2.7119280e+02   2.4720120e+02
   2.7167490e+02   2.7674120e+02
   2.7215700e+02   3.0864260e+02
   2.7263910e+02   3.4634570e+02
   2.7312120e+02   3.9214260e+02
   2.7360340e+02   4.4039500e+02
   2.7408550e+02   4.8240140e+02
   2.7456760e+02   5.1746970e+02
   2.7504970e+02   5.4949800e+02
   2.7553180e+02   5.7802100e+02
   2.7601390e+02   6.0293260e+02
   2.7649610e+02   6.3472310e+02
   2.7697820e+02   6.7593950e+02
   2.7746030e+02   7.1978030e+02
   2.7794240e+02   7.5205960e+02
   2.7842450e+02   7.7060300e+02
   2.7890660e+02   7.9556350e+02
   2.7938880e+02   8.3954200e+02
   2.7987090e+02   9.0277390e+02
   2.8035300e+02   9.5228470e+02
   2.8083510e+02   9.8526560e+02
   2.8131720e+02   1.0107490e+03
   2.8179930e+02   1.0426500e+03
   2.8228150e+02   1.0817120e+03
   2.8276360e+02   1.1174400e+03
   2.8324570e+02   1.1454190e+03
   2.8372780e+02   1.1659330e+03
   2.8420990e+02   1.1843660e+03
   2.8469200e+02   1.2025500e+03
   2.8517410e+02   1.2135990e+03
   2.8565630e+02   1.2039800e+03
   2.8613840e+02   1.1738730e+03
   2.8662050e+02   1.1422610e+03
   2.8710260e+02   1.1224620e+03
   2.8758470e+02   1.1101040e+03
   2.8806680e+02   1.0738680e+03
   2.8854900e+02   1.0082610e+03
   2.8903110e+02   9.3878420e+02
   2.8951320e+02   8.9913960e+02
   2.8999530e+02   8.8813130e+02
   2.9047740e+02   8.8730180e+02
   2.9095950e+02   8.9515970e+02
   2.9144170e+02   9.0529490e+02
   2.9192380e+02   8.9881490e+02
   2.9240590e+02   8.7349460e+02
   2.9288800e+02   8.5138570e+02
   2.9337010e+02   8.5832130e+02
   2.9385220e+02   8.9165820e+02
   2.9433440e+02   9.3754540e+02
   2.9481650e+02   9.9789650e+02
   2.9529860e+02   1.0672710e+03
   2.9578070e+02   1.1259250e+03
   2.9626280e+02   1.1712930e+03
   2.9674490e+02   1.2207470e+03
   2.9722710e+02   1.2941430e+03
   2.9770920e+02   1.3879230e+03
   2.9819130e+02   1.4900150e+03
   2.9867340e+02   1.5923830e+03
   2.9915550e+02   1.6994630e+03
   2.9963760e+02   1.8192860e+03
   3.0011980e+02   1.9531440e+03
   3.0060190e+02   2.0895600e+03
   3.0108400e+02   2.2058230e+03
   3.0156610e+02   2.3146180e+03
   3.0204820e+02   2.4447710e+03
   3.0253030e+02   2.6187570e+03
   3.0301250e+02   2.8160330e+03
   3.0349460e+02   3.0187800e+03
   3.0397670e+02   3.2252170e+03
   3.0445880e+02   3.4319390e+03
   3.0494090e+02   3.6309850e+03
   3.0542300e+02   3.8240850e+03
   3.0590520e+02   4.0211840e+03
   3.0638730e+02   4.2311950e+03
   3.0686940e+02   4.4423110e+03
   3.0735150e+02   4.6449510e+03
   3.0783360e+02   4.8377740e+03
   3.0831570e+02   5.0128330e+03
   3.0879790e+02   5.1761580e+03
   3.0928000e+02   5.3142010e+03
   3.0976210e+02   5.4083280e+03
   3.1024420e+02   5.4522000e+03
   3.1072630e+02   5.4494680e+03
   3.1120840e+02   5.4048070e+03
   3.1169060e+02   5.3175200e+03
   3.1217270e+02   5.1807430e+03
   3.1265480e+02   4.9805910e+03
   3.1313690e+02   4.7300290e+03
   3.1361900e+02   4.4482730e+03
   3.1410110e+02   4.1087970e+03
   3.1458330e+02   3.7661040e+03
   3.1506540e+02   3.4359660e+03
   3.1554750e+02   3.1179500e+03
   3.1602960e+02   2.8307380e+03
   3.1651170e+02   2.5851220e+03
   3.1699380e+02   2.3724370e+03
   3.1747600e+02   2.1844380e+03
   3.1795800e+02   2.0338920e+03
   3.1844020e+02   1.8960690e+03
   3.1892230e+02   1.7602930e+03
   3.1940440e+02   1.6294040e+03
   3.1988650e+02   1.5246870e+03
   3.2036860e+02   1.4662400e+03
   3.2085070e+02   1.4251330e+03
   3.2133290e+02   1.3824790e+03
   3.2181500e+02   1.3216030e+03
   3.2229710e+02   1.2754350e+03
   3.2277920e+02   1.2612210e+03
   3.2326130e+02   1.2698430e+03
   3.2374340e+02   1.2651420e+03
   3.2422560e+02   1.2210950e+03
   3.2470770e+02   1.1788450e+03
   3.2518980e+02   1.1577780e+03
   3.2567190e+02   1.1658930e+03
   3.2615400e+02   1.1867840e+03
   3.2663610e+02   1.2291970e+03
   3.2711830e+02   1.2853630e+03
   3.2760040e+02   1.3309820e+03
   3.2808250e+02   1.3481690e+03
   3.2856460e+02   1.3705770e+03
   3.2904670e+02   1.4114480e+03
   3.2952880e+02   1.4848300e+03
   3.3001100e+02   1.5513220e+03
   3.3049310e+02   1.6074260e+03
   3.3097520e+02   1.6579710e+03
   3.3145730e+02   1.7117990e+03
   3.3193940e+02   1.7650690e+03
   3.3242150e+02   1.8275560e+03
   3.3290370e+02   1.9062830e+03
   3.3338580e+02   2.0103180e+03
   3.3386790e+02   2.0974830e+03
   3.3435000e+02   2.1579220e+03
   3.3483210e+02   2.2092030e+03
   3.3531420e+02   2.2843540e+03
   3.3579640e+02   2.3969930e+03
   3.3627850e+02   2.5027010e+03
   3.3676060e+02   2.5852790e+03
   3.3724270e+02   2.6420610e+03
   3.3772480e+02   2.7024770e+03
   3.3820690e+02   2.7635250e+03
   3.3868910e+02   2.8324790e+03
   3.3917120e+02   2.9244390e+03
   3.3965330e+02   3.0434390e+03
   3.4013540e+02   3.1595250e+03
   3.4061750e+02   3.2636500e+03
   3.4109960e+02   3.3568530e+03
   3.4158180e+02   3.4393960e+03
   3.4206390e+02   3.5103930e+03
   3.4254600e+02   3.5734520e+03
   3.4302810e+02   3.6407850e+03
   3.4351020e+02   3.7113020e+03
   3.4399230e+02   3.7529930e+03
   3.4447450e+02   3.7582100e+03
   3.4495660e+02   3.7272670e+03
   3.4543870e+02   3.6582060e+03
   3.4592080e+02   3.5515800e+03
   3.4640290e+02   3.4145030e+03
   3.4688500e+02   3.2494330e+03
   3.4736720e+02   3.0580600e+03
   3.4784930e+02   2.8527580e+03
   3.4833140e+02   2.6309180e+03
   3.4881350e+02   2.4024570e+03
   3.4929560e+02   2.1873150e+03
   3.4977770e+02   1.9867590e+03
   3.5025990e+02   1.7949430e+03
   3.5074190e+02   1.5933500e+03
   3.5122410e+02   1.3981860e+03
   3.5170620e+02   1.2442840e+03
   3.5218830e+02   1.1510420e+03
   3.5267040e+02   1.0775580e+03
   3.5315250e+02   9.7847270e+02
   3.5363460e+02   8.6101610e+02
   3.5411680e+02   7.4929740e+02
   3.5459890e+02   6.5583890e+02
   3.5508100e+02   5.7653420e+02
   3.5556310e+02   5.1001120e+02
   3.5604520e+02   4.5871090e+02
   3.5652730e+02   4.1150680e+02
   3.5700950e+02   3.5747310e+02
   3.5749160e+02   3.0131300e+02
   3.5797370e+02   2.5393160e+02
   3.5845580e+02   2.2402490e+02
   3.5893790e+02   2.0150200e+02
   3.5942000e+02   1.8232620e+02
   3.5990220e+02   1.6789060e+02
   3.6038430e+02   1.4655910e+02
   3.6086640e+02   9.9903320e+01
   3.6134850e+02   4.6304690e+01
   3.6183060e+02   1.1504390e+01
   3.6231270e+02   2.1654790e+01
   3.6279490e+02   3.5199220e+01
   3.6327700e+02   3.4428710e+01
   3.6375910e+02   1.6753910e+01
   3.6424120e+02   4.0844730e+00
   3.6472330e+02   7.1713870e+00
   3.6520540e+02   1.4781740e+01
   3.6568760e+02   1.6541500e+01
   3.6616970e+02   4.7749020e+00
   3.6665180e+02   6.2661130e+00
   3.6713390e+02   1.2104980e+01
   3.6761600e+02   1.2911130e+01
   3.6809810e+02   1.9327640e+01
   3.6858030e+02   4.1439450e+01
   3.6906240e+02   6.2162600e+01
   3.6954450e+02   7.0470210e+01
   3.7002660e+02   5.5936040e+01
   3.7050870e+02   4.5304200e+01
   3.7099080e+02   4.2798830e+01
   3.7147300e+02   4.5936040e+01
   3.7195510e+02   4.2747070e+01
   3.7243720e+02   2.7063960e+01
   3.7291930e+02   1.4010250e+01
   3.7340140e+02   1.3599610e+01
   3.7388350e+02   3.2725100e+01
   3.7436570e+02   4.0622560e+01
   3.7484780e+02   2.9743160e+01
   3.7532990e+02   1.2411130e+01
   3.7581200e+02   1.8813960e+01
   3.7629410e+02   5.5840330e+01
   3.7677620e+02   9.0243650e+01
   3.7725840e+02   1.0776660e+02
   3.7774050e+02   1.0817140e+02
   3.7822260e+02   9.9340820e+01
   3.7870470e+02   7.9000490e+01
   3.7918680e+02   5.4884280e+01
   3.7966890e+02   3.7810550e+01
   3.8015110e+02   2.7753910e+01
   3.8063320e+02   1.5856930e+01
   3.8111530e+02   4.0727540e+00
   3.8159740e+02   2.8265620e+01
   3.8207950e+02   3.9056150e+01
   3.8256160e+02   3.5605470e+01
   3.8304380e+02   3.3439940e+01
   3.8352590e+02   5.2905760e+01
   3.8400800e+02   8.6884280e+01
   3.8449010e+02   1.1288960e+02
   3.8497220e+02   1.2273930e+02
   3.8545430e+02   1.2335600e+02
   3.8593640e+02   1.1932030e+02
   3.8641850e+02   1.1223540e+02
   3.8690070e+02   1.1418900e+02
   3.8738280e+02   1.4129790e+02
   3.8786490e+02   1.8019090e+02
   3.8834700e+02   2.1164790e+02
   3.8882910e+02   2.2638770e+02
   3.8931120e+02   2.4306490e+02
   3.8979340e+02   2.7751860e+02
   3.9027550e+02   3.2520750e+02
   3.9075760e+02   3.7356640e+02
   3.9123970e+02   4.1940720e+02
   3.9172180e+02   4.6242330e+02
   3.9220390e+02   5.0172170e+02
   3.9268610e+02   5.3590870e+02
   3.9316820e+02   5.7106300e+02
   3.9365030e+02   6.1533450e+02
   3.9413240e+02   6.6081690e+02
   3.9461450e+02   6.9605030e+02
   3.9509660e+02   7.1025490e+02
   3.9557880e+02   7.2072510e+02
   3.9606090e+02   7.3345410e+02
   3.9654300e+02   7.4931540e+02
   3.9702510e+02   7.6284470e+02
   3.9750720e+02   7.8156400e+02
   3.9798930e+02   7.9345950e+02
   3.9847150e+02   7.8786130e+02
   3.9895360e+02   7.3680960e+02
   3.9943570e+02   7.0225590e+02
   3.9991780e+02   6.9783010e+02
   4.0039990e+02   7.1954790e+02
   4.0088200e+02   7.2917530e+02
   4.0136420e+02   7.0852150e+02
   4.0184630e+02   6.9834280e+02
   4.0232840e+02   7.2563820e+02
   4.0281050e+02   8.0696290e+02
   4.0329260e+02   8.7937840e+02
   4.0377470e+02   9.3344630e+02
   4.0425690e+02   9.7582080e+02
   4.0473900e+02   1.0252840e+03
   4.0522110e+02   1.0843010e+03
   4.0570320e+02   1.1494940e+03
   4.0618530e+02   1.2230190e+03
   4.0666740e+02   1.3051900e+03
   4.0714960e+02   1.3753640e+03
   4.0763170e+02   1.4311960e+03
   4.0811380e+02   1.4814190e+03
   4.0859590e+02   1.5439040e+03
   4.0907800e+02   1.6171100e+03
   4.0956020e+02   1.6754300e+03
   4.1004230e+02   1.7053400e+03
   4.1052440e+02   1.7139840e+03
   4.1100650e+02   1.7116690e+03
   4.1148860e+02   1.6979640e+03
   4.1197070e+02   1.6915260e+03
   4.1245290e+02   1.7189610e+03
   4.1293500e+02   1.7661390e+03
   4.1341710e+02   1.7983790e+03
   4.1389920e+02   1.8023140e+03
   4.1438130e+02   1.7951540e+03
   4.1486340e+02   1.7903870e+03
   4.1534560e+02   1.7889680e+03
   4.1582770e+02   1.7947110e+03
   4.1630980e+02   1.8154970e+03
   4.1679190e+02   1.8415770e+03
   4.1727400e+02   1.8652330e+03
   4.1775610e+02   1.8855720e+03
   4.1823820e+02   1.9003260e+03
   4.1872030e+02   1.9140940e+03
   4.1920250e+02   1.9205080e+03
   4.1968460e+02   1.9078760e+03
   4.2016670e+02   1.8533070e+03
   4.2064880e+02   1.7969820e+03
   4.2113090e+02   1.7592020e+03
   4.2161300e+02   1.7451290e+03
   4.2209520e+02   1.7188890e+03
   4.2257730e+02   1.6577700e+03
   4.2305940e+02   1.5907310e+03
   4.2354150e+02   1.5426240e+03
   4.2402360e+02   1.5196950e+03
   4.2450570e+02   1.5110370e+03
   4.2498790e+02   1.5294560e+03
   4.2547000e+02   1.5679180e+03
   4.2595210e+02   1.5721110e+03
   4.2643420e+02   1.5050880e+03
   4.2691630e+02   1.4458000e+03
   4.2739840e+02   1.4455040e+03
   4.2788060e+02   1.5415410e+03
   4.2836270e+02   1.5950100e+03
   4.2884480e+02   1.5825310e+03
   4.2932690e+02   1.5392570e+03
   4.2980900e+02   1.5409750e+03
   4.3029110e+02   1.5965030e+03
   4.3077330e+02   1.6614720e+03
   4.3125540e+02   1.7241940e+03
   4.3173750e+02   1.7817920e+03
   4.3221960e+02   1.8123950e+03
   4.3270170e+02   1.8141370e+03
   4.3318380e+02   1.8016430e+03
   4.3366600e+02   1.7881960e+03
   4.3414810e+02   1.7710880e+03
   4.3463020e+02   1.7447380e+03
   4.3511230e+02   1.7021760e+03
   4.3559440e+02   1.6569300e+03
   4.3607650e+02   1.6411090e+03
   4.3655870e+02   1.6513440e+03
   4.3704080e+02   1.6496070e+03
   4.3752290e+02   1.5987590e+03
   4.3800500e+02   1.5207530e+03
   4.3848710e+02   1.4470540e+03
   4.3896920e+02   1.3849240e+03
   4.3945140e+02   1.3255950e+03
   4.3993350e+02   1.2585530e+03
   4.4041560e+02   1.1887120e+03
   4.4089770e+02   1.1265740e+03
   4.4137980e+02   1.0850760e+03
   4.4186190e+02   1.0471570e+03
   4.4234410e+02   1.0049010e+03
   4.4282620e+02   9.5797850e+02
   4.4330830e+02   9.0307470e+02
   4.4379040e+02   8.3094920e+02
   4.4427250e+02   7.5443410e+02
   4.4475460e+02   6.8567380e+02
   4.4523680e+02   6.1695120e+02
   4.4571890e+02   5.6769340e+02
   4.4620100e+02   5.5421480e+02
   4.4668310e+02   5.7040720e+02
   4.4716520e+02   5.6767380e+02
   4.4764730e+02   5.3161130e+02
   4.4812950e+02   4.9073970e+02
   4.4861160e+02   4.5771240e+02
   4.4909370e+02   4.2824070e+02
   4.4957580e+02   4.1763330e+02
   4.5005790e+02   4.3474560e+02
   4.5054000e+02   4.6382230e+02
   4.5102210e+02   4.7405520e+02
   4.5150420e+02   4.6022410e+02
   4.5198640e+02   4.4702730e+02
   4.5246850e+02   4.4478960e+02
   4.5295060e+02   4.5206450e+02
   4.5343270e+02   4.4885160e+02
   4.5391480e+02   4.3222460e+02
   4.5439690e+02   4.2012010e+02
   4.5487910e+02   4.4612110e+02
   4.5536120e+02   4.9944970e+02
   4.5584330e+02   5.1567190e+02
   4.5632540e+02   4.7393900e+02
   4.5680750e+02   3.9452730e+02
   4.5728960e+02   2.9994040e+02
   4.5777180e+02   1.9290720e+02
   4.5825390e+02   9.5045900e+01
   4.5873600e+02   1.5659180e+01
   4.5921810e+02   4.6061040e+01
   4.5970020e+02   9.3149410e+01
   4.6018230e+02   1.2777690e+02
   4.6066450e+02   1.4045360e+02
   4.6114660e+02   1.0394820e+02
   4.6162870e+02   4.5439940e+01
   4.6211080e+02   6.0786130e+00
   4.6259290e+02   2.9945310e+01
   4.6307500e+02   4.9857420e+01
   4.6355720e+02   3.3933590e+01
   4.6403930e+02   1.7477540e+01
   4.6452140e+02   7.7706540e+01
   4.6500350e+02   1.4558200e+02
   4.6548560e+02   2.1555620e+02
   4.6596770e+02   2.8324660e+02
   4.6644990e+02   3.4129050e+02
   4.6693200e+02   4.0592290e+02
   4.6741410e+02   4.8166460e+02
   4.6789620e+02   5.6393800e+02
   4.6837830e+02   6.4250290e+02
   4.6886040e+02   7.1250980e+02
   4.6934260e+02   7.8628710e+02
   4.6982470e+02   8.6840190e+02
   4.7030680e+02   9.5839990e+02
   4.7078890e+02   1.0594200e+03
   4.7127100e+02   1.1745750e+03
   4.7175310e+02   1.2945830e+03
   4.7223530e+02   1.4064280e+03
   4.7271740e+02   1.5095130e+03
   4.7319950e+02   1.6247470e+03
   4.7368160e+02   1.7563730e+03
   4.7416370e+02   1.9041010e+03
   4.7464580e+02   2.0704830e+03
   4.7512800e+02   2.2545970e+03
   4.7561010e+02   2.4351050e+03
   4.7609220e+02   2.5891760e+03
   4.7657430e+02   2.7313610e+03
   4.7705640e+02   2.8914210e+03
   4.7753850e+02   3.0755570e+03
   4.7802070e+02   3.2676700e+03
   4.7850280e+02   3.4501260e+03
   4.7898490e+02   3.6322490e+03
   4.7946700e+02   3.8309180e+03
   4.7994910e+02   4.0484970e+03
   4.8043120e+02   4.2897660e+03
   4.8091340e+02   4.5632890e+03
   4.8139550e+02   4.8666920e+03
   4.8187760e+02   5.1727450e+03
   4.8235970e+02   5.4507900e+03
   4.8284180e+02   5.7368500e+03
   4.8332390e+02   6.0552050e+03
   4.8380600e+02   6.4258670e+03
   4.8428810e+02   6.8061990e+03
   4.8477030e+02   7.2061030e+03
   4.8525240e+02   7.6062630e+03
   4.8573450e+02   7.9619670e+03
   4.8621660e+02   8.2361840e+03
   4.8669870e+02   8.5105590e+03
   4.8718080e+02   8.8166040e+03
   4.8766300e+02   9.1593920e+03
   4.8814510e+02   9.4635600e+03
   4.8862720e+02   9.7330340e+03
   4.8910930e+02   9.9522680e+03
   4.8959140e+02   1.0116330e+04
   4.9007350e+02   1.0226460e+04
   4.9055570e+02   1.0251630e+04
   4.9103780e+02   1.0194530e+04
   4.9151990e+02   1.0047420e+04
   4.9200200e+02   9.7764670e+03
   4.9248410e+02   9.3818720e+03
   4.9296620e+02   8.9071120e+03
   4.9344840e+02   8.3538430e+03
   4.9393050e+02   7.7417690e+03
   4.9441260e+02   7.1166160e+03
   4.9489470e+02   6.4728770e+03
   4.9537680e+02   5.8526420e+03
   4.9585890e+02   5.2687940e+03
   4.9634110e+02   4.7307500e+03
   4.9682320e+02   4.2507620e+03
   4.9730530e+02   3.8543860e+03
   4.9778740e+02   3.4922700e+03
   4.9826950e+02   3.1344340e+03
   4.9875160e+02   2.7891270e+03
   4.9923380e+02   2.4765120e+03
   4.9971590e+02   2.2080340e+03
   5.0019800e+02   1.9741970e+03
   5.0068010e+02   1.7796860e+03
   5.0116220e+02   1.6335680e+03
   5.0164430e+02   1.4936280e+03
   5.0212650e+02   1.3469540e+03
   5.0260860e+02   1.2085330e+03
   5.0309070e+02   1.0953670e+03
   5.0357280e+02   1.0186520e+03
   5.0405490e+02   9.4817530e+02
   5.0453700e+02   8.7741460e+02
   5.0501920e+02   8.0881300e+02
   5.0550130e+02   7.5996880e+02
   5.0598340e+02   7.3918850e+02
   5.0646550e+02   7.1680030e+02
   5.0694760e+02   6.6794580e+02
   5.0742970e+02   5.9057420e+02
   5.0791190e+02   5.4618550e+02
   5.0839400e+02   5.4249120e+02
   5.0887610e+02   5.5551420e+02
   5.0935820e+02   5.5528660e+02
   5.0984030e+02   5.4375000e+02
   5.1032240e+02   5.3058740e+02
   5.1080460e+02   5.1256840e+02
   5.1128670e+02   5.0009810e+02
   5.1176880e+02   5.1427930e+02
   5.1225090e+02   5.5158300e+02
   5.1273300e+02   5.8855620e+02
   5.1321510e+02   6.1007860e+02
   5.1369730e+02   6.2349560e+02
   5.1417940e+02   6.3386620e+02
   5.1466150e+02   6.3878810e+02
   5.1514360e+02   6.5185550e+02
   5.1562570e+02   6.7777590e+02
   5.1610780e+02   7.1665040e+02
   5.1659000e+02   7.6754000e+02
   5.1707210e+02   8.4943950e+02
   5.1755420e+02   9.2137350e+02
   5.1803630e+02   9.6514600e+02
   5.1851840e+02   9.8313620e+02
   5.1900050e+02   1.0227900e+03
   5.1948270e+02   1.1052780e+03
   5.1996480e+02   1.1878700e+03
   5.2044690e+02   1.2426140e+03
   5.2092900e+02   1.2533330e+03
   5.2141110e+02   1.2886510e+03
   5.2189320e+02   1.3568960e+03
   5.2237540e+02   1.4402780e+03
   5.2285750e+02   1.5122580e+03
   5.2333960e+02   1.5727940e+03
   5.2382170e+02   1.6268820e+03
   5.2430380e+02   1.6758360e+03
   5.2478590e+02   1.7193110e+03
   5.2526810e+02   1.7609790e+03
   5.2575020e+02   1.8007920e+03
   5.2623230e+02   1.8312540e+03
   5.2671440e+02   1.8539720e+03
   5.2719650e+02   1.8623280e+03
   5.2767860e+02   1.8425290e+03
   5.2816080e+02   1.7903560e+03
   5.2864290e+02   1.7202790e+03
   5.2912500e+02   1.6369400e+03
   5.2960710e+02   1.5449230e+03
   5.3008920e+02   1.4533510e+03
   5.3057140e+02   1.3640470e+03
   5.3105350e+02   1.2760830e+03
   5.3153560e+02   1.1855330e+03
   5.3201760e+02   1.0940650e+03
   5.3249980e+02   1.0163960e+03
   5.3298190e+02   9.6856930e+02
   5.3346400e+02   9.2468360e+02
   5.3394610e+02   8.7052730e+02
   5.3442820e+02   8.0258500e+02
   5.3491030e+02   7.3243550e+02
   5.3539250e+02   6.5601070e+02
   5.3587460e+02   5.7975490e+02
   5.3635670e+02   5.1310740e+02
   5.3683880e+02   4.5926560e+02
   5.3732090e+02   4.0350780e+02
   5.3780300e+02   3.3972950e+02
   5.3828520e+02   2.7288670e+02
   5.3876730e+02   2.2256050e+02
   5.3924940e+02   1.8984570e+02
   5.3973150e+02   1.6204880e+02
   5.4021360e+02   1.3056640e+02
   5.4069570e+02   9.7272460e+01
   5.4117790e+02   6.8398440e+01
   5.4166000e+02   4.5150390e+01
   5.4214210e+02   2.2143550e+01
   5.4262420e+02   1.2274410e+01
   5.4310630e+02   4.8923830e+01
   5.4358840e+02   7.1486330e+01
   5.4407060e+02   6.1407710e+01
   5.4455270e+02   4.7742190e+01
   5.4503480e+02   4.8416020e+01
   5.4551690e+02   6.0205570e+01
   5.4599900e+02   7.0673830e+01
   5.4648110e+02   8.1268070e+01
   5.4696330e+02   8.4959470e+01
   5.4744540e+02   7.3509770e+01
   5.4792750e+02   3.5245120e+01
   5.4840960e+02   2.0802730e+01
   5.4889170e+02   5.4907710e+01
   5.4937380e+02   9.5962890e+01
   5.4985600e+02   1.0266750e+02
   5.5033810e+02   5.9046880e+01
   5.5082020e+02   2.0234380e+01
   5.5130230e+02   5.8701170e+00
   5.5178440e+02   2.1560550e+01
   5.5226650e+02   2.9915040e+01
   5.5274870e+02   2.9189450e+01
   5.5323080e+02   3.9984380e+01
   5.5371290e+02   8.1279300e+01
   5.5419500e+02   1.4330470e+02
   5.5467710e+02   1.8841410e+02
   5.5515920e+02   2.1608790e+02
   5.5564140e+02   2.3815820e+02
   5.5612350e+02   2.5537110e+02
   5.5660560e+02   2.7652830e+02
   5.5708770e+02   3.1821880e+02
   5.5756980e+02   3.9311620e+02
   5.5805190e+02   4.7220020e+02
   5.5853410e+02   5.3408010e+02
   5.5901620e+02   5.8608980e+02
   5.5949830e+02   6.4170610e+02
   5.5998040e+02   7.0798440e+02
   5.6046250e+02   7.7780080e+02
   5.6094460e+02   8.4690620e+02
   5.6142680e+02   9.1408500e+02
   5.6190890e+02   9.9151270e+02
   5.6239100e+02   1.0905220e+03
   5.6287310e+02   1.1908960e+03
   5.6335520e+02   1.2802920e+03
   5.6383730e+02   1.3546640e+03
   5.6431950e+02   1.4289100e+03
   5.6480160e+02   1.5050930e+03
   5.6528370e+02   1.5782350e+03
   5.6576580e+02   1.6342900e+03
   5.6624790e+02   1.6718540e+03
   5.6673000e+02   1.7209400e+03
   5.6721220e+02   1.7999240e+03
   5.6769430e+02   1.8903420e+03
   5.6817640e+02   1.9448030e+03
   5.6865850e+02   1.9657470e+03
   5.6914060e+02   1.9747140e+03
   5.6962270e+02   1.9793450e+03
   5.7010490e+02   1.9839380e+03
   5.7058700e+02   2.0045140e+03
   5.7106910e+02   2.0486420e+03
   5.7155120e+02   2.0616540e+03
   5.7203330e+02   1.9842280e+03
   5.7251540e+02   1.8659750e+03
   5.7299760e+02   1.7643730e+03
   5.7347970e+02   1.7233590e+03
   5.7396180e+02   1.6683760e+03
   5.7444390e+02   1.5759750e+03
   5.7492600e+02   1.4542600e+03
   5.7540810e+02   1.3326490e+03
   5.7589030e+02   1.1959370e+03
   5.7637240e+02   1.0779390e+03
   5.7685450e+02   9.9633890e+02
   5.7733660e+02   9.5466500e+02
   5.7781870e+02   8.9501460e+02
   5.7830080e+02   8.0637990e+02
   5.7878300e+02   7.2291310e+02
   5.7926510e+02   6.7632810e+02
   5.7974720e+02   6.6521480e+02
   5.8022930e+02   6.6050980e+02
   5.8071140e+02   6.6050680e+02
   5.8119350e+02   6.6187110e+02
   5.8167570e+02   6.5259380e+02
   5.8215780e+02   6.3891800e+02
   5.8263990e+02   6.4092870e+02
   5.8312200e+02   6.7281930e+02
   5.8360410e+02   7.2031350e+02
   5.8408620e+02   7.7163180e+02
   5.8456840e+02   8.2771290e+02
   5.8505050e+02   8.9273930e+02
   5.8553260e+02   9.8107320e+02
   5.8601470e+02   1.0699380e+03
   5.8649680e+02   1.1456120e+03
   5.8697890e+02   1.2015980e+03
   5.8746110e+02   1.2541510e+03
   5.8794320e+02   1.2981610e+03
   5.8842530e+02   1.3451590e+03
   5.8890740e+02   1.4060020e+03
   5.8938950e+02   1.4854580e+03
   5.8987160e+02   1.5691820e+03
   5.9035380e+02   1.6588190e+03
   5.9083590e+02   1.7494610e+03
   5.9131800e+02   1.8275930e+03
   5.9180010e+02   1.8913600e+03
   5.9228220e+02   1.9613760e+03
   5.9276430e+02   2.0550580e+03
   5.9324650e+02   2.1612550e+03
   5.9372860e+02   2.2460990e+03
   5.9421070e+02   2.3100680e+03
   5.9469280e+02   2.3549550e+03
   5.9517490e+02   2.3938080e+03
   5.9565700e+02   2.4117350e+03
   5.9613920e+02   2.3895110e+03
   5.9662130e+02   2.3237000e+03
   5.9710340e+02   2.2163460e+03
   5.9758540e+02   2.0478770e+03
   5.9806760e+02   1.8433950e+03
   5.9854970e+02   1.6397770e+03
   5.9903180e+02   1.4298290e+03
   5.9951390e+02   1.2378560e+03
   5.9999600e+02   1.0687350e+03
   6.0047810e+02   9.1943550e+02
   6.0096030e+02   7.8659470e+02
   6.0144240e+02   6.7678610e+02
   6.0192450e+02   5.7452250e+02
   6.0240660e+02   4.7103420e+02
   6.0288870e+02   3.6519730e+02
   6.0337080e+02   2.8150880e+02
   6.0385300e+02   2.2277640e+02
   6.0433510e+02   1.7818850e+02
   6.0481720e+02   1.4098140e+02
   6.0529930e+02   1.1144730e+02
   6.0578140e+02   9.0727540e+01
   6.0626350e+02   7.8865230e+01
   6.0674570e+02   6.6769530e+01
   6.0722780e+02   4.4235350e+01
   6.0770990e+02   1.7637700e+01
   6.0819200e+02   4.1796900e-01
   6.0867410e+02   2.0224610e+00
   6.0915630e+02   1.0361330e+00
   6.0963840e+02   6.0742200e-01
   6.1012050e+02   2.4853520e+00
   6.1060260e+02   1.6416020e+00
   6.1108470e+02   2.8212890e+00
   6.1156680e+02   1.3517580e+01
   6.1204900e+02   3.3167970e+01
   6.1253110e+02   6.4250000e+01
   6.1301320e+02   9.2866210e+01
   6.1349530e+02   1.2149410e+02
   6.1397740e+02   1.4501860e+02
   6.1445950e+02   1.5380860e+02
   6.1494170e+02   1.4367870e+02
   6.1542380e+02   1.5463960e+02
   6.1590590e+02   1.9621680e+02
   6.1638800e+02   2.5017970e+02
   6.1687010e+02   2.8891110e+02
   6.1735220e+02   3.1398340e+02
   6.1783440e+02   3.3472270e+02
   6.1831650e+02   3.5501660e+02
   6.1879860e+02   3.7312790e+02
   6.1928070e+02   3.8341990e+02
   6.1976280e+02   3.8808300e+02
   6.2024490e+02   3.9762400e+02
   6.2072710e+02   4.2583400e+02
   6.2120920e+02   4.5479880e+02
   6.2169130e+02   4.6990720e+02
   6.2217340e+02   4.6585550e+02
   6.2265550e+02   4.7050590e+02
   6.2313760e+02   5.0736040e+02
   6.2361980e+02   5.4290430e+02
   6.2410190e+02   5.5090040e+02
   6.2458400e+02   5.1647170e+02
   6.2506610e+02   4.8651950e+02
   6.2554820e+02   4.6604790e+02
   6.2603030e+02   4.4827440e+02
   6.2651250e+02   4.2040820e+02
   6.2699460e+02   3.8197850e+02
   6.2747670e+02   3.4111330e+02
   6.2795880e+02   2.9843950e+02
   6.2844090e+02   2.5652150e+02
   6.2892300e+02   2.2365620e+02
   6.2940520e+02   1.9843460e+02
   6.2988730e+02   1.6992870e+02
   6.3036940e+02   1.1893850e+02
   6.3085150e+02   6.8890620e+01
   6.3133360e+02   4.6422850e+01
   6.3181570e+02   5.4345700e+01
   6.3229790e+02   6.4382810e+01
   6.3278000e+02   7.4848630e+01
   6.3326210e+02   7.5350590e+01
   6.3374420e+02   5.6067380e+01
   6.3422630e+02   1.0702150e+01
   6.3470840e+02   5.4092770e+01
   6.3519060e+02   6.3731450e+01
   6.3567270e+02   5.4099610e+01
   6.3615480e+02   4.3452150e+01
   6.3663690e+02   2.9956050e+01
   6.3711900e+02   2.1582030e+01
   6.3760110e+02   2.0749020e+01
   6.3808330e+02   2.5664060e+01
   6.3856540e+02   3.5317380e+01
   6.3904750e+02   4.9107420e+01
   6.3952960e+02   5.5147460e+01
   6.4001170e+02   4.1365230e+01
   6.4049380e+02   1.7825200e+01
   6.4097600e+02   4.1796900e-01
   6.4145810e+02   1.2810550e+01
   6.4194020e+02   2.1253910e+01
   6.4242230e+02   2.7067380e+01
   6.4290440e+02   2.9253910e+01
   6.4338650e+02   2.2435550e+01
   6.4386870e+02   6.1767580e+00
   6.4435080e+02   8.8769530e+00
   6.4483290e+02   5.3173830e+01
   6.4531500e+02   1.3360640e+02
   6.4579710e+02   1.8105270e+02
   6.4627920e+02   1.7483590e+02
   6.4676140e+02   1.7677440e+02
   6.4724350e+02   1.9864260e+02
   6.4772560e+02   2.2830270e+02
   6.4820770e+02   2.3510550e+02
   6.4868980e+02   2.1698730e+02
   6.4917190e+02   2.0096390e+02
   6.4965410e+02   1.9729200e+02
   6.5013620e+02   2.0242770e+02
   6.5061830e+02   2.1046780e+02
   6.5110040e+02   2.2081150e+02
   6.5158250e+02   2.2807420e+02
   6.5206460e+02   2.2108500e+02
   6.5254680e+02   2.1382810e+02
   6.5302890e+02   2.2108110e+02
   6.5351100e+02   2.4511040e+02
   6.5399310e+02   2.7318750e+02
   6.5447520e+02   3.1803030e+02
   6.5495730e+02   3.5446970e+02
   6.5543950e+02   3.6160350e+02
   6.5592160e+02   3.0000590e+02
   6.5640370e+02   2.6587300e+02
   6.5688580e+02   2.6912110e+02
   6.5736790e+02   2.9242770e+02
   6.5785000e+02   3.1373440e+02
   6.5833220e+02   3.3451660e+02
   6.5881430e+02   3.4427830e+02
   6.5929640e+02   3.3710740e+02
   6.5977850e+02   3.2155370e+02
   6.6026060e+02   3.1181540e+02
   6.6074270e+02   3.0913180e+02
   6.6122490e+02   3.2213380e+02
   6.6170700e+02   3.6440530e+02
   6.6218910e+02   4.1963090e+02
   6.6267120e+02   4.6766990e+02
   6.6315330e+02   5.0953520e+02
   6.6363540e+02   5.5796190e+02
   6.6411750e+02   6.3053120e+02
   6.6459960e+02   7.0399510e+02
   6.6508170e+02   7.6135550e+02
   6.6556380e+02   7.9440720e+02
   6.6604600e+02   8.3356250e+02
   6.6652810e+02   8.8192380e+02
   6.6701020e+02   9.3707520e+02
   6.6749230e+02   9.9678810e+02
   6.6797440e+02   1.0611500e+03
   6.6845650e+02   1.1300140e+03
   6.6893870e+02   1.2041640e+03
   6.6942080e+02   1.2831560e+03
   6.6990290e+02   1.3698920e+03
   6.7038500e+02   1.4628360e+03
   6.7086710e+02   1.5528010e+03
   6.7134920e+02   1.6393010e+03
   6.7183140e+02   1.7186300e+03
   6.7231350e+02   1.7869480e+03
   6.7279560e+02   1.8447570e+03
   6.7327770e+02   1.8926850e+03
   6.7375980e+02   1.9176210e+03
   6.7424190e+02   1.9438550e+03
   6.7472410e+02   1.9945800e+03
   6.7520620e+02   2.0688120e+03
   6.7568830e+02   2.1131550e+03
   6.7617040e+02   2.1056250e+03
   6.7665250e+02   2.0800280e+03
   6.7713460e+02   2.0520800e+03
   6.7761680e+02   2.0257580e+03
   6.7809890e+02   1.9697160e+03
   6.7858100e+02   1.8751580e+03
   6.7906310e+02   1.7724860e+03
   6.7954520e+02   1.6929290e+03
   6.8002730e+02   1.6320560e+03
   6.8050950e+02   1.5612110e+03
   6.8099160e+02   1.4725310e+03
   6.8147370e+02   1.3832750e+03
   6.8195580e+02   1.3148030e+03
   6.8243790e+02   1.2584420e+03
   6.8292000e+02   1.1956000e+03
   6.8340220e+02   1.1117720e+03
   6.8388430e+02   1.0299090e+03
   6.8436640e+02   9.5374510e+02
   6.8484850e+02   8.8734570e+02
   6.8533060e+02   8.3624710e+02
   6.8581270e+02   8.1770610e+02
   6.8629490e+02   7.9783590e+02
   6.8677700e+02   7.6789650e+02
   6.8725910e+02   7.2970800e+02
   6.8774120e+02   6.9653710e+02
   6.8822330e+02   6.6664940e+02
   6.8870540e+02   6.4651370e+02
   6.8918760e+02   6.4737790e+02
   6.8966970e+02   6.6286820e+02
   6.9015180e+02   6.5631930e+02
   6.9063390e+02   6.2714360e+02
   6.9111600e+02   5.9879100e+02
   6.9159810e+02   5.9794140e+02
   6.9208030e+02   6.0472170e+02
   6.9256240e+02   5.9050390e+02
   6.9304450e+02   5.4762700e+02
   6.9352660e+02   5.1255760e+02
   6.9400870e+02   5.1346780e+02
   6.9449080e+02   5.2379300e+02
   6.9497300e+02   5.1542290e+02
   6.9545510e+02   4.6143550e+02
   6.9593720e+02   4.2092580e+02
   6.9641930e+02   4.0227730e+02
   6.9690140e+02   3.9279000e+02
   6.9738350e+02   3.7278420e+02
   6.9786570e+02   3.4262010e+02
   6.9834780e+02   3.0687700e+02
   6.9882990e+02   2.6084570e+02
   6.9931200e+02   2.1454790e+02
   6.9979410e+02   1.9230860e+02
   7.0027620e+02   1.9145510e+02
   7.0075840e+02   2.0016600e+02
   7.0124050e+02   2.3301760e+02
   7.0172260e+02   2.5681450e+02
   7.0220470e+02   2.3131250e+02
   7.0268680e+02   1.6450590e+02
   7.0316890e+02   1.0901460e+02
   7.0365110e+02   9.1124020e+01
   7.0413320e+02   8.3345700e+01
   7.0461530e+02   7.1833980e+01
   7.0509740e+02   5.4490230e+01
   7.0557950e+02   4.4563480e+01
   7.0606160e+02   4.2494140e+01
   7.0654380e+02   4.7192380e+01
   7.0702590e+02   6.0589840e+01
   7.0750800e+02   8.2871090e+01
   7.0799010e+02   9.8103520e+01
   7.0847220e+02   1.0459860e+02
   7.0895430e+02   1.0843460e+02
   7.0943650e+02   1.1508400e+02
   7.0991860e+02   1.2435940e+02
   7.1040070e+02   1.3695310e+02
   7.1088280e+02   1.5606740e+02
   7.1136490e+02   1.7066310e+02
   7.1184700e+02   1.6755080e+02
   7.1232920e+02   1.5695610e+02
   7.1281130e+02   1.5387600e+02
   7.1329340e+02   1.7143260e+02
   7.1377550e+02   1.8538480e+02
   7.1425760e+02   1.8900390e+02
   7.1473970e+02   1.8712990e+02
   7.1522190e+02   1.9264550e+02
   7.1570400e+02   2.0868460e+02
   7.1618610e+02   2.2081450e+02
   7.1666820e+02   2.2333200e+02
   7.1715030e+02   2.1925680e+02
   7.1763240e+02   2.1362790e+02
   7.1811460e+02   2.0759280e+02
   7.1859670e+02   2.1341020e+02
   7.1907880e+02   2.5815820e+02
   7.1956090e+02   3.0685840e+02
   7.2004300e+02   3.1180470e+02
   7.2052510e+02   2.7522360e+02
   7.2100730e+02   2.4457520e+02
   7.2148940e+02   2.5212210e+02
   7.2197150e+02   2.6429390e+02
   7.2245360e+02   2.5665530e+02
   7.2293570e+02   2.1755760e+02
   7.2341780e+02   2.0470120e+02
   7.2390000e+02   2.3215230e+02
   7.2438210e+02   2.6693460e+02
   7.2486420e+02   2.8478520e+02
   7.2534630e+02   2.8532810e+02
   7.2582840e+02   2.7452930e+02
   7.2631050e+02   2.5157420e+02
   7.2679270e+02   2.2264550e+02
   7.2727480e+02   1.8737010e+02
   7.2775690e+02   1.5213480e+02
   7.2823900e+02   1.3511130e+02
   7.2872110e+02   1.4981930e+02
   7.2920320e+02   1.6095700e+02
   7.2968530e+02   1.3432520e+02
   7.3016740e+02   9.2133790e+01
   7.3064950e+02   6.6593750e+01
   7.3113170e+02   8.3744140e+01
   7.3161380e+02   9.5792970e+01
   7.3209590e+02   9.6168950e+01
   7.3257800e+02   8.7252930e+01
   7.3306010e+02   7.2350590e+01
   7.3354220e+02   4.8483400e+01
   7.3402440e+02   3.0578120e+01
   7.3450650e+02   2.3783200e+01
   7.3498860e+02   2.4791020e+01
   7.3547070e+02   2.7584960e+01
   7.3595280e+02   3.1304690e+01
   7.3643490e+02   3.0184570e+01
   7.3691710e+02   1.6291020e+01
   7.3739920e+02   7.2558600e-01
   7.3788130e+02   1.3786130e+01
   7.3836340e+02   2.2081050e+01
   7.3884550e+02   2.1732420e+01
   7.3932760e+02   2.0820310e+00
   7.3980980e+02   1.7073240e+01
   7.4029190e+02   2.7557620e+01
   7.4077400e+02   2.9622070e+01
   7.4125610e+02   2.2660160e+01
   7.4173820e+02   6.7187500e-01
   7.4222030e+02   1.8447270e+01
   7.4270250e+02   1.0000000e+01
   7.4318460e+02   2.1654300e+01
   7.4366670e+02   3.5181640e+01
   7.4414880e+02   2.8828120e+01
   7.4463090e+02   1.7377930e+01
   7.4511300e+02   1.2297850e+01
   7.4559520e+02   9.4384770e+00
   7.4607730e+02   4.0957030e+00
   7.4655940e+02   5.4501950e+00
   7.4704150e+02   9.7353520e+00
   7.4752360e+02   5.5830080e+00
   7.4800570e+02   6.6640630e+00
   7.4848790e+02   2.6280270e+01
   7.4897000e+02   7.1122070e+01
   7.4945210e+02   8.8249020e+01
   7.4993420e+02   6.5812500e+01
   7.5041630e+02   3.0566410e+01
   7.5089840e+02   2.1490230e+01
   7.5138060e+02   4.0171880e+01
   7.5186270e+02   5.5694340e+01
   7.5234480e+02   5.8587890e+01
   7.5282690e+02   6.1787110e+01
   7.5330900e+02   9.3454100e+01
   7.5379110e+02   1.4109080e+02
   7.5427330e+02   1.7175000e+02
   7.5475540e+02   1.4971290e+02
   7.5523750e+02   1.2597270e+02
   7.5571960e+02   1.3610250e+02
   7.5620170e+02   1.7097660e+02
   7.5668380e+02   1.9890140e+02
   7.5716600e+02   2.0059080e+02
   7.5764810e+02   2.0234180e+02
   7.5813020e+02   2.1730470e+02
   7.5861230e+02   2.4062890e+02
   7.5909440e+02   2.4782620e+02
   7.5957650e+02   2.3302730e+02
   7.6005870e+02   2.2453710e+02
   7.6054080e+02   2.4321090e+02
   7.6102290e+02   2.7659180e+02
   7.6150500e+02   2.9341800e+02
   7.6198710e+02   2.9666110e+02
   7.6246920e+02   3.0224120e+02
   7.6295140e+02   3.2380180e+02
   7.6343350e+02   3.4495610e+02
   7.6391560e+02   3.5497660e+02
   7.6439770e+02   3.5301070e+02
   7.6487980e+02   3.5305080e+02
   7.6536190e+02   3.4937400e+02
   7.6584410e+02   3.5812400e+02
   7.6632620e+02   3.9335450e+02
   7.6680830e+02   4.5918650e+02
   7.6729040e+02   4.7739750e+02
   7.6777250e+02   4.3939750e+02
   7.6825460e+02   3.9398050e+02
   7.6873680e+02   3.7887700e+02
   7.6921890e+02   3.8730470e+02
   7.6970100e+02   4.0703320e+02
   7.7018310e+02   4.3759380e+02
   7.7066520e+02   4.6992680e+02
   7.7114730e+02   5.0572170e+02
   7.7162950e+02   5.3530660e+02
   7.7211160e+02   5.4669820e+02
   7.7259370e+02   5.2906640e+02
   7.7307580e+02   5.1972170e+02
   7.7355790e+02   5.3639840e+02
   7.7404000e+02   5.5312300e+02
   7.7452220e+02   5.4440920e+02
   7.7500430e+02   4.9957520e+02
   7.7548640e+02   4.8227340e+02
   7.7596850e+02   5.0158890e+02
   7.7645060e+02   5.3346000e+02
   7.7693270e+02   5.5203610e+02
   7.7741490e+02   5.5891110e+02
   7.7789700e+02   5.5998240e+02
   7.7837910e+02   5.5785350e+02
   7.7886120e+02   5.4609470e+02
   7.7934330e+02   5.0958690e+02
   7.7982540e+02   4.6393950e+02
   7.8030760e+02   4.2983980e+02
   7.8078970e+02   4.1432320e+02
   7.8127180e+02   4.0848830e+02
   7.8175390e+02   4.1804300e+02
   7.8223600e+02   4.3233980e+02
   7.8271810e+02   4.3466110e+02
   7.8320030e+02   4.2350680e+02
   7.8368240e+02   4.0845410e+02
   7.8416450e+02   3.9085640e+02
   7.8464660e+02   3.7138570e+02
   7.8512870e+02   3.5150680e+02
   7.8561080e+02   3.3089940e+02
   7.8609300e+02   3.0759380e+02
   7.8657510e+02   2.7339840e+02
   7.8705720e+02   2.4499120e+02
   7.8753930e+02   2.3585640e+02
   7.8802140e+02   2.4082030e+02
   7.8850350e+02   2.4822560e+02
   7.8898570e+02   2.7325390e+02
   7.8946780e+02   2.7749710e+02
   7.8994990e+02   2.4208300e+02
   7.9043200e+02   1.8416800e+02
   7.9091410e+02   1.6186910e+02
   7.9139620e+02   1.8040720e+02
   7.9187840e+02   1.9332420e+02
   7.9236050e+02   1.8190040e+02
   7.9284260e+02   1.5532420e+02
   7.9332470e+02   1.2613180e+02
   7.9380680e+02   9.6224610e+01
   7.9428890e+02   7.2006840e+01
   7.9477110e+02   6.0135740e+01
   7.9525310e+02   5.2208980e+01
   7.9573520e+02   4.0985350e+01
   7.9621730e+02   2.7961910e+01
   7.9669950e+02   2.5029300e+01
   7.9718160e+02   4.5913090e+01
   7.9766370e+02   6.0784180e+01
   7.9814580e+02   5.8566410e+01
   7.9862790e+02   4.2121090e+01
   7.9911000e+02   3.2406250e+01
   7.9959220e+02   2.9370120e+01
   8.0007430e+02   2.8149410e+01
   8.0055640e+02   3.2005860e+01
   8.0103850e+02   3.5245120e+01
   8.0152060e+02   2.2895510e+01
   8.0200270e+02   2.2138670e+00
   8.0248490e+02   2.0323240e+01
   8.0296700e+02   1.2864260e+01
   8.0344910e+02   2.3437500e+00
   8.0393120e+02   1.6376950e+00
   8.0441330e+02   1.2244140e+01
   8.0489540e+02   2.2922850e+01
   8.0537760e+02   3.8699220e+01
   8.0585970e+02   4.4044920e+01
   8.0634180e+02   2.6092770e+01
   8.0682390e+02   1.1453120e+01
   8.0730600e+02   3.4640620e+01
   8.0778810e+02   4.3388670e+01
   8.0827030e+02   4.0057620e+01
   8.0875240e+02   1.9844730e+01
   8.0923450e+02   7.2490230e+00
   8.0971660e+02   3.0560550e+01
   8.1019870e+02   4.9291020e+01
   8.1068080e+02   6.4449220e+01
   8.1116300e+02   8.3832030e+01
   8.1164510e+02   9.2980470e+01
   8.1212720e+02   7.7280270e+01
   8.1260930e+02   3.1750000e+01
   8.1309140e+02   1.7821290e+01
   8.1357350e+02   4.9602540e+01
   8.1405570e+02   7.5714840e+01
   8.1453780e+02   4.5276370e+01
   8.1501990e+02   2.4368160e+01
   8.1550200e+02   4.3063480e+01
   8.1598410e+02   8.9375000e+00
   8.1646620e+02   2.7164060e+01
   8.1694840e+02   2.1658200e+01
   8.1743050e+02   2.3056640e+00
   8.1791260e+02   4.0546880e+00
   8.1839470e+02   7.0058590e+00
   8.1887680e+02   1.7943360e+01
   8.1935890e+02   3.4966800e+01
   8.1984110e+02   4.1344730e+01
   8.2032320e+02   2.2500980e+01
   8.2080530e+02   2.8271480e+01
   8.2128740e+02   5.1519530e+01
   8.2176950e+02   4.4078120e+01
   8.2225160e+02   2.5684570e+01
   8.2273380e+02   4.5263670e+00
   8.2321590e+02   1.3448240e+01
   8.2369800e+02   9.2626950e+00
   8.2418010e+02   1.9662110e+01
   8.2466220e+02   4.1116210e+01
   8.2514430e+02   2.5295900e+01
   8.2562650e+02   1.0830080e+00
   8.2610860e+02   9.2910160e+00
   8.2659070e+02   4.8242200e-01
   8.2707280e+02   1.2039060e+01
   8.2755490e+02   2.7192380e+01
   8.2803700e+02   4.1313480e+01
   8.2851920e+02   5.1257810e+01
   8.2900130e+02   5.7216800e+01
   8.2948340e+02   5.6262700e+01
   8.2996550e+02   4.7268550e+01
   8.3044760e+02   4.7678710e+01
   8.3092970e+02   9.3126950e+01
   8.3141190e+02   1.4724510e+02
   8.3189400e+02   1.5534570e+02
   8.3237610e+02   1.0349410e+02
   8.3285820e+02   6.6109380e+01
   8.3334030e+02   7.7418950e+01
   8.3382240e+02   1.0839260e+02
   8.3430460e+02   1.4430760e+02
   8.3478670e+02   1.9353610e+02
   8.3526880e+02   2.0373730e+02
   8.3575090e+02   1.6517380e+02
   8.3623300e+02   1.1821880e+02
   8.3671510e+02   9.9308590e+01
   8.3719730e+02   1.0041410e+02
   8.3767940e+02   9.5090820e+01
   8.3816150e+02   8.0957030e+01
   8.3864360e+02   7.1244140e+01
   8.3912570e+02   7.9314450e+01
   8.3960780e+02   9.3418950e+01
   8.4009000e+02   1.0384770e+02
   8.4057210e+02   1.0812010e+02
   8.4105420e+02   1.1296000e+02
   8.4153630e+02   1.1884960e+02
   8.4201840e+02   1.2523830e+02
   8.4250050e+02   1.3019820e+02
   8.4298270e+02   1.3340720e+02
   8.4346480e+02   1.4832520e+02
   8.4394690e+02   1.7630760e+02
   8.4442900e+02   2.0196970e+02
   8.4491110e+02   2.0804880e+02
   8.4539320e+02   2.0519140e+02
   8.4587540e+02   2.0403420e+02
   8.4635750e+02   2.0510740e+02
   8.4683960e+02   2.2083010e+02
   8.4732170e+02   2.8123930e+02
   8.4780380e+02   3.3766310e+02
   8.4828590e+02   3.5371090e+02
   8.4876810e+02   3.2039650e+02
   8.4925020e+02   3.1247660e+02
   8.4973230e+02   3.3343070e+02
   8.5021440e+02   3.6850390e+02
   8.5069650e+02   4.1128710e+02
   8.5117860e+02   4.5928610e+02
   8.5166080e+02   5.0610250e+02
   8.5214290e+02   5.5042970e+02
   8.5262500e+02   5.8940330e+02
   8.5310710e+02   6.0699710e+02
   8.5358920e+02   6.2862400e+02
   8.5407140e+02   6.7897750e+02
   8.5455350e+02   7.6501860e+02
   8.5503560e+02   8.3470800e+02
   8.5551770e+02   8.6778710e+02
   8.5599980e+02   9.0791600e+02
   8.5648190e+02   9.8496970e+02
   8.5696410e+02   1.0958090e+03
   8.5744620e+02   1.1716500e+03
   8.5792830e+02   1.2127390e+03
   8.5841040e+02   1.2585190e+03
   8.5889250e+02   1.3455190e+03
   8.5937460e+02   1.4481520e+03
   8.5985680e+02   1.5335500e+03
   8.6033890e+02   1.6027840e+03
   8.6082100e+02   1.6807830e+03
   8.6130300e+02   1.7809880e+03
   8.6178520e+02   1.8878190e+03
   8.6226730e+02   1.9971090e+03
   8.6274940e+02   2.1075180e+03
   8.6323150e+02   2.2107760e+03
   8.6371360e+02   2.3033450e+03
   8.6419570e+02   2.4035280e+03
   8.6467790e+02   2.5252310e+03
   8.6516000e+02   2.6586450e+03
   8.6564210e+02   2.7840800e+03
   8.6612420e+02   2.9019950e+03
   8.6660630e+02   3.0096620e+03
   8.6708840e+02   3.0871970e+03
   8.6757060e+02   3.1685490e+03
   8.6805270e+02   3.2854290e+03
   8.6853480e+02   3.4298570e+03
   8.6901690e+02   3.5310380e+03
   8.6949900e+02   3.5852710e+03
   8.6998110e+02   3.6041000e+03
   8.7046330e+02   3.5866400e+03
   8.7094540e+02   3.5393970e+03
   8.7142750e+02   3.4877960e+03
   8.7190960e+02   3.4310330e+03
   8.7239170e+02   3.3648320e+03
   8.7287380e+02   3.2971200e+03
   8.7335600e+02   3.2081540e+03
   8.7383810e+02   3.0707940e+03
   8.7432020e+02   2.8976240e+03
   8.7480230e+02   2.7385960e+03
   8.7528440e+02   2.6200270e+03
   8.7576650e+02   2.4931100e+03
   8.7624870e+02   2.3427800e+03
   8.7673080e+02   2.1804520e+03
   8.7721290e+02   2.0329220e+03
   8.7769500e+02   1.9008930e+03
   8.7817710e+02   1.7903270e+03
   8.7865920e+02   1.7096380e+03
   8.7914140e+02   1.6417410e+03
   8.7962350e+02   1.5628280e+03
   8.8010560e+02   1.4839110e+03
   8.8058770e+02   1.4268450e+03
   8.8106980e+02   1.4103510e+03
   8.8155190e+02   1.4030440e+03
   8.8203410e+02   1.4061030e+03
   8.8251620e+02   1.4096370e+03
   8.8299830e+02   1.3956940e+03
   8.8348040e+02   1.3582910e+03
   8.8396250e+02   1.3390270e+03
   8.8444460e+02   1.3482100e+03
   8.8492680e+02   1.3728830e+03
   8.8540890e+02   1.4013400e+03
   8.8589100e+02   1.4303540e+03
   8.8637310e+02   1.4550840e+03
   8.8685520e+02   1.4760300e+03
   8.8733730e+02   1.4881240e+03
   8.8781950e+02   1.4824840e+03
   8.8830160e+02   1.4700930e+03
   8.8878370e+02   1.4652180e+03
   8.8926580e+02   1.4784920e+03
   8.8974790e+02   1.4688810e+03
   8.9023000e+02   1.4288900e+03
   8.9071220e+02   1.3821300e+03
   8.9119430e+02   1.3533720e+03
   8.9167640e+02   1.3390250e+03
   8.9215850e+02   1.3311060e+03
   8.9264060e+02   1.3295010e+03
   8.9312270e+02   1.3252500e+03
   8.9360490e+02   1.3068110e+03
   8.9408700e+02   1.2853780e+03
   8.9456910e+02   1.2708190e+03
   8.9505120e+02   1.2658590e+03
   8.9553330e+02   1.2621510e+03
   8.9601540e+02   1.2613210e+03
   8.9649760e+02   1.2591940e+03
   8.9697970e+02   1.2523200e+03
   8.9746180e+02   1.2412290e+03
   8.9794390e+02   1.2285020e+03
   8.9842600e+02   1.2144610e+03
   8.9890810e+02   1.2039560e+03
   8.9939030e+02   1.2117180e+03
   8.9987240e+02   1.2159370e+03
   9.0035450e+02   1.1905170e+03
   9.0083660e+02   1.1329370e+03
   9.0131870e+02   1.0953280e+03
   9.0180080e+02   1.0861970e+03
   9.0228300e+02   1.0915550e+03
   9.0276510e+02   1.1111020e+03
   9.0324720e+02   1.1408240e+03
   9.0372930e+02   1.1504380e+03
   9.0421140e+02   1.1417830e+03
   9.0469350e+02   1.1487390e+03
   9.0517570e+02   1.2133290e+03
   9.0565780e+02   1.2851190e+03
   9.0613990e+02   1.3050930e+03
   9.0662200e+02   1.2879400e+03
   9.0710410e+02   1.2861540e+03
   9.0758620e+02   1.3211350e+03
   9.0806840e+02   1.3656090e+03
   9.0855050e+02   1.4163320e+03
   9.0903260e+02   1.4709480e+03
   9.0951470e+02   1.5238310e+03
   9.0999680e+02   1.5754280e+03
   9.1047890e+02   1.6292910e+03
   9.1096110e+02   1.6818290e+03
   9.1144320e+02   1.7460500e+03
   9.1192530e+02   1.8412910e+03
   9.1240740e+02   1.9585010e+03
   9.1288950e+02   2.0833070e+03
   9.1337160e+02   2.2108880e+03
   9.1385380e+02   2.3460380e+03
   9.1433590e+02   2.4888700e+03
   9.1481800e+02   2.6398550e+03
   9.1530010e+02   2.8026870e+03
   9.1578220e+02   2.9787560e+03
   9.1626430e+02   3.1451130e+03
   9.1674650e+02   3.2934240e+03
   9.1722860e+02   3.4519070e+03
   9.1771070e+02   3.6719040e+03
   9.1819280e+02   3.9132370e+03
   9.1867490e+02   4.1114440e+03
   9.1915700e+02   4.2406880e+03
   9.1963920e+02   4.3848130e+03
   9.2012130e+02   4.5857400e+03
   9.2060340e+02   4.7961120e+03
   9.2108550e+02   4.9848880e+03
   9.2156760e+02   5.1471520e+03
   9.2204970e+02   5.3241070e+03
   9.2253190e+02   5.5200660e+03
   9.2301400e+02   5.6968710e+03
   9.2349610e+02   5.8254370e+03
   9.2397820e+02   5.9129770e+03
   9.2446030e+02   5.9718510e+03
   9.2494240e+02   6.0020240e+03
   9.2542460e+02   5.9956880e+03
   9.2590670e+02   5.9476730e+03
   9.2638880e+02   5.8623710e+03
   9.2687080e+02   5.7406320e+03
   9.2735300e+02   5.5847340e+03
   9.2783510e+02   5.4050850e+03
   9.2831720e+02   5.1997120e+03
   9.2879930e+02   4.9750610e+03
   9.2928140e+02   4.7317790e+03
   9.2976350e+02   4.4692550e+03
   9.3024570e+02   4.1885500e+03
   9.3072780e+02   3.8877750e+03
   9.3120990e+02   3.5756910e+03
   9.3169200e+02   3.2015000e+03
   9.3217410e+02   2.8729720e+03
   9.3265630e+02   2.6463040e+03
   9.3313840e+02   2.4711420e+03
   9.3362050e+02   2.2638220e+03
   9.3410260e+02   2.0124990e+03
   9.3458470e+02   1.8006650e+03
   9.3506680e+02   1.6506730e+03
   9.3554900e+02   1.5224450e+03
   9.3603110e+02   1.3519350e+03
   9.3651320e+02   1.1689850e+03
   9.3699530e+02   1.0336040e+03
   9.3747740e+02   9.7803220e+02
   9.3795950e+02   9.1755080e+02
   9.3844170e+02   8.0389750e+02
   9.3892380e+02   6.8871880e+02
   9.3940590e+02   6.1354100e+02
   9.3988800e+02   5.8535450e+02
   9.4037010e+02   5.6046390e+02
   9.4085220e+02   5.4032230e+02
   9.4133440e+02   5.1267970e+02
   9.4181650e+02   4.6165820e+02
   9.4229860e+02   3.9902640e+02
   9.4278070e+02   3.3687010e+02
   9.4326280e+02   2.7699220e+02
   9.4374490e+02   2.3354300e+02
   9.4422710e+02   2.2596970e+02
   9.4470920e+02   2.2145410e+02
   9.4519130e+02   2.0633500e+02
   9.4567340e+02   1.8180270e+02
   9.4615550e+02   1.5825780e+02
   9.4663760e+02   1.3648830e+02
   9.4711980e+02   1.0531540e+02
   9.4760190e+02   4.4738280e+01
   9.4808400e+02   1.3583010e+01
   9.4856610e+02   1.0648440e+01
   9.4904820e+02   2.9958980e+01
   9.4953030e+02   4.9310550e+01
   9.5001250e+02   5.2832000e-01
   9.5049460e+02   4.0447270e+01
   9.5097670e+02   5.8516600e+01
   9.5145880e+02   6.0179690e+01
   9.5194090e+02   5.3058590e+01
   9.5242300e+02   3.6625980e+01
   9.5290520e+02   2.0216800e+01
   9.5338730e+02   3.6582030e+00
   9.5386940e+02   7.7158200e+00
   9.5435150e+02   9.3564450e+00
   9.5483360e+02   3.6171880e+00
   9.5531570e+02   7.6787110e+00
   9.5579790e+02   2.6527340e+01
   9.5628000e+02   4.2450200e+01
   9.5676210e+02   6.0183590e+01
   9.5724420e+02   6.6890620e+01
   9.5772630e+02   4.9555660e+01
   9.5820840e+02   8.5244140e+00
   9.5869060e+02   1.9398440e+01
   9.5917270e+02   3.4196290e+01
   9.5965480e+02   4.5787110e+01
   9.6013690e+02   5.7366210e+01
   9.6061900e+02   7.0125980e+01
   9.6110110e+02   8.7370120e+01
   9.6158330e+02   1.0915920e+02
   9.6206540e+02   1.2983690e+02
   9.6254750e+02   1.4103610e+02
   9.6302960e+02   1.6404300e+02
   9.6351170e+02   2.0894240e+02
   9.6399380e+02   2.6549800e+02
   9.6447600e+02   3.0346970e+02
   9.6495810e+02   3.2236040e+02
   9.6544020e+02   3.3111330e+02
   9.6592230e+02   3.3089360e+02
   9.6640440e+02   3.3373240e+02
   9.6688650e+02   3.4476370e+02
   9.6736870e+02   3.6671290e+02
   9.6785080e+02   4.0447270e+02
   9.6833290e+02   4.7084770e+02
   9.6881500e+02   5.3708980e+02
   9.6929710e+02   5.9750290e+02
   9.6977920e+02   6.5832420e+02
   9.7026140e+02   7.3949220e+02
   9.7074350e+02   8.3410640e+02
   9.7122560e+02   9.0727830e+02
   9.7170770e+02   9.5407910e+02
   9.7218980e+02   1.0032030e+03
   9.7267190e+02   1.0768320e+03
   9.7315410e+02   1.1577260e+03
   9.7363620e+02   1.2283680e+03
   9.7411830e+02   1.2856210e+03
   9.7460040e+02   1.3723600e+03
   9.7508250e+02   1.4995520e+03
   9.7556460e+02   1.6274200e+03
   9.7604680e+02   1.7419000e+03
   9.7652890e+02   1.8418790e+03
   9.7701100e+02   1.9151690e+03
   9.7749310e+02   1.9692390e+03
   9.7797520e+02   2.0304830e+03
   9.7845730e+02   2.1196140e+03
   9.7893950e+02   2.2088810e+03
   9.7942160e+02   2.2936430e+03
   9.7990370e+02   2.3680910e+03
   9.8038580e+02   2.4240250e+03
   9.8086790e+02   2.4604940e+03
   9.8135000e+02   2.4839380e+03
   9.8183220e+02   2.4956590e+03
   9.8231430e+02   2.4921370e+03
   9.8279640e+02   2.4725150e+03
   9.8327850e+02   2.4333070e+03
   9.8376060e+02   2.3640150e+03
   9.8424270e+02   2.2561950e+03
   9.8472490e+02   2.1544690e+03
   9.8520700e+02   2.0828650e+03
   9.8568910e+02   2.0108140e+03
   9.8617120e+02   1.9187660e+03
   9.8665330e+02   1.8077490e+03
   9.8713540e+02   1.7213630e+03
   9.8761760e+02   1.6602290e+03
   9.8809970e+02   1.5945660e+03
   9.8858180e+02   1.5060160e+03
   9.8906390e+02   1.4039030e+03
   9.8954600e+02   1.2900620e+03
   9.9002810e+02   1.1696410e+03
   9.9051030e+02   1.0591380e+03
   9.9099240e+02   9.5946680e+02
   9.9147450e+02   8.7676370e+02
   9.9195660e+02   8.1511910e+02
   9.9243870e+02   7.6639550e+02
   9.9292080e+02   7.1446880e+02
   9.9340290e+02   6.6140230e+02
   9.9388500e+02   6.2103120e+02
   9.9436710e+02   5.9902930e+02
   9.9484920e+02   5.7742380e+02
   9.9533140e+02   5.4370800e+02
   9.9581350e+02   5.0339750e+02
   9.9629560e+02   4.6016410e+02
   9.9677770e+02   4.1202730e+02
   9.9725980e+02   3.6932810e+02
   9.9774190e+02   3.3051370e+02
   9.9822410e+02   3.0101760e+02
   9.9870620e+02   2.9656540e+02
   9.9918830e+02   3.0113960e+02
   9.9967040e+02   2.6618750e+02
   1.0001530e+03   2.0089160e+02
   1.0006350e+03   1.5446000e+02
   1.0011170e+03   1.7752150e+02
   1.0015990e+03   1.9590430e+02
   1.0020810e+03   1.6787300e+02
   1.0025630e+03   1.1726660e+02
   1.0030450e+03   1.0194820e+02
   1.0035270e+03   1.2575000e+02
   1.0040090e+03   1.3837010e+02
   1.0044920e+03   1.2548540e+02
   1.0049740e+03   1.0712790e+02
   1.0054560e+03   1.1043260e+02
   1.0059380e+03   1.2201560e+02
   1.0064200e+03   1.2352150e+02
   1.0069020e+03   1.0953030e+02
   1.0073840e+03   8.8265620e+01
   1.0078660e+03   5.0813480e+01
   1.0083490e+03   2.0177730e+01
   1.0088310e+03   1.8691410e+01
   1.0093130e+03   4.2529300e+01
   1.0097950e+03   3.8468750e+01
   1.0102770e+03   9.0771480e+00
   1.0107590e+03   1.4578120e+01
   1.0112410e+03   7.7412110e+00
   1.0117230e+03   7.0869140e+00
   1.0122050e+03   1.8213870e+01
   1.0126880e+03   2.4477540e+01
   1.0131700e+03   2.4000980e+01
   1.0136520e+03   1.4574220e+01
   1.0141340e+03   4.1074220e+00
   1.0146160e+03   6.3066410e+00
   1.0150980e+03   1.5991210e+01
   1.0155800e+03   2.3283200e+01
   1.0160620e+03   2.8356450e+01
   1.0165440e+03   3.4139650e+01
   1.0170270e+03   4.3004880e+01
   1.0175090e+03   4.5618160e+01
   1.0179910e+03   3.0056640e+01
   1.0184730e+03   1.3527340e+01
   1.0189550e+03   7.3798830e+00
   1.0194370e+03   1.1941410e+01
   1.0199190e+03   2.2357420e+01
   1.0204010e+03   3.9061520e+01
   1.0208840e+03   5.2231450e+01
   1.0213660e+03   6.1959960e+01
   1.0218480e+03   5.9633790e+01
   1.0223300e+03   2.1848630e+01
   1.0228120e+03   3.7713870e+01
   1.0232940e+03   7.1704100e+01
   1.0237760e+03   5.0079100e+01
   1.0242580e+03   3.2308590e+01
   1.0247400e+03   3.0457030e+01
   1.0252230e+03   3.1464840e+01
   1.0257050e+03   3.2626950e+00
   1.0261870e+03   4.1750980e+01
   1.0266690e+03   4.8864260e+01
   1.0271510e+03   3.7109400e-01
   1.0276330e+03   4.3760740e+01
   1.0281150e+03   4.0715820e+01
   1.0285970e+03   2.1806640e+01
   1.0290790e+03   1.1411130e+01
   1.0295620e+03   1.0894530e+01
   1.0300440e+03   5.9824220e+00
   1.0305260e+03   5.2773440e+00
   1.0310080e+03   8.8505860e+00
   1.0314900e+03   8.4160160e+00
   1.0319720e+03   3.4462890e+01
   1.0324540e+03   5.5634770e+01
   1.0329360e+03   7.0486330e+01
   1.0334190e+03   7.5668950e+01
   1.0339010e+03   5.6731450e+01
   1.0343830e+03   4.5685550e+01
   1.0348650e+03   4.7494140e+01
   1.0353470e+03   5.8793950e+01
   1.0358290e+03   7.8949220e+01
   1.0363110e+03   1.0602830e+02
   1.0367930e+03   1.2220410e+02
   1.0372760e+03   1.2498930e+02
   1.0377580e+03   1.2189940e+02
   1.0382400e+03   1.1387790e+02
   1.0387220e+03   1.0612110e+02
   1.0392040e+03   1.0072560e+02
   1.0396860e+03   9.8084960e+01
   1.0401680e+03   1.0834470e+02
   1.0406500e+03   1.3463570e+02
   1.0411320e+03   1.6178120e+02
   1.0416150e+03   1.8344340e+02
   1.0420970e+03   2.0256740e+02
   1.0425790e+03   2.3294530e+02
   1.0430610e+03   2.6445800e+02
   1.0435430e+03   2.7441110e+02
   1.0440250e+03   2.2821970e+02
   1.0445070e+03   1.9921970e+02
   1.0449890e+03   2.0967770e+02
   1.0454710e+03   2.3349610e+02
   1.0459540e+03   2.4562890e+02
   1.0464360e+03   2.4677340e+02
   1.0469180e+03   2.5102250e+02
   1.0474000e+03   2.5911430e+02
   1.0478820e+03   2.7441890e+02
   1.0483640e+03   3.1818750e+02
   1.0488460e+03   3.5433890e+02
   1.0493280e+03   3.4757320e+02
   1.0498110e+03   3.0215620e+02
   1.0502930e+03   2.7295900e+02
   1.0507750e+03   2.6378710e+02
   1.0512570e+03   2.6368650e+02
   1.0517390e+03   2.7408300e+02
   1.0522210e+03   2.8368360e+02
   1.0527030e+03   2.6255860e+02
   1.0531850e+03   2.2980660e+02
   1.0536670e+03   2.2632710e+02
   1.0541500e+03   2.7891020e+02
   1.0546320e+03   3.1406740e+02
   1.0551140e+03   2.8365620e+02
   1.0555960e+03   2.5838670e+02
   1.0560780e+03   2.9032030e+02
   1.0565600e+03   3.7497850e+02
   1.0570420e+03   4.2264650e+02
   1.0575240e+03   4.3521780e+02
   1.0580060e+03   4.4522270e+02
   1.0584890e+03   4.6778910e+02
   1.0589710e+03   4.9940920e+02
   1.0594530e+03   5.4341310e+02
   1.0599350e+03   5.9411720e+02
   1.0604170e+03   6.3732420e+02
   1.0608990e+03   6.7289450e+02
   1.0613810e+03   6.9509860e+02
   1.0618630e+03   6.9493360e+02
   1.0623460e+03   7.0799020e+02
   1.0628280e+03   7.9527150e+02
   1.0633100e+03   9.1769630e+02
   1.0637920e+03   1.0105630e+03
   1.0642740e+03   1.0646830e+03
   1.0647560e+03   1.1084670e+03
   1.0652380e+03   1.1401870e+03
   1.0657200e+03   1.1754790e+03
   1.0662030e+03   1.2248550e+03
   1.0666850e+03   1.2812390e+03
   1.0671670e+03   1.3093840e+03
   1.0676490e+03   1.3148260e+03
   1.0681310e+03   1.3297280e+03
   1.0686130e+03   1.3726150e+03
   1.0690950e+03   1.4187340e+03
   1.0695770e+03   1.4662830e+03
   1.0700590e+03   1.5000890e+03
   1.0705420e+03   1.4998880e+03
   1.0710240e+03   1.4515730e+03
   1.0715060e+03   1.4272460e+03
   1.0719880e+03   1.4312820e+03
   1.0724700e+03   1.4335690e+03
   1.0729520e+03   1.4104330e+03
   1.0734340e+03   1.3712720e+03
   1.0739160e+03   1.3285020e+03
   1.0743980e+03   1.2809270e+03
   1.0748810e+03   1.2209720e+03
   1.0753630e+03   1.1233930e+03
   1.0758450e+03   1.0507480e+03
   1.0763270e+03   1.0176320e+03
   1.0768090e+03   1.0088430e+03
   1.0772910e+03   1.0029900e+03
   1.0777730e+03   9.9931930e+02
   1.0782550e+03   9.9363380e+02
   1.0787380e+03   9.8324410e+02
   1.0792200e+03   9.8629690e+02
   1.0797020e+03   1.0402190e+03
   1.0801840e+03   1.0873500e+03
   1.0806660e+03   1.0848150e+03
   1.0811480e+03   1.0369860e+03
   1.0816300e+03   1.0418250e+03
   1.0821120e+03   1.0954520e+03
   1.0825940e+03   1.1360110e+03
   1.0830770e+03   1.1190630e+03
   1.0835590e+03   1.1029060e+03
   1.0840410e+03   1.1583640e+03
   1.0845230e+03   1.2467940e+03
   1.0850050e+03   1.3088670e+03
   1.0854870e+03   1.3125760e+03
   1.0859690e+03   1.3409210e+03
   1.0864510e+03   1.3992380e+03
   1.0869330e+03   1.4695790e+03
   1.0874160e+03   1.5407050e+03
   1.0878980e+03   1.6103940e+03
   1.0883800e+03   1.6854170e+03
   1.0888620e+03   1.7587230e+03
   1.0893440e+03   1.8053550e+03
   1.0898260e+03   1.7976610e+03
   1.0903080e+03   1.7822630e+03
   1.0907900e+03   1.7704210e+03
   1.0912720e+03   1.7584210e+03
   1.0917550e+03   1.7395960e+03
   1.0922370e+03   1.7134770e+03
   1.0927190e+03   1.6807710e+03
   1.0932010e+03   1.6428650e+03
   1.0936830e+03   1.5928410e+03
   1.0941650e+03   1.5157330e+03
   1.0946470e+03   1.4299410e+03
   1.0951290e+03   1.3490640e+03
   1.0956120e+03   1.2737060e+03
   1.0960940e+03   1.2084490e+03
   1.0965760e+03   1.1537270e+03
   1.0970580e+03   1.1025690e+03
   1.0975400e+03   1.0593790e+03
   1.0980220e+03   1.0065890e+03
   1.0985040e+03   9.0880760e+02
   1.0989860e+03   7.9365620e+02
   1.0994690e+03   7.0518550e+02
   1.0999510e+03   6.6368460e+02
   1.1004330e+03   6.2625490e+02
   1.1009150e+03   5.9139750e+02
   1.1013970e+03   5.6417090e+02
   1.1018790e+03   5.6013670e+02
   1.1023610e+03   5.6279100e+02
   1.1028430e+03   5.2983400e+02
   1.1033250e+03   4.6736130e+02
   1.1038070e+03   4.1335940e+02
   1.1042900e+03   3.8109860e+02
   1.1047720e+03   3.6344730e+02
   1.1052540e+03   3.6371090e+02
   1.1057360e+03   3.7048730e+02
   1.1062180e+03   3.6471390e+02
   1.1067000e+03   3.4856930e+02
   1.1071820e+03   3.3250880e+02
   1.1076640e+03   3.1705470e+02
   1.1081470e+03   3.0152730e+02
   1.1086290e+03   2.8338960e+02
   1.1091110e+03   2.6732810e+02
   1.1095930e+03   2.5857520e+02
   1.1100750e+03   2.5413770e+02
   1.1105570e+03   2.3711520e+02
   1.1110390e+03   2.0724610e+02
   1.1115210e+03   1.7940430e+02
   1.1120040e+03   1.5963960e+02
   1.1124860e+03   1.4278910e+02
   1.1129680e+03   1.1767090e+02
   1.1134500e+03   9.4904300e+01
   1.1139320e+03   9.0690430e+01
   1.1144140e+03   1.1760160e+02
   1.1148960e+03   1.2461230e+02
   1.1153780e+03   1.0495800e+02
   1.1158600e+03   9.0387700e+01
   1.1163430e+03   1.1529200e+02
   1.1168250e+03   1.5158010e+02
   1.1173070e+03   1.4288570e+02
   1.1177890e+03   1.0455180e+02
   1.1182710e+03   8.0498050e+01
   1.1187530e+03   9.9447270e+01
   1.1192350e+03   1.1290140e+02
   1.1197170e+03   1.1490040e+02
   1.1201990e+03   1.1082420e+02
   1.1206820e+03   1.0594730e+02
   1.1211640e+03   1.0005370e+02
   1.1216460e+03   8.8824220e+01
   1.1221280e+03   7.3125000e+01
   1.1226100e+03   6.6669920e+01
   1.1230920e+03   8.5910160e+01
   1.1235740e+03   1.0478710e+02
   1.1240560e+03   1.1667770e+02
   1.1245390e+03   1.1902150e+02
   1.1250210e+03   9.6958010e+01
   1.1255030e+03   5.4291020e+01
   1.1259850e+03   3.5226560e+01
   1.1264670e+03   5.3168950e+01
   1.1269490e+03   7.6832030e+01
   1.1274310e+03   9.2124020e+01
   1.1279130e+03   9.5781250e+01
   1.1283960e+03   7.7083980e+01
   1.1288780e+03   3.8342770e+01
   1.1293600e+03   3.0796880e+01
   1.1298420e+03   5.6450200e+01
   1.1303240e+03   8.6187500e+01
   1.1308060e+03   1.1494920e+02
   1.1312880e+03   1.3066700e+02
   1.1317700e+03   1.0650490e+02
   1.1322520e+03   6.6152340e+01
   1.1327340e+03   4.4813480e+01
   1.1332170e+03   5.6502930e+01
   1.1336990e+03   6.1873050e+01
   1.1341810e+03   5.9292970e+01
   1.1346630e+03   5.6281250e+01
   1.1351450e+03   6.4493160e+01
   1.1356270e+03   7.2105470e+01
   1.1361090e+03   5.2172850e+01
   1.1365910e+03   1.4587890e+01
   1.1370740e+03   8.5390630e+00
   1.1375560e+03   1.4246090e+01
   1.1380380e+03   1.7269530e+01
   1.1385200e+03   1.6413090e+01
   1.1390020e+03   5.1349610e+01
   1.1394840e+03   3.2599610e+01
   1.1399660e+03   1.5985350e+01
   1.1404480e+03   2.4939450e+01
   1.1409310e+03   7.1982420e+00
   1.1414130e+03   2.6268550e+01
   1.1418950e+03   7.7011720e+00
   1.1423770e+03   3.8566410e+01
   1.1428590e+03   4.5900390e+01
   1.1433410e+03   4.2776370e+01
   1.1438230e+03   7.0752930e+01
   1.1443050e+03   1.1881250e+02
   1.1447870e+03   1.1544730e+02
   1.1452700e+03   3.6916020e+01
   1.1457520e+03   2.6022460e+01
   1.1462340e+03   2.2753900e-01
   1.1467160e+03   4.3032230e+01
   1.1471980e+03   6.3417970e+01
   1.1476800e+03   6.2722660e+01
   1.1481620e+03   4.6207030e+01
   1.1486440e+03   1.5517580e+01
   1.1491260e+03   1.6943360e+00
   1.1496090e+03   2.6066410e+01
   1.1500910e+03   4.7891600e+01
   1.1505730e+03   2.5550780e+01
   1.1510550e+03   9.1914060e+00
   1.1515370e+03   2.2410160e+01
   1.1520190e+03   1.1259770e+01
   1.1525010e+03   4.3281250e+00
   1.1529830e+03   2.5000980e+01
   1.1534660e+03   4.1238280e+01
   1.1539480e+03   4.4864260e+01
   1.1544300e+03   4.3701170e+01
   1.1549120e+03   4.0871090e+01
   1.1553940e+03   3.9505860e+01
   1.1558760e+03   4.7318360e+01
   1.1563580e+03   7.2817380e+01
   1.1568400e+03   8.2634770e+01
   1.1573220e+03   7.2968750e+01
   1.1578050e+03   6.0269530e+01
   1.1582870e+03   6.1878910e+01
   1.1587690e+03   6.6544920e+01
   1.1592510e+03   4.9176760e+01
   1.1597330e+03   1.9177730e+01
   1.1602150e+03   2.4495120e+01
   1.1606970e+03   1.1108890e+02
   1.1611790e+03   1.4632910e+02
   1.1616610e+03   1.0036720e+02
   1.1621440e+03   3.3132810e+01
   1.1626260e+03   2.2617190e+01
   1.1631080e+03   4.1197270e+01
   1.1635900e+03   3.6333980e+01
   1.1640720e+03   3.9433590e+00
   1.1645540e+03   8.5654300e+00
   1.1650360e+03   3.4417970e+01
   1.1655180e+03   5.7676760e+01
   1.1660000e+03   3.3784180e+01
   1.1664830e+03   7.5908200e+00
   1.1669650e+03   8.0537110e+00
   1.1674470e+03   1.7436520e+01
   1.1679290e+03   3.0832030e+01
   1.1684110e+03   2.0677730e+01
   1.1688930e+03   2.2118160e+01
   1.1693750e+03   6.4778320e+01
   1.1698570e+03   1.0010550e+02
   1.1703400e+03   1.0894920e+02
   1.1708220e+03   9.6513670e+01
   1.1713040e+03   7.1563480e+01
   1.1717860e+03   3.9712890e+01
   1.1722680e+03   2.1439450e+01
   1.1727500e+03   2.7985350e+01
   1.1732320e+03   3.7332030e+01
   1.1737140e+03   4.4352540e+01
   1.1741970e+03   4.6467770e+01
   1.1746790e+03   3.9307620e+01
   1.1751610e+03   2.5682620e+01
   1.1756430e+03   3.2957030e+01
   1.1761250e+03   5.6359380e+01
   1.1766070e+03   6.7450200e+01
   1.1770890e+03   3.1978520e+01
   1.1775710e+03   7.5957030e+00
   1.1780530e+03   4.3320310e+01
   1.1785360e+03   8.5313480e+01
   1.1790180e+03   6.9633790e+01
   1.1795000e+03   3.5634770e+00
   1.1799820e+03   6.5478520e+00
   1.1804640e+03   5.7211910e+01
   1.1809460e+03   1.0516110e+02
   1.1814280e+03   6.2388670e+01
   1.1819100e+03   1.2214840e+01
   1.1823920e+03   4.0205080e+00
   1.1828750e+03   5.5400390e+00
   1.1833570e+03   3.4007810e+01
   1.1838390e+03   8.2497070e+01
   1.1843210e+03   1.0784180e+02
   1.1848030e+03   1.0600490e+02
   1.1852850e+03   9.6138670e+01
   1.1857670e+03   8.7406250e+01
   1.1862490e+03   8.0952150e+01
   1.1867320e+03   7.9542970e+01
   1.1872140e+03   8.0745120e+01
   1.1876960e+03   7.7653320e+01
   1.1881780e+03   6.9765620e+01
   1.1886600e+03   6.3729490e+01
   1.1891420e+03   6.1009770e+01
   1.1896240e+03   5.6708010e+01
   1.1901060e+03   3.9876950e+01
   1.1905890e+03   2.4981450e+01
   1.1910710e+03   2.7056640e+01
   1.1915530e+03   4.3544920e+01
   1.1920350e+03   5.5992190e+01
   1.1925170e+03   6.4627930e+01
   1.1929990e+03   6.6192380e+01
   1.1934810e+03   5.7507810e+01
   1.1939630e+03   4.9185550e+01
   1.1944450e+03   5.3367190e+01
   1.1949270e+03   6.1491210e+01
   1.1954100e+03   6.7799800e+01
   1.1958920e+03   7.1042970e+01
   1.1963740e+03   6.6013670e+01
   1.1968560e+03   4.9445310e+01
   1.1973380e+03   4.8608400e+01
   1.1978200e+03   8.3060550e+01
   1.1983020e+03   1.1362790e+02
   1.1987840e+03   9.1948240e+01
   1.1992670e+03   4.5156250e+01
   1.1997490e+03   6.5585940e+00
   1.2002310e+03   2.5461910e+01
   1.2007130e+03   2.4750980e+01
   1.2011950e+03   1.3589840e+01
   1.2016770e+03   5.0696290e+01
   1.2021590e+03   6.9391600e+01
   1.2026410e+03   7.5303710e+01
   1.2031240e+03   6.8072270e+01
   1.2036060e+03   5.3202150e+01
   1.2040880e+03   4.4886720e+01
   1.2045700e+03   4.2341800e+01
   1.2050520e+03   5.0805660e+01
   1.2055340e+03   7.3778320e+01
   1.2060160e+03   8.6274410e+01
   1.2064980e+03   5.9750980e+01
   1.2069800e+03   2.4242190e+01
   1.2074630e+03   1.5981450e+01
   1.2079450e+03   2.4420900e+01
   1.2084270e+03   2.7137700e+01
   1.2089090e+03   1.5197270e+01
   1.2093910e+03   1.7301760e+01
   1.2098730e+03   3.9157230e+01
   1.2103550e+03   5.5456050e+01
   1.2108370e+03   3.5895510e+01
   1.2113190e+03   6.5039060e+00
   1.2118020e+03   4.3232420e+00
   1.2122840e+03   8.3007999e-02
   1.2127660e+03   8.9169920e+00
   1.2132480e+03   2.3185550e+01
   1.2137300e+03   3.5575200e+01
   1.2142120e+03   4.6673830e+01
   1.2146940e+03   4.9101560e+01
   1.2151760e+03   2.3329100e+01
   1.2156590e+03   5.2060550e+00
   1.2161410e+03   3.8203130e+00
   1.2166230e+03   2.1401370e+01
   1.2171050e+03   3.7422850e+01
   1.2175870e+03   3.8327150e+01
   1.2180690e+03   4.2823240e+01
   1.2185510e+03   5.3715820e+01
   1.2190330e+03   6.6608400e+01
   1.2195160e+03   8.6939450e+01
   1.2199980e+03   9.9141600e+01
   1.2204800e+03   7.4281250e+01
   1.2209620e+03   1.9827150e+01
   1.2214440e+03   1.5429700e-01
   1.2219260e+03   2.6853520e+01
   1.2224080e+03   4.6929690e+01
   1.2228900e+03   5.0240230e+01
   1.2233720e+03   4.9526370e+01
   1.2238540e+03   5.7944340e+01
   1.2243370e+03   7.0977540e+01
   1.2248190e+03   9.2902340e+01
   1.2253010e+03   1.2106450e+02
   1.2257830e+03   1.1118160e+02
   1.2262650e+03   5.1067380e+01
   1.2267470e+03   9.8779300e+00
   1.2272290e+03   5.2568360e+00
   1.2277110e+03   2.2035160e+01
   1.2281930e+03   6.7164060e+01
   1.2286760e+03   1.0845020e+02
   1.2291580e+03   1.0540820e+02
   1.2296400e+03   5.4442380e+01
   1.2301220e+03   1.6358400e+01
   1.2306040e+03   8.8457030e+00
   1.2310860e+03   1.7722660e+01
   1.2315680e+03   7.5410160e+00
   1.2320500e+03   1.4660160e+01
   1.2325330e+03   6.1805660e+01
   1.2330150e+03   1.0375590e+02
   1.2334970e+03   9.4895510e+01
   1.2339790e+03   3.2387700e+01
   1.2344610e+03   2.6320310e+01
   1.2349430e+03   8.3050780e+01
   1.2354250e+03   1.0958890e+02
   1.2359070e+03   5.6893550e+01
   1.2363900e+03   4.1132810e+00
   1.2368720e+03   1.9199220e+00
   1.2373540e+03   2.6908200e+01
   1.2378360e+03   4.1736330e+01
   1.2383180e+03   4.1050780e+01
   1.2388000e+03   5.3667970e+01
   1.2392820e+03   7.9983400e+01
   1.2397640e+03   1.0322070e+02
   1.2402460e+03   1.1978320e+02
   1.2407290e+03   1.2330270e+02
   1.2412110e+03   9.2187500e+01
   1.2416930e+03   5.5160160e+01
   1.2421750e+03   4.5882810e+01
   1.2426570e+03   6.5866210e+01
   1.2431390e+03   7.6714840e+01
   1.2436210e+03   7.8447270e+01
   1.2441030e+03   7.1286130e+01
   1.2445850e+03   5.3636720e+01
   1.2450680e+03   3.8918950e+01
   1.2455500e+03   3.8043950e+01
   1.2460320e+03   4.3730470e+01
   1.2465140e+03   4.9290040e+01
   1.2469960e+03   5.4810550e+01
   1.2474780e+03   5.2673830e+01
   1.2479600e+03   4.3248050e+01
   1.2484420e+03   3.1601560e+01
   1.2489250e+03   1.7436520e+01
   1.2494070e+03   5.7988280e+00
   1.2498890e+03   2.7880860e+00
   1.2503710e+03   5.9218750e+00
   1.2508530e+03   2.7949220e+00
   1.2513350e+03   6.7460940e+00
   1.2518170e+03   3.7442380e+01
   1.2522990e+03   8.5049800e+01
   1.2527810e+03   1.1942870e+02
   1.2532640e+03   1.1883500e+02
   1.2537460e+03   1.0868950e+02
   1.2542280e+03   9.0503910e+01
   1.2547100e+03   7.4309570e+01
   1.2551920e+03   7.4088870e+01
   1.2556740e+03   8.5320310e+01
   1.2561560e+03   6.7255860e+01
   1.2566380e+03   2.7584960e+01
   1.2571200e+03   1.0027340e+01
   1.2576030e+03   6.3463870e+01
   1.2580850e+03   1.0262210e+02
   1.2585670e+03   1.0953120e+02
   1.2590490e+03   9.8522460e+01
   1.2595310e+03   6.7731450e+01
   1.2600130e+03   3.0265620e+01
   1.2604950e+03   3.7517580e+01
   1.2609770e+03   8.2556640e+01
   1.2614600e+03   1.2366110e+02
   1.2619420e+03   1.5816110e+02
   1.2624240e+03   1.6131350e+02
   1.2629060e+03   1.1861130e+02
   1.2633880e+03   7.0226560e+01
   1.2638700e+03   6.0012700e+01
   1.2643520e+03   7.2530270e+01
   1.2648340e+03   7.6366210e+01
   1.2653170e+03   7.2199220e+01
   1.2657990e+03   7.0425780e+01
   1.2662810e+03   7.6785160e+01
   1.2667630e+03   7.9665040e+01
   1.2672450e+03   7.6667970e+01
   1.2677270e+03   7.3614260e+01
   1.2682090e+03   7.3691410e+01
   1.2686910e+03   7.7452150e+01
   1.2691730e+03   8.8871090e+01
   1.2696560e+03   1.0534380e+02
   1.2701380e+03   1.1506840e+02
   1.2706200e+03   1.1689160e+02
   1.2711020e+03   1.1174510e+02
   1.2715840e+03   9.7602540e+01
   1.2720660e+03   8.8165040e+01
   1.2725480e+03   1.1086430e+02
   1.2730300e+03   1.3371000e+02
   1.2735120e+03   1.1040920e+02
   1.2739950e+03   5.7599610e+01
   1.2744770e+03   4.1449220e+01
   1.2749590e+03   7.2133790e+01
   1.2754410e+03   8.4652340e+01
   1.2759230e+03   6.8904300e+01
   1.2764050e+03   5.5329100e+01
   1.2768870e+03   7.3157230e+01
   1.2773690e+03   9.9664060e+01
   1.2778520e+03   1.2792190e+02
   1.2783340e+03   1.4906350e+02
   1.2788160e+03   1.3661910e+02
   1.2792980e+03   8.9299800e+01
   1.2797800e+03   8.3608400e+01
   1.2802620e+03   1.2839840e+02
   1.2807440e+03   1.5608500e+02
   1.2812260e+03   8.4763670e+01
   1.2817080e+03   2.2495120e+01
   1.2821910e+03   3.9936520e+01
   1.2826730e+03   9.3949220e+01
   1.2831550e+03   1.1790530e+02
   1.2836370e+03   1.1464750e+02
   1.2841190e+03   9.8872070e+01
   1.2846010e+03   7.3257810e+01
   1.2850830e+03   5.8033200e+01
   1.2855650e+03   6.8093750e+01
   1.2860470e+03   8.4990230e+01
   1.2865300e+03   1.0736820e+02
   1.2870120e+03   1.2652050e+02
   1.2874940e+03   1.2763770e+02
   1.2879760e+03   1.1507130e+02
   1.2884580e+03   9.4317380e+01
   1.2889400e+03   6.8326170e+01
   1.2894220e+03   6.1755860e+01
   1.2899040e+03   1.0125290e+02
   1.2903860e+03   1.3592090e+02
   1.2908690e+03   1.6025490e+02
   1.2913510e+03   1.7085350e+02
   1.2918330e+03   1.5618750e+02
   1.2923150e+03   1.2858790e+02
   1.2927970e+03   1.0686620e+02
   1.2932790e+03   9.1673830e+01
   1.2937610e+03   7.3075200e+01
   1.2942430e+03   4.1192380e+01
   1.2947260e+03   3.4785160e+01
   1.2952080e+03   6.4500000e+01
   1.2956900e+03   9.9871090e+01
   1.2961720e+03   1.1188670e+02
   1.2966540e+03   1.1130180e+02
   1.2971360e+03   1.0528220e+02
   1.2976180e+03   9.6208010e+01
   1.2981000e+03   9.3649410e+01
   1.2985830e+03   9.9920900e+01
   1.2990650e+03   9.2460940e+01
   1.2995470e+03   6.7498050e+01
   1.3000290e+03   3.9963870e+01
   1.3005110e+03   1.3246090e+01
   1.3009930e+03   3.0225590e+01
   1.3014750e+03   8.5632810e+01
   1.3019570e+03   2.4837110e+02
   1.3024390e+03   2.7925980e+02
   1.3029220e+03   1.9074900e+02
   1.3034040e+03   1.3792090e+02
   1.3038860e+03   1.3750390e+02
   1.3043680e+03   1.3786720e+02
   1.3048500e+03   1.0662210e+02
   1.3053320e+03   7.1072270e+01
   1.3058140e+03   3.5966800e+01
   1.3062960e+03   9.2187500e+00
   1.3067780e+03   8.5322270e+00
   1.3072610e+03   2.5208010e+01
   1.3077430e+03   3.0398440e+01
   1.3082250e+03   2.3461910e+01
   1.3087070e+03   2.7715820e+01
   1.3091890e+03   6.6951170e+01
   1.3096710e+03   7.0305660e+01
   1.3101530e+03   7.6184570e+01
   1.3106350e+03   7.3442380e+01
   1.3111180e+03   7.3274410e+01
   1.3116000e+03   7.5852540e+01
   1.3120820e+03   8.8126950e+01
   1.3125640e+03   9.9181640e+01
   1.3130460e+03   8.7992190e+01
   1.3135280e+03   3.4447270e+01
   1.3140100e+03   5.7529300e+00
   1.3144920e+03   9.3916020e+00
   1.3149740e+03   2.3181640e+01
   1.3154570e+03   3.7929690e+01
   1.3159390e+03   4.6443360e+01
   1.3164210e+03   3.2708980e+01
   1.3169030e+03   8.6103520e+00
   1.3173850e+03   2.2656300e-01
   1.3178670e+03   0.0000000e+00
   1.5000000e+03   0.0000000e+00
